0,1,-1,0,-1,-1,1,0,-1,1.02979,-0.175781,0.0556641,-51.5,-16.375,-28.875,-0.836588,-1.42063,-2.56205
0,0,1,-1,0,-2,-1,-1,0,1.02979,-0.175781,0.0556641,-51.5,-16.375,-28.875,-0.836588,-1.42063,-2.56205
0,-1,0,0,-2,0,0,-4,-2,1.02979,-0.175781,0.0556641,-51.5,-16.375,-28.875,-0.836588,-1.42063,-2.56205
0,-1,-2,-1,-1,-2,-2,-2,-1,1.02979,-0.175781,0.0556641,-51.5,-16.375,-28.875,-0.836588,-1.42063,-2.56205
2,-1,-2,-1,-1,1,0,-1,0,1.02979,-0.175781,0.0556641,-51.5,-16.375,-28.875,-0.836588,-1.42063,-2.56205
2,-1,1,-1,-1,-1,-1,-1,-1,1.02979,-0.175781,0.0556641,-51.5,-16.375,-28.875,-0.836588,-1.42063,-2.56205
5,0,-16,2,-2,-1,-2,0,0,1.02979,-0.175781,0.0556641,-51.5,-16.375,-28.875,-0.836588,-1.42063,-2.56205
5,-2,7,-2,-1,-1,-2,-2,-2,1.02979,-0.175781,0.0556641,-51.5,-16.375,-28.875,-0.836588,-1.42063,-2.56205
11,0,-7,1,0,-3,-2,-1,0,1.01904,-0.145996,0.0449219,-49.3125,-11.75,-32.375,-0.833635,-1.43156,-2.58225
11,-2,-2,-3,0,0,-1,-3,-2,1.01904,-0.145996,0.0449219,-49.3125,-11.75,-32.375,-0.833635,-1.43156,-2.58225
20,2,8,2,1,0,-2,0,0,1.01904,-0.145996,0.0449219,-49.3125,-11.75,-32.375,-0.833635,-1.43156,-2.58225
20,-1,-19,-2,-3,1,-1,1,-1,1.01904,-0.145996,0.0449219,-49.3125,-11.75,-32.375,-0.833635,-1.43156,-2.58225
28,2,-1,1,0,0,1,1,0,1.03125,-0.177734,0.0375977,-50.8125,-8.8125,-36,-0.822235,-1.44214,-2.61182
28,0,-2,0,-2,-2,-2,-2,-1,1.03125,-0.177734,0.0375977,-50.8125,-8.8125,-36,-0.822235,-1.44214,-2.61182
42,0,11,-1,0,-2,1,1,-1,1.03125,-0.177734,0.0375977,-50.8125,-8.8125,-36,-0.822235,-1.44214,-2.61182
42,-1,-1,2,-2,-2,-1,1,-2,1.03125,-0.177734,0.0375977,-50.8125,-8.8125,-36,-0.822235,-1.44214,-2.61182
50,-1,-12,-4,-1,-1,-1,-2,-1,1.04395,-0.215332,0.0112305,-57.5,-4.5,-37.4375,-0.807375,-1.45217,-2.64806
50,-2,12,0,0,-2,0,1,-1,1.04395,-0.215332,0.0112305,-57.5,-4.5,-37.4375,-0.807375,-1.45217,-2.64806
66,-3,-35,-11,-4,-4,-1,-1,-1,1.04395,-0.215332,0.0112305,-57.5,-4.5,-37.4375,-0.807375,-1.45217,-2.64806
66,-1,8,1,0,-1,0,0,0,1.04395,-0.215332,0.0112305,-57.5,-4.5,-37.4375,-0.807375,-1.45217,-2.64806
73,0,-5,0,-1,0,0,0,-1,1.02148,-0.228027,0.0195312,-61.5625,0.4375,-37.8125,-0.778455,-1.4601,-2.69943
73,0,1,-1,-2,-1,-2,-2,1,1.02148,-0.228027,0.0195312,-61.5625,0.4375,-37.8125,-0.778455,-1.4601,-2.69943
87,-1,5,2,-1,0,-1,-1,-2,1.02148,-0.228027,0.0195312,-61.5625,0.4375,-37.8125,-0.778455,-1.4601,-2.69943
87,0,6,-2,-1,-1,0,-3,-1,1.02148,-0.228027,0.0195312,-61.5625,0.4375,-37.8125,-0.778455,-1.4601,-2.69943
133,0,0,0,-1,-1,-1,0,-1,0.976562,-0.214355,0.0634766,-66.3125,7.6875,-42.375,-0.592256,-1.47489,-2.95369
133,-1,0,-1,-1,-1,-1,-1,0,0.976562,-0.214355,0.0634766,-66.3125,7.6875,-42.375,-0.592256,-1.47489,-2.95369
134,-3,-1,0,1,1,0,-3,0,0.976562,-0.214355,0.0634766,-66.3125,7.6875,-42.375,-0.592256,-1.47489,-2.95369
134,0,0,1,0,0,-1,-2,0,0.976562,-0.214355,0.0634766,-66.3125,7.6875,-42.375,-0.592256,-1.47489,-2.95369
134,-3,8,0,-1,0,-1,-1,-1,0.976562,-0.214355,0.0634766,-66.3125,7.6875,-42.375,-0.592256,-1.47489,-2.95369
134,0,-10,-3,-1,-2,-1,-2,-2,0.976562,-0.214355,0.0634766,-66.3125,7.6875,-42.375,-0.592256,-1.47489,-2.95369
136,1,4,2,-3,-2,0,-1,0,0.976562,-0.214355,0.0634766,-66.3125,7.6875,-42.375,-0.592256,-1.47489,-2.95369
136,-1,-7,-7,-1,0,0,-2,-1,0.976562,-0.214355,0.0634766,-66.3125,7.6875,-42.375,-0.592256,-1.47489,-2.95369
139,-1,6,1,-1,-1,0,-1,-1,0.976562,-0.214355,0.0634766,-66.3125,7.6875,-42.375,-0.592256,-1.47489,-2.95369
139,-2,2,0,-1,-2,0,0,-1,0.976562,-0.214355,0.0634766,-66.3125,7.6875,-42.375,-0.592256,-1.47489,-2.95369
154,-1,-2,-2,-1,-1,-2,1,-3,0.949219,-0.208008,0.0600586,-75.4375,9.4375,-45.0625,-0.494917,-1.47887,-3.07877
154,-1,4,2,0,-3,1,-2,-1,0.949219,-0.208008,0.0600586,-75.4375,9.4375,-45.0625,-0.494917,-1.47887,-3.07877
155,1,2,1,1,0,0,-2,-1,0.949219,-0.208008,0.0600586,-75.4375,9.4375,-45.0625,-0.494917,-1.47887,-3.07877
155,-3,-35,-9,0,-1,-2,-1,-2,0.949219,-0.208008,0.0600586,-75.4375,9.4375,-45.0625,-0.494917,-1.47887,-3.07877
169,-2,-3,-2,-2,-2,-3,-1,-2,0.907227,-0.210938,0.0654297,-86.3125,11.0625,-46.9375,-0.388395,-1.48159,3.06628
169,-1,-1,1,-2,0,-2,-1,-1,0.907227,-0.210938,0.0654297,-86.3125,11.0625,-46.9375,-0.388395,-1.48159,3.06628
177,1,0,-2,0,-1,-3,1,-2,0.907227,-0.210938,0.0654297,-86.3125,11.0625,-46.9375,-0.388395,-1.48159,3.06628
177,0,14,3,-1,-3,0,-1,-1,0.907227,-0.210938,0.0654297,-86.3125,11.0625,-46.9375,-0.388395,-1.48159,3.06628
201,0,1,0,0,-1,0,-2,-2,0.894531,-0.246582,0.0849609,-91.3125,11,-49.8125,-0.279072,-1.48092,2.92414
201,-1,-7,-3,0,-2,-1,-2,-3,0.894531,-0.246582,0.0849609,-91.3125,11,-49.8125,-0.279072,-1.48092,2.92414
202,0,-3,-1,-2,-1,-2,-3,-2,0.894531,-0.246582,0.0849609,-91.3125,11,-49.8125,-0.279072,-1.48092,2.92414
202,0,5,1,0,-2,0,-2,-1,0.894531,-0.246582,0.0849609,-91.3125,11,-49.8125,-0.279072,-1.48092,2.92414
214,1,-1,-1,-1,-1,-1,-1,-1,0.883789,-0.257324,0.0751953,-96.4375,10.3125,-53.875,-0.164491,-1.47987,2.77456
214,0,4,2,0,-2,-4,-1,0,0.883789,-0.257324,0.0751953,-96.4375,10.3125,-53.875,-0.164491,-1.47987,2.77456
215,-1,-7,-3,-1,-1,0,-2,1,0.883789,-0.257324,0.0751953,-96.4375,10.3125,-53.875,-0.164491,-1.47987,2.77456
215,-1,4,0,0,-1,0,0,-1,0.883789,-0.257324,0.0751953,-96.4375,10.3125,-53.875,-0.164491,-1.47987,2.77456
237,-1,-2,-2,-1,0,-1,-2,-1,0.856445,-0.253906,0.102539,-97.1875,9,-55.6875,-0.0501772,-1.47756,2.62502
237,-1,0,2,1,0,-1,1,-1,0.856445,-0.253906,0.102539,-97.1875,9,-55.6875,-0.0501772,-1.47756,2.62502
237,-2,1,0,-3,-1,-1,-1,-3,0.856445,-0.253906,0.102539,-97.1875,9,-55.6875,-0.0501772,-1.47756,2.62502
237,2,8,0,-2,0,1,0,1,0.856445,-0.253906,0.102539,-97.1875,9,-55.6875,-0.0501772,-1.47756,2.62502
260,-1,-2,-4,0,0,0,-1,-1,0.854004,-0.243164,0.105957,-96.5625,6.375,-57.75,0.065998,-1.4746,2.47369
260,-1,2,0,-2,-3,0,0,-2,0.854004,-0.243164,0.105957,-96.5625,6.375,-57.75,0.065998,-1.4746,2.47369
261,-1,-5,-3,-2,-2,-2,-1,0,0.854004,-0.243164,0.105957,-96.5625,6.375,-57.75,0.065998,-1.4746,2.47369
261,0,11,0,-1,-1,-1,0,-1,0.854004,-0.243164,0.105957,-96.5625,6.375,-57.75,0.065998,-1.4746,2.47369
275,0,0,0,-2,-2,-1,0,-2,0.862793,-0.213867,0.106934,-97.875,3.5625,-60.375,0.185593,-1.47051,2.31831
275,-1,-3,-1,-2,1,-1,1,-1,0.862793,-0.213867,0.106934,-97.875,3.5625,-60.375,0.185593,-1.47051,2.31831
275,0,0,1,-1,-3,0,0,0,0.862793,-0.213867,0.106934,-97.875,3.5625,-60.375,0.185593,-1.47051,2.31831
275,-1,-3,1,-1,1,0,0,0,0.862793,-0.213867,0.106934,-97.875,3.5625,-60.375,0.185593,-1.47051,2.31831
297,1,-2,-1,-1,1,-1,-1,-1,0.848145,-0.203613,0.130859,-100.938,0.0625,-61.25,0.337118,-1.46552,2.13077
297,0,-4,-3,-1,-2,0,-2,1,0.848145,-0.203613,0.130859,-100.938,0.0625,-61.25,0.337118,-1.46552,2.13077
298,0,-3,0,1,-1,1,0,0,0.848145,-0.203613,0.130859,-100.938,0.0625,-61.25,0.337118,-1.46552,2.13077
298,-1,-1,-1,-1,0,-2,-2,0,0.848145,-0.203613,0.130859,-100.938,0.0625,-61.25,0.337118,-1.46552,2.13077
320,0,-5,-1,0,-2,-1,1,-1,0.833496,-0.180664,0.148926,-101.438,-4.25,-60.1875,0.472235,-1.45814,1.95818
320,0,3,-1,0,-1,-1,2,-1,0.833496,-0.180664,0.148926,-101.438,-4.25,-60.1875,0.472235,-1.45814,1.95818
320,-1,-3,-1,-1,-1,-1,-3,-1,0.833496,-0.180664,0.148926,-101.438,-4.25,-60.1875,0.472235,-1.45814,1.95818
320,-2,-2,-1,-1,-1,-3,-1,-1,0.833496,-0.180664,0.148926,-101.438,-4.25,-60.1875,0.472235,-1.45814,1.95818
343,-2,3,0,-3,0,-1,-1,-1,0.857422,-0.155762,0.17627,-98.8125,-9.9375,-60,0.561655,-1.45125,1.83269
343,-1,-2,-1,-1,0,-1,-2,-1,0.857422,-0.155762,0.17627,-98.8125,-9.9375,-60,0.561655,-1.45125,1.83269
343,-2,-3,-3,-1,0,-1,-2,-1,0.857422,-0.155762,0.17627,-98.8125,-9.9375,-60,0.561655,-1.45125,1.83269
343,0,-3,-1,0,-1,-1,0,-2,0.857422,-0.155762,0.17627,-98.8125,-9.9375,-60,0.561655,-1.45125,1.83269
357,-2,0,-1,-3,-2,0,-1,1,0.895508,-0.141602,0.208984,-94.3125,-16,-59.4375,0.645307,-1.44487,1.71498
357,0,-1,1,-2,1,0,0,-1,0.895508,-0.141602,0.208984,-94.3125,-16,-59.4375,0.645307,-1.44487,1.71498
358,0,-3,-1,-1,-1,-2,-1,1,0.895508,-0.141602,0.208984,-94.3125,-16,-59.4375,0.645307,-1.44487,1.71498
358,-1,1,-3,-1,0,-1,1,-1,0.895508,-0.141602,0.208984,-94.3125,-16,-59.4375,0.645307,-1.44487,1.71498
380,0,-1,-1,0,-2,-1,-1,0,0.945312,-0.120605,0.188965,-92.6875,-21.5,-58.125,0.730131,-1.43923,1.59652
380,0,-2,0,-2,-3,1,-1,-1,0.945312,-0.120605,0.188965,-92.6875,-21.5,-58.125,0.730131,-1.43923,1.59652
381,-1,-1,-1,-3,-2,-2,-1,-2,0.945312,-0.120605,0.188965,-92.6875,-21.5,-58.125,0.730131,-1.43923,1.59652
381,-1,-1,-3,-2,-1,0,-1,0,0.945312,-0.120605,0.188965,-92.6875,-21.5,-58.125,0.730131,-1.43923,1.59652
396,-1,-2,-1,2,-1,-2,-2,-1,0.951172,-0.0595703,0.160156,-96.625,-24,-53.625,0.809471,-1.43338,1.48155
396,-1,-1,-1,-1,1,-1,0,-1,0.951172,-0.0595703,0.160156,-96.625,-24,-53.625,0.809471,-1.43338,1.48155
397,-1,-1,0,-1,2,-1,0,-3,0.951172,-0.0595703,0.160156,-96.625,-24,-53.625,0.809471,-1.43338,1.48155
397,0,-4,-1,-1,-1,-2,-1,-2,0.951172,-0.0595703,0.160156,-96.625,-24,-53.625,0.809471,-1.43338,1.48155
417,-1,2,-1,0,-2,-1,-1,-2,0.881836,0.0161133,0.142578,-97.3125,-23.625,-44.5625,0.874927,-1.42792,1.38126
417,-2,-1,-1,0,-2,-1,-1,-1,0.881836,0.0161133,0.142578,-97.3125,-23.625,-44.5625,0.874927,-1.42792,1.38126
418,-2,-2,-1,-1,0,-1,1,-2,0.881836,0.0161133,0.142578,-97.3125,-23.625,-44.5625,0.874927,-1.42792,1.38126
418,-1,-1,1,0,-2,-2,0,0,0.881836,0.0161133,0.142578,-97.3125,-23.625,-44.5625,0.874927,-1.42792,1.38126
440,-1,-1,0,-1,1,0,0,0,0.826172,0.0698242,0.147949,-97.375,-23.6875,-38.5,0.929641,-1.4216,1.29101
440,-2,0,2,-1,-3,0,-1,0,0.826172,0.0698242,0.147949,-97.375,-23.6875,-38.5,0.929641,-1.4216,1.29101
440,0,-2,-8,0,-2,-1,-1,-2,0.826172,0.0698242,0.147949,-97.375,-23.6875,-38.5,0.929641,-1.4216,1.29101
440,1,1,5,-1,2,-1,-3,-1,0.826172,0.0698242,0.147949,-97.375,-23.6875,-38.5,0.929641,-1.4216,1.29101
462,-1,-3,-9,-1,-2,-1,-1,0,0.823242,0.0976562,0.155273,-99.3125,-23.75,-34,0.971714,-1.41558,1.21284
462,-2,-2,-2,-2,0,-2,-2,0,0.823242,0.0976562,0.155273,-99.3125,-23.75,-34,0.971714,-1.41558,1.21284
463,0,-2,1,1,-1,0,-1,-1,0.823242,0.0976562,0.155273,-99.3125,-23.75,-34,0.971714,-1.41558,1.21284
463,-1,2,2,-1,-2,-1,-1,0,0.823242,0.0976562,0.155273,-99.3125,-23.75,-34,0.971714,-1.41558,1.21284
477,-2,1,4,0,-2,-1,-1,-1,0.826172,0.0932617,0.179199,-96.3125,-23.1875,-30.1875,1.00202,-1.4103,1.14805
477,0,-2,-3,0,0,0,-1,-1,0.826172,0.0932617,0.179199,-96.3125,-23.1875,-30.1875,1.00202,-1.4103,1.14805
477,0,-2,-1,-3,-2,-1,0,2,0.826172,0.0932617,0.179199,-96.3125,-23.1875,-30.1875,1.00202,-1.4103,1.14805
477,-2,-4,-2,-2,1,-1,0,-1,0.826172,0.0932617,0.179199,-96.3125,-23.1875,-30.1875,1.00202,-1.4103,1.14805
499,-1,-1,3,-2,0,-2,1,-3,0.84668,0.0791016,0.20459,-85.125,-22.8125,-27.625,1.02474,-1.40585,1.09504
499,-1,0,-3,-1,-1,-2,-1,-2,0.84668,0.0791016,0.20459,-85.125,-22.8125,-27.625,1.02474,-1.40585,1.09504
500,-1,-1,1,-3,-3,1,-1,-1,0.84668,0.0791016,0.20459,-85.125,-22.8125,-27.625,1.02474,-1.40585,1.09504
500,1,-2,-2,-1,-1,0,-1,-1,0.84668,0.0791016,0.20459,-85.125,-22.8125,-27.625,1.02474,-1.40585,1.09504
514,1,-1,0,-1,0,-2,-2,1,0.927734,0.104492,0.22168,-73,-23.9375,-28.4375,1.05064,-1.39996,1.0415
514,-3,0,1,-1,0,-1,-1,-1,0.927734,0.104492,0.22168,-73,-23.9375,-28.4375,1.05064,-1.39996,1.0415
522,-1,-1,-2,0,0,-1,-2,1,0.927734,0.104492,0.22168,-73,-23.9375,-28.4375,1.05064,-1.39996,1.0415
522,-2,-1,-1,-1,0,0,-2,-1,0.927734,0.104492,0.22168,-73,-23.9375,-28.4375,1.05064,-1.39996,1.0415
537,-1,-2,-3,-1,-2,0,-1,-1,1.021,0.145508,0.251465,-66.75,-25.6875,-27.625,1.07795,-1.39469,0.990459
537,0,0,-3,-1,-3,1,-2,0,1.021,0.145508,0.251465,-66.75,-25.6875,-27.625,1.07795,-1.39469,0.990459
537,-2,-1,1,0,-2,-1,0,-1,1.021,0.145508,0.251465,-66.75,-25.6875,-27.625,1.07795,-1.39469,0.990459
537,-2,0,-2,0,-2,0,0,-3,1.021,0.145508,0.251465,-66.75,-25.6875,-27.625,1.07795,-1.39469,0.990459
560,0,0,0,-1,-1,-1,-1,-2,1.09326,0.164062,0.263672,-67.5625,-27.5,-24.5625,1.10147,-1.38968,0.941575
560,-2,-2,-1,-1,-1,0,0,-1,1.09326,0.164062,0.263672,-67.5625,-27.5,-24.5625,1.10147,-1.38968,0.941575
561,2,-1,-1,0,-1,-2,-1,0,1.09326,0.164062,0.263672,-67.5625,-27.5,-24.5625,1.10147,-1.38968,0.941575
561,0,-1,-1,-2,-2,-1,-1,-1,1.09326,0.164062,0.263672,-67.5625,-27.5,-24.5625,1.10147,-1.38968,0.941575
574,-1,-1,-1,0,-2,-1,-1,-2,1.1416,0.175781,0.275391,-74.3125,-29.1875,-21.4375,1.11932,-1.38564,0.896101
574,0,-1,-2,-1,0,-1,-1,-1,1.1416,0.175781,0.275391,-74.3125,-29.1875,-21.4375,1.11932,-1.38564,0.896101
582,0,-3,-1,0,-1,-2,0,-2,1.1416,0.175781,0.275391,-74.3125,-29.1875,-21.4375,1.11932,-1.38564,0.896101
582,-1,-1,-1,0,-1,-3,-2,0,1.1416,0.175781,0.275391,-74.3125,-29.1875,-21.4375,1.11932,-1.38564,0.896101
597,0,-1,0,0,-1,-1,-1,0,1.14111,0.182129,0.288086,-80.5625,-30.625,-16.375,1.1312,-1.38342,0.854906
597,-2,0,-1,-2,0,-1,-1,-1,1.14111,0.182129,0.288086,-80.5625,-30.625,-16.375,1.1312,-1.38342,0.854906
598,1,-1,0,-2,0,0,0,0,1.14111,0.182129,0.288086,-80.5625,-30.625,-16.375,1.1312,-1.38342,0.854906
598,1,0,0,-1,-1,-2,0,-1,1.14111,0.182129,0.288086,-80.5625,-30.625,-16.375,1.1312,-1.38342,0.854906
620,1,-3,-2,-1,-1,-1,0,-1,1.0708,0.186035,0.298828,-82.125,-31.9375,-10.25,1.13835,-1.38267,0.817639
620,0,-1,-1,-2,2,0,-1,-1,1.0708,0.186035,0.298828,-82.125,-31.9375,-10.25,1.13835,-1.38267,0.817639
621,-3,0,0,-1,-2,-1,-1,-2,1.0708,0.186035,0.298828,-82.125,-31.9375,-10.25,1.13835,-1.38267,0.817639
621,-2,-1,-2,-1,-1,-3,0,0,1.0708,0.186035,0.298828,-82.125,-31.9375,-10.25,1.13835,-1.38267,0.817639
634,-2,-1,-3,-2,-1,-1,0,0,0.981934,0.191406,0.287109,-76.9375,-34,-5.375,1.14832,-1.38303,0.778969
634,1,-1,0,0,-1,-1,0,0,0.981934,0.191406,0.287109,-76.9375,-34,-5.375,1.14832,-1.38303,0.778969
642,-2,-2,0,-2,1,-1,-1,0,0.981934,0.191406,0.287109,-76.9375,-34,-5.375,1.14832,-1.38303,0.778969
642,-1,-1,-1,-2,-2,-1,-2,-1,0.981934,0.191406,0.287109,-76.9375,-34,-5.375,1.14832,-1.38303,0.778969
657,-2,-1,0,0,-1,0,1,-1,0.910156,0.20752,0.277832,-69.625,-36.375,-3.5,1.16578,-1.38408,0.736132
657,0,-2,-1,-2,-3,-2,-2,-1,0.910156,0.20752,0.277832,-69.625,-36.375,-3.5,1.16578,-1.38408,0.736132
658,-1,0,-3,0,0,0,-2,-1,0.910156,0.20752,0.277832,-69.625,-36.375,-3.5,1.16578,-1.38408,0.736132
658,0,0,-2,-1,-4,0,-1,0,0.910156,0.20752,0.277832,-69.625,-36.375,-3.5,1.16578,-1.38408,0.736132
679,-1,-1,-1,-1,-1,-1,0,-1,0.833008,0.197266,0.273438,-63.625,-37.9375,-1.875,1.18592,-1.38517,0.691795
679,-1,-1,-1,-2,-2,-2,-1,-1,0.833008,0.197266,0.273438,-63.625,-37.9375,-1.875,1.18592,-1.38517,0.691795
680,0,1,-3,-1,-3,-2,0,-1,0.833008,0.197266,0.273438,-63.625,-37.9375,-1.875,1.18592,-1.38517,0.691795
680,-3,-3,-2,0,0,0,-1,-1,0.833008,0.197266,0.273438,-63.625,-37.9375,-1.875,1.18592,-1.38517,0.691795
704,-1,-1,-1,-1,-1,-2,-2,-2,0.785156,0.18457,0.265625,-54.5625,-38.375,-0.375,1.20997,-1.38714,0.647615
704,-1,0,-1,0,-2,-1,-1,1,0.785156,0.18457,0.265625,-54.5625,-38.375,-0.375,1.20997,-1.38714,0.647615
718,-2,-3,0,0,1,-1,-1,-2,0.785156,0.18457,0.265625,-54.5625,-38.375,-0.375,1.20997,-1.38714,0.647615
718,1,0,-1,0,-2,-2,-1,-2,0.785156,0.18457,0.265625,-54.5625,-38.375,-0.375,1.20997,-1.38714,0.647615
719,-1,2,-1,-2,-2,-2,-2,-1,0.766113,0.17041,0.268066,-42.9375,-39.1875,-0.375,1.23809,-1.38855,0.602346
719,-2,-1,-1,0,1,0,-2,-2,0.766113,0.17041,0.268066,-42.9375,-39.1875,-0.375,1.23809,-1.38855,0.602346
720,-1,-1,-1,-1,-2,0,1,-1,0.766113,0.17041,0.268066,-42.9375,-39.1875,-0.375,1.23809,-1.38855,0.602346
720,-1,-1,0,0,-1,0,0,-2,0.766113,0.17041,0.268066,-42.9375,-39.1875,-0.375,1.23809,-1.38855,0.602346
739,-2,-3,-1,-1,-2,-2,-2,-1,0.763184,0.13623,0.282227,-30.9375,-40.4375,1.6875,1.26898,-1.39182,0.559214
739,0,0,-1,-2,-3,-1,-1,0,0.763184,0.13623,0.282227,-30.9375,-40.4375,1.6875,1.26898,-1.39182,0.559214
740,-2,0,1,-3,-4,-1,-1,-1,0.763184,0.13623,0.282227,-30.9375,-40.4375,1.6875,1.26898,-1.39182,0.559214
740,-3,-1,-2,0,1,-1,0,-2,0.763184,0.13623,0.282227,-30.9375,-40.4375,1.6875,1.26898,-1.39182,0.559214
753,-1,0,0,0,-2,-1,1,0,0.792969,0.124023,0.267578,-14.9375,-42,4.0625,1.30909,-1.39617,0.512639
753,-1,-1,-2,-1,0,0,-1,-3,0.792969,0.124023,0.267578,-14.9375,-42,4.0625,1.30909,-1.39617,0.512639
762,0,-1,-1,-2,-1,-3,-2,0,0.792969,0.124023,0.267578,-14.9375,-42,4.0625,1.30909,-1.39617,0.512639
762,0,-1,-1,-1,-1,-1,0,0,0.792969,0.124023,0.267578,-14.9375,-42,4.0625,1.30909,-1.39617,0.512639
777,-2,-2,-1,0,0,-1,-2,-1,0.871582,0.14209,0.243164,-2,-42.5,4.9375,1.35876,-1.39973,0.459929
777,-2,0,-2,0,-1,-1,0,-1,0.871582,0.14209,0.243164,-2,-42.5,4.9375,1.35876,-1.39973,0.459929
778,0,-1,0,0,0,-2,-1,-1,0.871582,0.14209,0.243164,-2,-42.5,4.9375,1.35876,-1.39973,0.459929
778,-1,-2,-1,0,-1,-1,0,0,0.871582,0.14209,0.243164,-2,-42.5,4.9375,1.35876,-1.39973,0.459929
799,-1,-1,-1,-3,-1,0,0,0,0.935059,0.163574,0.222168,3.9375,-40.375,8,1.41077,-1.40433,0.408279
799,0,0,-2,0,-1,0,1,-1,0.935059,0.163574,0.222168,3.9375,-40.375,8,1.41077,-1.40433,0.408279
800,-1,-2,1,0,0,1,-1,-1,0.935059,0.163574,0.222168,3.9375,-40.375,8,1.41077,-1.40433,0.408279
800,-2,0,-2,-2,0,-1,-1,0,0.935059,0.163574,0.222168,3.9375,-40.375,8,1.41077,-1.40433,0.408279
814,0,0,0,1,-2,0,-4,0,0.975098,0.170898,0.187012,8.5625,-37.25,11.125,1.46305,-1.40904,0.357631
814,0,-1,-2,-2,-3,-1,-2,-2,0.975098,0.170898,0.187012,8.5625,-37.25,11.125,1.46305,-1.40904,0.357631
822,-2,-1,-2,0,-2,-1,0,-1,0.975098,0.170898,0.187012,8.5625,-37.25,11.125,1.46305,-1.40904,0.357631
822,1,0,-1,2,0,-1,-2,-2,0.975098,0.170898,0.187012,8.5625,-37.25,11.125,1.46305,-1.40904,0.357631
836,0,-1,-2,-1,-2,-1,1,-3,1.00146,0.166504,0.152344,15.5,-32.5,14.375,1.51457,-1.41436,0.310275
836,-1,-1,-1,-1,0,-1,-1,-2,1.00146,0.166504,0.152344,15.5,-32.5,14.375,1.51457,-1.41436,0.310275
837,0,1,0,-1,-1,-1,-2,0,1.00146,0.166504,0.152344,15.5,-32.5,14.375,1.51457,-1.41436,0.310275
837,-1,-1,-2,-2,-1,0,-1,0,1.00146,0.166504,0.152344,15.5,-32.5,14.375,1.51457,-1.41436,0.310275
859,0,-3,-1,-1,0,-1,-4,0,1.01709,0.165527,0.126953,23.3125,-27.1875,16.75,1.56292,-1.42016,0.269116
859,1,-1,-3,0,-1,-1,0,0,1.01709,0.165527,0.126953,23.3125,-27.1875,16.75,1.56292,-1.42016,0.269116
866,-1,-1,-1,-1,0,-2,0,-2,1.01709,0.165527,0.126953,23.3125,-27.1875,16.75,1.56292,-1.42016,0.269116
866,1,1,0,-2,-3,-1,0,0,1.01709,0.165527,0.126953,23.3125,-27.1875,16.75,1.56292,-1.42016,0.269116
874,0,1,-2,0,0,1,-1,-2,1.0332,0.177246,0.0849609,30,-20.0625,18.6875,1.60514,-1.42607,0.23698
874,-3,-1,-1,-1,-2,-1,-1,0,1.0332,0.177246,0.0849609,30,-20.0625,18.6875,1.60514,-1.42607,0.23698
882,0,1,-2,0,0,0,-2,-1,1.0332,0.177246,0.0849609,30,-20.0625,18.6875,1.60514,-1.42607,0.23698
882,-2,-2,0,-2,0,-1,-1,1,1.0332,0.177246,0.0849609,30,-20.0625,18.6875,1.60514,-1.42607,0.23698
897,-2,0,-1,0,-2,-3,-1,-1,1.02686,0.185059,0.050293,36.125,-12.8125,20.1875,1.64085,-1.43176,0.213222
897,-3,-1,0,-1,-1,0,-1,-2,1.02686,0.185059,0.050293,36.125,-12.8125,20.1875,1.64085,-1.43176,0.213222
912,-1,-1,-2,-1,-2,0,-1,0,1.02686,0.185059,0.050293,36.125,-12.8125,20.1875,1.64085,-1.43176,0.213222
912,-1,0,-2,-1,-3,0,0,-1,1.02686,0.185059,0.050293,36.125,-12.8125,20.1875,1.64085,-1.43176,0.213222
919,-1,-2,-3,-3,1,0,0,-1,1.03906,0.190918,0.00292969,38.1875,-4.375,20.625,1.66484,-1.43705,0.201664
919,-2,-1,-1,0,-1,1,-1,-1,1.03906,0.190918,0.00292969,38.1875,-4.375,20.625,1.66484,-1.43705,0.201664
920,0,0,0,0,-2,-1,0,0,1.03906,0.190918,0.00292969,38.1875,-4.375,20.625,1.66484,-1.43705,0.201664
920,-1,-2,-2,-2,-3,-1,1,-1,1.03906,0.190918,0.00292969,38.1875,-4.375,20.625,1.66484,-1.43705,0.201664
943,0,-1,0,-1,-1,-2,0,-1,1.01562,0.201172,-0.00927734,35.375,4,20.9375,1.67078,-1.44344,0.208933
943,0,-2,0,0,-3,-2,-1,0,1.01562,0.201172,-0.00927734,35.375,4,20.9375,1.67078,-1.44344,0.208933
943,-3,-3,0,-2,-2,0,-1,2,1.01562,0.201172,-0.00927734,35.375,4,20.9375,1.67078,-1.44344,0.208933
943,-2,-1,0,0,0,0,-2,-2,1.01562,0.201172,-0.00927734,35.375,4,20.9375,1.67078,-1.44344,0.208933
957,-1,1,-2,-1,-2,0,0,-1,0.994629,0.202637,-0.0288086,30.1875,11.8125,20.875,1.65558,-1.4485,0.234315
957,0,-2,-2,-1,0,-2,0,-1,0.994629,0.202637,-0.0288086,30.1875,11.8125,20.875,1.65558,-1.4485,0.234315
957,-1,0,-1,0,0,-3,-1,-2,0.994629,0.202637,-0.0288086,30.1875,11.8125,20.875,1.65558,-1.4485,0.234315
957,-1,-1,0,0,-1,-1,-1,-1,0.994629,0.202637,-0.0288086,30.1875,11.8125,20.875,1.65558,-1.4485,0.234315
987,-1,-2,-1,-1,-1,0,0,-2,0.970215,0.196777,-0.03125,24.0625,18.1875,19.875,1.61956,-1.45441,0.279788
987,0,-1,0,-1,0,0,0,0,0.970215,0.196777,-0.03125,24.0625,18.1875,19.875,1.61956,-1.45441,0.279788
988,0,-1,-1,-1,-1,-2,-1,0,0.970215,0.196777,-0.03125,24.0625,18.1875,19.875,1.61956,-1.45441,0.279788
988,-1,-2,-4,-1,0,0,-1,0,0.970215,0.196777,-0.03125,24.0625,18.1875,19.875,1.61956,-1.45441,0.279788
1003,-1,-2,-1,-1,-2,-1,-2,-3,0.973633,0.174805,-0.034668,18,23.0625,17.25,1.56186,-1.45796,0.342905
1003,0,-2,-1,-2,0,-1,-1,0,0.973633,0.174805,-0.034668,18,23.0625,17.25,1.56186,-1.45796,0.342905
1004,-1,0,-1,-3,-2,0,2,0,0.973633,0.174805,-0.034668,18,23.0625,17.25,1.56186,-1.45796,0.342905
1004,-1,1,0,0,-1,1,-1,0,0.973633,0.174805,-0.034668,18,23.0625,17.25,1.56186,-1.45796,0.342905
1017,-2,0,-1,-3,-3,-1,1,0,0.972656,0.165527,-0.0258789,12.0625,27.0625,14.5625,1.4877,-1.46199,0.422984
1017,-1,0,-1,-3,-1,-2,-1,-1,0.972656,0.165527,-0.0258789,12.0625,27.0625,14.5625,1.4877,-1.46199,0.422984
1017,-3,-1,-1,-1,1,-1,0,-2,0.972656,0.165527,-0.0258789,12.0625,27.0625,14.5625,1.4877,-1.46199,0.422984
1017,1,-1,-2,-2,-1,1,21,0,0.972656,0.165527,-0.0258789,12.0625,27.0625,14.5625,1.4877,-1.46199,0.422984
1055,2,-1,1,-1,0,-4,-19,2,0.999023,0.164551,-0.0336914,8.75,30.0625,12,1.40205,-1.46349,0.511994
1055,0,0,-3,-2,0,-1,-1,-1,0.999023,0.164551,-0.0336914,8.75,30.0625,12,1.40205,-1.46349,0.511994
1055,0,-1,-1,-2,-2,1,-4,-1,0.999023,0.164551,-0.0336914,8.75,30.0625,12,1.40205,-1.46349,0.511994
1055,-1,0,-1,0,0,-1,2,-2,0.999023,0.164551,-0.0336914,8.75,30.0625,12,1.40205,-1.46349,0.511994
1063,-1,-2,-2,1,0,-1,4,-2,1.00781,0.153809,-0.0166016,2.25,32.125,8.9375,1.30695,-1.4634,0.608991
1063,-1,-1,1,1,0,0,-1,-1,1.00781,0.153809,-0.0166016,2.25,32.125,8.9375,1.30695,-1.4634,0.608991
1063,1,-2,-3,-1,0,-2,-1,-3,1.00781,0.153809,-0.0166016,2.25,32.125,8.9375,1.30695,-1.4634,0.608991
1063,-1,-2,0,-1,-2,-1,-7,-2,1.00781,0.153809,-0.0166016,2.25,32.125,8.9375,1.30695,-1.4634,0.608991
1077,-1,-2,0,-1,-2,-1,3,0,1.01367,0.12207,0.00585938,-4.125,31.8125,7.0625,1.20842,-1.46161,0.705949
1077,-1,-1,0,-2,-2,0,-4,0,1.01367,0.12207,0.00585938,-4.125,31.8125,7.0625,1.20842,-1.46161,0.705949
1085,-1,-3,-1,0,0,0,2,-2,1.01367,0.12207,0.00585938,-4.125,31.8125,7.0625,1.20842,-1.46161,0.705949
1085,-1,-1,-1,-1,-1,-3,-7,-3,1.01367,0.12207,0.00585938,-4.125,31.8125,7.0625,1.20842,-1.46161,0.705949
1099,0,0,0,-1,-1,0,1,-1,1.02686,0.0966797,-0.00976562,-8.4375,31.4375,3.8125,1.12112,-1.45903,0.790516
1099,0,0,-1,-1,-1,-2,3,-1,1.02686,0.0966797,-0.00976562,-8.4375,31.4375,3.8125,1.12112,-1.45903,0.790516
1131,0,0,0,-2,-3,-1,-1,-1,1.02686,0.0966797,-0.00976562,-8.4375,31.4375,3.8125,1.12112,-1.45903,0.790516
1131,0,-1,-1,0,-2,0,-3,0,1.02686,0.0966797,-0.00976562,-8.4375,31.4375,3.8125,1.12112,-1.45903,0.790516
1133,-1,-1,-2,-1,2,0,1,0,0.985352,0.090332,-0.00488281,-13,30.25,0.9375,1.04397,-1.45556,0.864232
1133,0,-2,1,-1,-1,-1,0,0,0.985352,0.090332,-0.00488281,-13,30.25,0.9375,1.04397,-1.45556,0.864232
1134,-1,-2,0,0,0,-2,0,-1,0.985352,0.090332,-0.00488281,-13,30.25,0.9375,1.04397,-1.45556,0.864232
1134,-1,-2,-1,-4,-1,-2,-7,0,0.985352,0.090332,-0.00488281,-13,30.25,0.9375,1.04397,-1.45556,0.864232
1145,-1,1,-1,0,0,1,3,-1,0.916504,0.0874023,0.00634766,-13.125,28.9375,-1.4375,0.978181,-1.45057,0.926154
1145,-2,-2,-2,-1,-3,0,-1,-1,0.916504,0.0874023,0.00634766,-13.125,28.9375,-1.4375,0.978181,-1.45057,0.926154
1146,-4,-2,-3,0,0,-2,-1,-2,0.916504,0.0874023,0.00634766,-13.125,28.9375,-1.4375,0.978181,-1.45057,0.926154
1146,-1,-1,-2,0,0,-1,1,-1,0.916504,0.0874023,0.00634766,-13.125,28.9375,-1.4375,0.978181,-1.45057,0.926154
1158,0,0,0,0,0,0,0,-2,0.88623,0.0776367,0.0107422,-8.5625,28.9375,-2.9375,0.920521,-1.44488,0.981248
1158,-1,-1,-2,-1,-1,-2,-1,0,0.88623,0.0776367,0.0107422,-8.5625,28.9375,-2.9375,0.920521,-1.44488,0.981248
1175,0,1,-1,-2,-3,-1,-1,0,0.893066,0.0722656,-0.00244141,-8.5625,29.8125,-3.75,0.87074,-1.43917,1.02899
1175,-2,0,-2,-1,1,0,-2,-3,0.893066,0.0722656,-0.00244141,-8.5625,29.8125,-3.75,0.87074,-1.43917,1.02899
1181,-1,-2,-1,0,-1,-1,-1,0,0.893066,0.0722656,-0.00244141,-8.5625,29.8125,-3.75,0.87074,-1.43917,1.02899
1181,-1,-2,-1,0,0,-2,-2,-1,0.893066,0.0722656,-0.00244141,-8.5625,29.8125,-3.75,0.87074,-1.43917,1.02899
1196,-1,0,0,-1,-1,-1,-1,1,0.881348,0.102539,0.0185547,-14.6875,28.5,-5.4375,0.829861,-1.43173,1.06501
1196,-1,-1,1,-2,-1,1,-3,-1,0.881348,0.102539,0.0185547,-14.6875,28.5,-5.4375,0.829861,-1.43173,1.06501
1205,-2,-1,0,-1,-1,-2,-2,-1,0.881348,0.102539,0.0185547,-14.6875,28.5,-5.4375,0.829861,-1.43173,1.06501
1205,0,-3,0,-2,0,0,1,0,0.881348,0.102539,0.0185547,-14.6875,28.5,-5.4375,0.829861,-1.43173,1.06501
1206,-2,-1,-2,0,0,0,-2,-2,0.882812,0.0849609,0.0571289,-19.3125,25.625,-8.6875,0.79563,-1.42468,1.0938
1206,-1,-2,-2,-1,0,-1,-2,-1,0.882812,0.0849609,0.0571289,-19.3125,25.625,-8.6875,0.79563,-1.42468,1.0938
1219,0,0,-2,-2,-2,0,1,-2,0.882812,0.0849609,0.0571289,-19.3125,25.625,-8.6875,0.79563,-1.42468,1.0938
1219,-2,-1,0,-2,-2,-1,-1,-1,0.882812,0.0849609,0.0571289,-19.3125,25.625,-8.6875,0.79563,-1.42468,1.0938
1227,-1,-2,-1,-2,-1,-1,-2,0,0.902344,0.0209961,0.0976562,-17.4375,21.5,-9.5,0.761458,-1.41808,1.1217
1227,-1,-1,0,-1,-1,-3,-2,1,0.902344,0.0209961,0.0976562,-17.4375,21.5,-9.5,0.761458,-1.41808,1.1217
1241,-1,0,-2,-2,-2,1,-1,0,0.902344,0.0209961,0.0976562,-17.4375,21.5,-9.5,0.761458,-1.41808,1.1217
1241,-2,0,-2,-1,1,0,0,-2,0.902344,0.0209961,0.0976562,-17.4375,21.5,-9.5,0.761458,-1.41808,1.1217
1249,0,0,0,0,-1,-1,0,0,0.99707,0.00878906,0.0957031,-14.5,19.125,-11.5,0.736779,-1.41219,1.14086
1249,0,-1,-2,0,-1,-2,-2,-2,0.99707,0.00878906,0.0957031,-14.5,19.125,-11.5,0.736779,-1.41219,1.14086
1265,1,1,1,-2,-1,-3,0,0,0.99707,0.00878906,0.0957031,-14.5,19.125,-11.5,0.736779,-1.41219,1.14086
1265,0,1,-1,1,-2,-2,-1,0,0.99707,0.00878906,0.0957031,-14.5,19.125,-11.5,0.736779,-1.41219,1.14086
1266,-3,-4,0,0,-2,0,0,0,1.01953,0.0717773,0.0849609,-17.5,19.5,-12.6875,0.72291,-1.40581,1.14911
1266,-1,-1,-1,-1,-1,0,0,-1,1.01953,0.0717773,0.0849609,-17.5,19.5,-12.6875,0.72291,-1.40581,1.14911
1278,0,-1,0,-1,0,0,-1,-1,1.01953,0.0717773,0.0849609,-17.5,19.5,-12.6875,0.72291,-1.40581,1.14911
1278,0,-1,0,0,0,-1,-1,1,1.01953,0.0717773,0.0849609,-17.5,19.5,-12.6875,0.72291,-1.40581,1.14911
1287,-1,0,0,0,-2,0,-2,-1,0.960449,0.0625,0.134766,-24.625,16.6875,-11,0.702663,-1.3991,1.16032
1287,-1,0,-1,-2,-1,0,-1,0,0.960449,0.0625,0.134766,-24.625,16.6875,-11,0.702663,-1.3991,1.16032
1302,-2,-2,-1,-1,-1,0,-1,0,0.960449,0.0625,0.134766,-24.625,16.6875,-11,0.702663,-1.3991,1.16032
1302,-2,0,-2,-2,-1,-1,-1,-1,0.960449,0.0625,0.134766,-24.625,16.6875,-11,0.702663,-1.3991,1.16032
1310,2,-1,-1,-3,-1,-1,-2,-1,0.896973,0.0214844,0.175781,-21.25,12.25,-9.4375,0.680868,-1.39438,1.17529
1310,-1,-1,0,-1,0,0,-1,-2,0.896973,0.0214844,0.175781,-21.25,12.25,-9.4375,0.680868,-1.39438,1.17529
1332,-1,0,0,-2,-1,0,-2,-1,0.896973,0.0214844,0.175781,-21.25,12.25,-9.4375,0.680868,-1.39438,1.17529
1332,-1,0,1,-1,-1,-1,0,0,0.896973,0.0214844,0.175781,-21.25,12.25,-9.4375,0.680868,-1.39438,1.17529
1335,-1,-2,-1,-2,0,-2,-1,0,0.907715,-0.0175781,0.149902,-9,9.75,-10.1875,0.666556,-1.39092,1.18609
1335,0,0,0,-1,0,-2,-2,-2,0.907715,-0.0175781,0.149902,-9,9.75,-10.1875,0.666556,-1.39092,1.18609
1339,-1,0,0,0,-3,-3,0,-1,0.907715,-0.0175781,0.149902,-9,9.75,-10.1875,0.666556,-1.39092,1.18609
1339,-1,-1,-1,0,-1,-1,0,-2,0.907715,-0.0175781,0.149902,-9,9.75,-10.1875,0.666556,-1.39092,1.18609
1347,-1,1,0,1,-1,0,-1,0,0.895996,0.0175781,0.147461,-0.6875,10.25,-10.875,0.659998,-1.38647,1.19177
1347,0,-1,1,-1,0,-2,0,0,0.895996,0.0175781,0.147461,-0.6875,10.25,-10.875,0.659998,-1.38647,1.19177
1362,-1,-1,0,0,-1,0,0,1,0.895996,0.0175781,0.147461,-0.6875,10.25,-10.875,0.659998,-1.38647,1.19177
1362,0,-2,0,-1,-1,-1,-2,-1,0.895996,0.0175781,0.147461,-0.6875,10.25,-10.875,0.659998,-1.38647,1.19177
1369,-1,0,-1,-2,0,0,-1,0,0.85791,0.0214844,0.172363,2.5625,8.375,-9.6875,0.6544,-1.38257,1.19826
1369,0,0,-1,-1,-1,0,-1,0,0.85791,0.0214844,0.172363,2.5625,8.375,-9.6875,0.6544,-1.38257,1.19826
1385,-3,-2,-2,-1,0,-1,0,0,0.85791,0.0214844,0.172363,2.5625,8.375,-9.6875,0.6544,-1.38257,1.19826
1385,0,-3,1,-2,-2,0,0,-1,0.85791,0.0214844,0.172363,2.5625,8.375,-9.6875,0.6544,-1.38257,1.19826
1387,-1,-1,-1,0,0,1,0,-1,0.886719,-0.00537109,0.195801,5.875,5.125,-9.625,0.648115,-1.37935,1.20578
1387,-2,-1,-1,0,-1,-1,-2,-1,0.886719,-0.00537109,0.195801,5.875,5.125,-9.625,0.648115,-1.37935,1.20578
1408,-1,-1,-1,-3,-2,0,1,-1,0.886719,-0.00537109,0.195801,5.875,5.125,-9.625,0.648115,-1.37935,1.20578
1408,-1,0,-1,-1,-1,-2,-3,0,0.886719,-0.00537109,0.195801,5.875,5.125,-9.625,0.648115,-1.37935,1.20578
1409,-1,0,-1,-1,-2,0,0,-1,0.958008,-0.0258789,0.218262,10.0625,1.0625,-10.8125,0.64662,-1.37765,1.21064
1409,0,-1,-2,0,-1,-1,-2,-1,0.958008,-0.0258789,0.218262,10.0625,1.0625,-10.8125,0.64662,-1.37765,1.21064
1423,-3,0,-2,0,-1,-2,0,0,0.958008,-0.0258789,0.218262,10.0625,1.0625,-10.8125,0.64662,-1.37765,1.21064
1423,0,-1,-4,-2,-1,-1,0,-2,0.958008,-0.0258789,0.218262,10.0625,1.0625,-10.8125,0.64662,-1.37765,1.21064
1424,-1,0,-1,0,-2,0,-1,-2,1.03467,-0.0214844,0.244629,12.25,-3.25,-12.0625,0.650372,-1.37654,1.2103
1424,-2,-1,-1,-1,-2,0,-2,0,1.03467,-0.0214844,0.244629,12.25,-3.25,-12.0625,0.650372,-1.37654,1.2103
1445,1,-2,-2,0,-2,-1,-2,-1,1.03467,-0.0214844,0.244629,12.25,-3.25,-12.0625,0.650372,-1.37654,1.2103
1445,-1,0,-2,0,-1,0,-3,-2,1.03467,-0.0214844,0.244629,12.25,-3.25,-12.0625,0.650372,-1.37654,1.2103
1447,0,-1,0,0,0,-1,-2,-3,1.12939,-0.00195312,0.256348,6.0625,-7.4375,-13.5625,0.658981,-1.37629,1.20305
1447,-2,0,-1,-1,-1,-1,1,-1,1.12939,-0.00195312,0.256348,6.0625,-7.4375,-13.5625,0.658981,-1.37629,1.20305
1467,-1,-1,-1,-2,1,-1,0,0,1.12939,-0.00195312,0.256348,6.0625,-7.4375,-13.5625,0.658981,-1.37629,1.20305
1467,0,-1,0,0,0,-3,0,-2,1.12939,-0.00195312,0.256348,6.0625,-7.4375,-13.5625,0.658981,-1.37629,1.20305
1469,-2,-2,-1,-2,-2,-2,0,-2,1.18066,0.00341797,0.26709,-1.0625,-10.125,-13.0625,0.667187,-1.37651,1.19313
1469,1,-1,-2,1,-2,-2,-1,0,1.18066,0.00341797,0.26709,-1.0625,-10.125,-13.0625,0.667187,-1.37651,1.19313
1482,1,-2,-2,-1,-1,0,-1,-2,1.18066,0.00341797,0.26709,-1.0625,-10.125,-13.0625,0.667187,-1.37651,1.19313
1482,0,0,-2,0,-2,0,-2,-1,1.18066,0.00341797,0.26709,-1.0625,-10.125,-13.0625,0.667187,-1.37651,1.19313
1485,1,-3,-1,-1,-1,-4,-2,0,1.19287,-0.00390625,0.255371,-5.375,-11.625,-12.125,0.674083,-1.37767,1.18324
1485,0,0,0,-1,-2,-2,-2,-1,1.19287,-0.00390625,0.255371,-5.375,-11.625,-12.125,0.674083,-1.37767,1.18324
1505,0,-1,-2,-2,-1,-1,-3,-2,1.19287,-0.00390625,0.255371,-5.375,-11.625,-12.125,0.674083,-1.37767,1.18324
1505,0,-2,-2,-1,-1,1,0,0,1.19287,-0.00390625,0.255371,-5.375,-11.625,-12.125,0.674083,-1.37767,1.18324
1507,0,1,0,-1,-2,-2,-1,0,1.16455,0.0200195,0.220215,-7.6875,-9.8125,-9.8125,0.679773,-1.3794,1.17444
1507,-1,-1,1,0,-2,-1,-1,-1,1.16455,0.0200195,0.220215,-7.6875,-9.8125,-9.8125,0.679773,-1.3794,1.17444
1528,0,-1,0,0,-1,-1,-1,0,1.16455,0.0200195,0.220215,-7.6875,-9.8125,-9.8125,0.679773,-1.3794,1.17444
1528,-3,-2,0,0,-1,1,-1,-1,1.16455,0.0200195,0.220215,-7.6875,-9.8125,-9.8125,0.679773,-1.3794,1.17444
1530,-1,0,0,-1,0,0,-1,-1,1.09619,0.0473633,0.186035,-6.4375,-5.5,-5.3125,0.681262,-1.38091,1.17075
1530,0,-1,-1,0,0,-2,-2,-1,1.09619,0.0473633,0.186035,-6.4375,-5.5,-5.3125,0.681262,-1.38091,1.17075
1544,-1,0,-2,-2,-2,-1,-1,-1,1.09619,0.0473633,0.186035,-6.4375,-5.5,-5.3125,0.681262,-1.38091,1.17075
1544,0,0,-1,0,-1,-1,-2,0,1.09619,0.0473633,0.186035,-6.4375,-5.5,-5.3125,0.681262,-1.38091,1.17075
1545,-1,-2,-1,0,-1,-2,1,-2,1.01465,0.0620117,0.154785,-2.5,-0.0625,0.3125,0.673941,-1.38161,1.17692
1545,-1,-3,-3,-1,0,0,0,0,1.01465,0.0620117,0.154785,-2.5,-0.0625,0.3125,0.673941,-1.38161,1.17692
1565,-1,-1,-1,1,-1,-1,-1,-2,1.01465,0.0620117,0.154785,-2.5,-0.0625,0.3125,0.673941,-1.38161,1.17692
1565,-2,0,0,-2,-1,-2,0,-1,1.01465,0.0620117,0.154785,-2.5,-0.0625,0.3125,0.673941,-1.38161,1.17692
1567,0,-1,-2,-1,-1,0,-1,-1,0.957031,0.0732422,0.135254,3.1875,5.5,4.3125,0.658957,-1.38162,1.19277
1567,-1,0,1,0,-1,-2,-1,-3,0.957031,0.0732422,0.135254,3.1875,5.5,4.3125,0.658957,-1.38162,1.19277
1588,-2,-1,-1,-1,1,-1,0,1,0.957031,0.0732422,0.135254,3.1875,5.5,4.3125,0.658957,-1.38162,1.19277
1588,-1,-2,-1,0,-1,1,-2,-1,0.957031,0.0732422,0.135254,3.1875,5.5,4.3125,0.658957,-1.38162,1.19277
1589,-3,-2,-1,-2,-1,0,-3,0,0.920898,0.0668945,0.134277,8.125,10.8125,5.8125,0.637887,-1.38054,1.21697
1589,-3,1,-2,-2,-1,0,-1,0,0.920898,0.0668945,0.134277,8.125,10.8125,5.8125,0.637887,-1.38054,1.21697
1602,-1,1,-1,0,-1,-1,-1,-2,0.920898,0.0668945,0.134277,8.125,10.8125,5.8125,0.637887,-1.38054,1.21697
1602,0,0,-1,0,-1,-2,-1,-2,0.920898,0.0668945,0.134277,8.125,10.8125,5.8125,0.637887,-1.38054,1.21697
1610,-1,-1,0,1,-1,-1,0,0,0.894043,0.0498047,0.144043,12.6875,15.25,7.125,0.61079,-1.3783,1.24899
1610,-1,-1,-1,-1,-2,-2,-1,0,0.894043,0.0498047,0.144043,12.6875,15.25,7.125,0.61079,-1.3783,1.24899
1633,-1,-1,-3,-2,-1,-1,-1,0,0.894043,0.0498047,0.144043,12.6875,15.25,7.125,0.61079,-1.3783,1.24899
1633,-2,-1,-1,0,0,-1,-1,0,0.894043,0.0498047,0.144043,12.6875,15.25,7.125,0.61079,-1.3783,1.24899
1635,-2,-2,-3,0,-1,-2,-1,-2,0.870605,0.0424805,0.160645,15.25,18.625,8.125,0.57882,-1.37522,1.28718
1635,-1,0,-1,-2,-2,0,-1,-1,0.870605,0.0424805,0.160645,15.25,18.625,8.125,0.57882,-1.37522,1.28718
1648,0,-1,0,0,-2,-3,-1,-1,0.870605,0.0424805,0.160645,15.25,18.625,8.125,0.57882,-1.37522,1.28718
1648,-1,-2,-2,-2,-2,-2,0,1,0.870605,0.0424805,0.160645,15.25,18.625,8.125,0.57882,-1.37522,1.28718
1649,-1,-2,-2,-2,0,1,-3,0,0.863281,0.0234375,0.186035,16.0625,19.875,7.4375,0.544972,-1.37069,1.32692
1649,1,-2,-2,0,-1,-1,1,-1,0.863281,0.0234375,0.186035,16.0625,19.875,7.4375,0.544972,-1.37069,1.32692
1661,-2,0,-2,-3,-1,-1,0,-1,0.863281,0.0234375,0.186035,16.0625,19.875,7.4375,0.544972,-1.37069,1.32692
1661,0,-2,-1,0,-1,-2,0,-1,0.863281,0.0234375,0.186035,16.0625,19.875,7.4375,0.544972,-1.37069,1.32692
1670,0,0,-2,-2,-2,-2,-1,-1,0.870605,0.0166016,0.209473,10.6875,18.875,5.3125,0.514057,-1.36581,1.36187
1670,0,-2,0,-2,0,0,0,0,0.870605,0.0166016,0.209473,10.6875,18.875,5.3125,0.514057,-1.36581,1.36187
1685,-1,-2,-2,-1,-2,-1,-2,-2,0.870605,0.0166016,0.209473,10.6875,18.875,5.3125,0.514057,-1.36581,1.36187
1685,0,0,-1,-1,-1,-1,-1,-1,0.870605,0.0166016,0.209473,10.6875,18.875,5.3125,0.514057,-1.36581,1.36187
1686,1,-1,-1,-1,0,0,-2,-1,0.88623,0.00683594,0.224609,3.25,16.25,2.125,0.487173,-1.36073,1.38993
1686,-1,-3,-2,0,0,-1,-1,-1,0.88623,0.00683594,0.224609,3.25,16.25,2.125,0.487173,-1.36073,1.38993
1708,-1,-1,0,-1,-1,-1,0,-1,0.88623,0.00683594,0.224609,3.25,16.25,2.125,0.487173,-1.36073,1.38993
1708,-3,0,0,0,-1,0,-1,-2,0.88623,0.00683594,0.224609,3.25,16.25,2.125,0.487173,-1.36073,1.38993
1714,0,-1,-1,-1,-1,0,-3,0,0.922363,0.00341797,0.216309,-3.25,14,-1.5,0.466397,-1.35616,1.40932
1714,0,0,-2,1,-1,0,-2,-2,0.922363,0.00341797,0.216309,-3.25,14,-1.5,0.466397,-1.35616,1.40932
1722,-2,-1,-3,-2,-1,0,-1,-1,0.922363,0.00341797,0.216309,-3.25,14,-1.5,0.466397,-1.35616,1.40932
1722,-1,-3,-1,0,-1,-1,-1,0,0.922363,0.00341797,0.216309,-3.25,14,-1.5,0.466397,-1.35616,1.40932
1730,-1,0,-2,-1,-2,-1,-1,-1,0.938965,0.00292969,0.224121,-7.375,12.8125,-2.6875,0.447824,-1.35181,1.42511
1730,-2,-2,0,-1,0,-1,0,0,0.938965,0.00292969,0.224121,-7.375,12.8125,-2.6875,0.447824,-1.35181,1.42511
1746,0,-2,0,0,-2,0,-1,0,0.938965,0.00292969,0.224121,-7.375,12.8125,-2.6875,0.447824,-1.35181,1.42511
1746,0,0,-1,-2,1,-1,0,-2,0.938965,0.00292969,0.224121,-7.375,12.8125,-2.6875,0.447824,-1.35181,1.42511
1747,-1,-2,-1,0,-1,-3,1,0,0.959473,0.00537109,0.211426,-10.6875,11,-3.1875,0.432024,-1.34853,1.43722
1747,0,0,-2,-2,-1,1,-1,0,0.959473,0.00537109,0.211426,-10.6875,11,-3.1875,0.432024,-1.34853,1.43722
1767,1,0,-1,0,-1,-3,-2,-2,0.959473,0.00537109,0.211426,-10.6875,11,-3.1875,0.432024,-1.34853,1.43722
1767,-1,0,-1,0,-1,-1,0,-1,0.959473,0.00537109,0.211426,-10.6875,11,-3.1875,0.432024,-1.34853,1.43722
1774,1,-2,-1,-1,-1,-1,1,-2,0.987305,0.0249023,0.197754,-14.625,9.6875,-3.0625,0.418339,-1.34574,1.44564
1774,-1,-2,-2,0,0,0,-2,-2,0.987305,0.0249023,0.197754,-14.625,9.6875,-3.0625,0.418339,-1.34574,1.44564
1782,-1,0,0,-1,-1,-2,-1,-2,0.987305,0.0249023,0.197754,-14.625,9.6875,-3.0625,0.418339,-1.34574,1.44564
1782,2,-3,-1,-1,0,-1,-2,0,0.987305,0.0249023,0.197754,-14.625,9.6875,-3.0625,0.418339,-1.34574,1.44564
1789,-1,-1,-1,0,1,-2,-1,-2,1.01318,0.034668,0.182617,-14.1875,9.0625,-1.75,0.406115,-1.34369,1.45267
1789,-2,0,-1,-2,-1,-2,-1,0,1.01318,0.034668,0.182617,-14.1875,9.0625,-1.75,0.406115,-1.34369,1.45267
1805,0,-1,-1,-2,0,1,-2,-1,1.01318,0.034668,0.182617,-14.1875,9.0625,-1.75,0.406115,-1.34369,1.45267
1805,-2,1,-1,-1,-2,-2,-1,0,1.01318,0.034668,0.182617,-14.1875,9.0625,-1.75,0.406115,-1.34369,1.45267
1820,-1,0,-1,-2,-3,0,-2,-1,1.01172,0.0488281,0.180664,-14.875,9.75,0.0625,0.392709,-1.34227,1.46164
1820,-1,-2,0,0,-4,-1,0,-1,1.01172,0.0488281,0.180664,-14.875,9.75,0.0625,0.392709,-1.34227,1.46164
1828,-2,-2,-2,0,-1,2,-2,0,1.01172,0.0488281,0.180664,-14.875,9.75,0.0625,0.392709,-1.34227,1.46164
1828,-2,0,-2,-1,2,0,0,-2,1.01172,0.0488281,0.180664,-14.875,9.75,0.0625,0.392709,-1.34227,1.46164
1829,0,-1,0,-1,-1,0,-1,-2,1.00293,0.050293,0.187012,-14.1875,10.6875,3.3125,0.374911,-1.33999,1.47444
1829,0,-2,-1,-1,-1,-1,-1,-2,1.00293,0.050293,0.187012,-14.1875,10.6875,3.3125,0.374911,-1.33999,1.47444
1850,-1,0,0,-1,-1,-2,-2,0,1.00293,0.050293,0.187012,-14.1875,10.6875,3.3125,0.374911,-1.33999,1.47444
1850,0,-1,0,0,-1,-1,-2,-1,1.00293,0.050293,0.187012,-14.1875,10.6875,3.3125,0.374911,-1.33999,1.47444
1852,-2,-1,-2,0,1,-2,1,0,0.988281,0.0400391,0.184082,-10.8125,11.5,6,0.353699,-1.33826,1.49241
1852,0,-2,1,-1,1,-1,-1,0,0.988281,0.0400391,0.184082,-10.8125,11.5,6,0.353699,-1.33826,1.49241
1865,1,-2,-1,0,-1,1,-1,-1,0.988281,0.0400391,0.184082,-10.8125,11.5,6,0.353699,-1.33826,1.49241
1865,0,-1,-1,-2,-2,0,-1,-2,0.988281,0.0400391,0.184082,-10.8125,11.5,6,0.353699,-1.33826,1.49241
1867,-1,0,-1,-1,0,-1,-1,-2,0.973633,0.0341797,0.183105,-4.75,12.125,7.75,0.332313,-1.33628,1.51247
1867,-3,-1,-2,-2,-1,0,-1,-1,0.973633,0.0341797,0.183105,-4.75,12.125,7.75,0.332313,-1.33628,1.51247
1887,-1,-1,-2,-2,0,0,-1,0,0.973633,0.0341797,0.183105,-4.75,12.125,7.75,0.332313,-1.33628,1.51247
1887,-1,0,-2,0,-3,-1,1,0,0.973633,0.0341797,0.183105,-4.75,12.125,7.75,0.332313,-1.33628,1.51247
1889,-1,0,-2,0,-2,0,-1,1,0.971191,0.0390625,0.191406,0.4375,12.5,9,0.311911,-1.33405,1.53334
1889,0,0,-1,-1,-1,0,-1,-2,0.971191,0.0390625,0.191406,0.4375,12.5,9,0.311911,-1.33405,1.53334
1901,-1,-1,-1,-1,1,-2,-2,-2,0.971191,0.0390625,0.191406,0.4375,12.5,9,0.311911,-1.33405,1.53334
1901,0,-1,-2,-2,-2,0,0,0,0.971191,0.0390625,0.191406,0.4375,12.5,9,0.311911,-1.33405,1.53334
1910,-1,-1,-1,-2,-1,1,-1,0,0.959961,0.0473633,0.194336,2.0625,13,9.375,0.292921,-1.33136,1.55337
1910,-1,-3,-1,-1,-2,-1,0,-1,0.959961,0.0473633,0.194336,2.0625,13,9.375,0.292921,-1.33136,1.55337
1925,0,-1,-4,1,-2,-1,-1,-1,0.959961,0.0473633,0.194336,2.0625,13,9.375,0.292921,-1.33136,1.55337
1925,-1,-1,-1,-3,-1,-1,-1,0,0.959961,0.0473633,0.194336,2.0625,13,9.375,0.292921,-1.33136,1.55337
1927,-2,-2,0,-1,0,0,-2,-2,0.943359,0.0585938,0.192383,1.375,13.6875,9.125,0.276085,-1.32873,1.57169
1927,-2,0,-1,-1,0,0,-1,-1,0.943359,0.0585938,0.192383,1.375,13.6875,9.125,0.276085,-1.32873,1.57169
1955,-2,0,1,-1,0,-1,0,-1,0.943359,0.0585938,0.192383,1.375,13.6875,9.125,0.276085,-1.32873,1.57169
1955,0,0,-1,-1,-1,-2,-1,0,0.943359,0.0585938,0.192383,1.375,13.6875,9.125,0.276085,-1.32873,1.57169
1957,-2,-2,-1,-1,-1,-1,-2,-1,0.931152,0.0566406,0.205078,-0.125,13.1875,8,0.260313,-1.32529,1.58775
1957,0,-1,-2,-1,-1,-1,-2,-1,0.931152,0.0566406,0.205078,-0.125,13.1875,8,0.260313,-1.32529,1.58775
1961,-2,-3,0,-1,-2,-1,0,-3,0.931152,0.0566406,0.205078,-0.125,13.1875,8,0.260313,-1.32529,1.58775
1961,0,0,0,0,0,-1,-2,-1,0.931152,0.0566406,0.205078,-0.125,13.1875,8,0.260313,-1.32529,1.58775
1988,1,0,-1,-1,0,-2,-1,-1,0.929199,0.0361328,0.205078,-3.1875,11.5,6.0625,0.245642,-1.32248,1.60147
1988,0,0,1,-1,-1,-2,-1,0,0.929199,0.0361328,0.205078,-3.1875,11.5,6.0625,0.245642,-1.32248,1.60147
1988,0,-1,-1,0,-1,0,-2,-2,0.929199,0.0361328,0.205078,-3.1875,11.5,6.0625,0.245642,-1.32248,1.60147
1988,-1,-2,-1,0,-2,0,-1,-1,0.929199,0.0361328,0.205078,-3.1875,11.5,6.0625,0.245642,-1.32248,1.60147
1991,-3,-1,-2,0,-1,0,-2,-2,0.930176,0.0375977,0.219238,-4.75,10.6875,4.6875,0.232764,-1.31963,1.61308
1991,-1,-1,-2,-1,-2,-1,-2,-2,0.930176,0.0375977,0.219238,-4.75,10.6875,4.6875,0.232764,-1.31963,1.61308
2008,0,-1,-1,-2,0,-2,-1,0,0.930176,0.0375977,0.219238,-4.75,10.6875,4.6875,0.232764,-1.31963,1.61308
2008,-1,-1,-2,-2,-1,0,0,-1,0.930176,0.0375977,0.219238,-4.75,10.6875,4.6875,0.232764,-1.31963,1.61308
2009,0,1,-1,-1,0,-3,-1,-1,0.927246,0.0361328,0.226562,-3.1875,8.8125,3.5625,0.222916,-1.31719,1.62205
2009,-1,-2,-3,0,-1,-2,0,-1,0.927246,0.0361328,0.226562,-3.1875,8.8125,3.5625,0.222916,-1.31719,1.62205
2021,-2,-1,1,-1,0,1,-1,-2,0.927246,0.0361328,0.226562,-3.1875,8.8125,3.5625,0.222916,-1.31719,1.62205
2021,-2,0,-1,0,0,0,-1,-3,0.927246,0.0361328,0.226562,-3.1875,8.8125,3.5625,0.222916,-1.31719,1.62205
2046,1,-1,0,-2,-1,-1,1,-2,0.946289,0.0478516,0.227051,-3.75,7.5,1.875,0.216542,-1.31518,1.62734
2046,0,-1,-2,-1,-1,-3,0,-1,0.946289,0.0478516,0.227051,-3.75,7.5,1.875,0.216542,-1.31518,1.62734
2047,-2,-2,-1,-1,-2,-1,-1,-1,0.946289,0.0478516,0.227051,-3.75,7.5,1.875,0.216542,-1.31518,1.62734
2047,-3,-3,-2,-1,-1,-1,0,-3,0.946289,0.0478516,0.227051,-3.75,7.5,1.875,0.216542,-1.31518,1.62734
2048,-1,-1,-1,-1,-2,-2,-1,0,0.946777,0.0576172,0.231934,-3.6875,6.3125,1.4375,0.212076,-1.31324,1.63052
2048,0,-1,-1,-1,0,0,-1,0,0.946777,0.0576172,0.231934,-3.6875,6.3125,1.4375,0.212076,-1.31324,1.63052
2068,-1,0,-1,0,0,-1,-1,-1,0.946777,0.0576172,0.231934,-3.6875,6.3125,1.4375,0.212076,-1.31324,1.63052
2068,0,0,-1,-2,-1,-2,-1,-2,0.946777,0.0576172,0.231934,-3.6875,6.3125,1.4375,0.212076,-1.31324,1.63052
2069,0,-2,-3,0,-1,-1,-2,1,0.952637,0.0512695,0.226074,-1.6875,4.875,1.25,0.208873,-1.31216,1.63323
2069,-1,-1,0,0,-1,0,1,-1,0.952637,0.0512695,0.226074,-1.6875,4.875,1.25,0.208873,-1.31216,1.63323
2081,-1,1,-2,1,-1,-1,-1,0,0.952637,0.0512695,0.226074,-1.6875,4.875,1.25,0.208873,-1.31216,1.63323
2081,-2,-1,0,0,-1,0,0,-1,0.952637,0.0512695,0.226074,-1.6875,4.875,1.25,0.208873,-1.31216,1.63323
2097,-2,0,-1,0,-1,-2,-2,-2,0.960938,0.0615234,0.234863,0.375,4.25,1.375,0.207396,-1.31135,1.63541
2097,0,-1,-2,-3,-2,-1,-2,0,0.960938,0.0615234,0.234863,0.375,4.25,1.375,0.207396,-1.31135,1.63541
2105,0,-2,-1,-1,-2,-2,-1,-1,0.960938,0.0615234,0.234863,0.375,4.25,1.375,0.207396,-1.31135,1.63541
2105,-1,0,0,-3,-2,-3,1,-1,0.960938,0.0615234,0.234863,0.375,4.25,1.375,0.207396,-1.31135,1.63541
2107,-2,0,-2,0,-1,0,-1,-1,0.969238,0.0556641,0.230469,3.75,3.375,1.5625,0.206268,-1.31059,1.63785
2107,-2,-1,0,0,1,0,0,-3,0.969238,0.0556641,0.230469,3.75,3.375,1.5625,0.206268,-1.31059,1.63785
2128,-1,-2,0,-2,-2,-1,0,0,0.969238,0.0556641,0.230469,3.75,3.375,1.5625,0.206268,-1.31059,1.63785
2128,-2,-2,-1,-1,0,-1,-2,1,0.969238,0.0556641,0.230469,3.75,3.375,1.5625,0.206268,-1.31059,1.63785
2130,-2,-1,0,-1,-2,0,1,-1,0.970215,0.0541992,0.237305,6.4375,3.3125,1.25,0.206521,-1.30982,1.63978
2130,-2,1,-1,-1,-2,-1,0,-1,0.970215,0.0541992,0.237305,6.4375,3.3125,1.25,0.206521,-1.30982,1.63978
2141,-1,-1,-2,-2,1,0,-1,-2,0.970215,0.0541992,0.237305,6.4375,3.3125,1.25,0.206521,-1.30982,1.63978
2141,-2,-1,-2,-1,0,-1,1,0,0.970215,0.0541992,0.237305,6.4375,3.3125,1.25,0.206521,-1.30982,1.63978
2150,0,0,-1,-2,-1,-2,-2,-1,0.968262,0.0488281,0.233398,8.25,3.3125,0.875,0.207391,-1.30922,1.64191
2150,0,-2,-1,0,-2,0,-1,0,0.968262,0.0488281,0.233398,8.25,3.3125,0.875,0.207391,-1.30922,1.64191
2165,-1,-1,0,-1,-1,0,-1,0,0.968262,0.0488281,0.233398,8.25,3.3125,0.875,0.207391,-1.30922,1.64191
2165,0,-2,-2,-1,-1,-1,-2,-1,0.968262,0.0488281,0.233398,8.25,3.3125,0.875,0.207391,-1.30922,1.64191
2166,0,-1,0,0,0,0,-1,-2,0.960938,0.0595703,0.236328,10.25,4.1875,0.5625,0.209896,-1.3083,1.64313
2166,-2,0,0,0,0,-2,-3,-1,0.960938,0.0595703,0.236328,10.25,4.1875,0.5625,0.209896,-1.3083,1.64313
2188,0,-1,-1,-1,0,-3,0,1,0.960938,0.0595703,0.236328,10.25,4.1875,0.5625,0.209896,-1.3083,1.64313
2188,-1,-2,0,-1,1,-1,0,-2,0.960938,0.0595703,0.236328,10.25,4.1875,0.5625,0.209896,-1.3083,1.64313
2190,-3,-1,-3,-1,0,0,0,1,0.962891,0.059082,0.237305,11.8125,4.625,-0.4375,0.213794,-1.30692,1.64348
2190,-1,1,-2,-1,-1,-1,-1,-1,0.962891,0.059082,0.237305,11.8125,4.625,-0.4375,0.213794,-1.30692,1.64348
2202,-2,0,-1,-1,-1,-1,1,-1,0.962891,0.059082,0.237305,11.8125,4.625,-0.4375,0.213794,-1.30692,1.64348
2202,1,0,-1,-2,-1,0,-1,0,0.962891,0.059082,0.237305,11.8125,4.625,-0.4375,0.213794,-1.30692,1.64348
2210,-1,-3,-1,-1,-1,-1,0,0,0.965332,0.0678711,0.234863,9.625,5.5625,-2,0.219437,-1.30536,1.64123
2210,-1,-2,-1,-1,-1,-1,-1,-2,0.965332,0.0678711,0.234863,9.625,5.5625,-2,0.219437,-1.30536,1.64123
2225,-1,0,-3,0,0,2,0,-1,0.965332,0.0678711,0.234863,9.625,5.5625,-2,0.219437,-1.30536,1.64123
2225,-1,0,-2,-1,-1,-1,-1,0,0.965332,0.0678711,0.234863,9.625,5.5625,-2,0.219437,-1.30536,1.64123
2226,-1,0,-1,-1,-1,-1,-1,-1,0.95752,0.0722656,0.226074,4.625,5.75,-3.25,0.225235,-1.30355,1.63669
2226,-1,-1,-2,0,-2,-3,1,0,0.95752,0.0722656,0.226074,4.625,5.75,-3.25,0.225235,-1.30355,1.63669
2248,-3,-2,1,1,0,-2,-1,-2,0.95752,0.0722656,0.226074,4.625,5.75,-3.25,0.225235,-1.30355,1.63669
2248,-1,-1,-2,0,-1,-1,-1,-1,0.95752,0.0722656,0.226074,4.625,5.75,-3.25,0.225235,-1.30355,1.63669
2249,-1,0,0,-1,-1,-2,-2,-1,0.947754,0.0673828,0.229004,-1.1875,6.5,-4.1875,0.229486,-1.30179,1.63236
2249,1,-2,-1,-2,-1,0,-1,0,0.947754,0.0673828,0.229004,-1.1875,6.5,-4.1875,0.229486,-1.30179,1.63236
2261,0,1,0,0,-1,-2,-2,-1,0.947754,0.0673828,0.229004,-1.1875,6.5,-4.1875,0.229486,-1.30179,1.63236
2261,-2,0,0,0,-1,0,-2,-1,0.947754,0.0673828,0.229004,-1.1875,6.5,-4.1875,0.229486,-1.30179,1.63236
2271,-1,-3,1,-1,-3,-1,0,-2,0.935059,0.0595703,0.232422,-4.875,6.5625,-5.1875,0.232813,-1.29926,1.62682
2271,0,-2,-3,1,2,-2,-2,0,0.935059,0.0595703,0.232422,-4.875,6.5625,-5.1875,0.232813,-1.29926,1.62682
2285,-2,-3,-1,-2,-1,-1,-2,0,0.935059,0.0595703,0.232422,-4.875,6.5625,-5.1875,0.232813,-1.29926,1.62682
2285,-1,-1,0,-2,-2,-1,0,-2,0.935059,0.0595703,0.232422,-4.875,6.5625,-5.1875,0.232813,-1.29926,1.62682
2286,-2,-1,-1,1,-1,-1,-1,0,0.922363,0.0541992,0.241699,-7.625,6.1875,-6.0625,0.235181,-1.29707,1.62178
2286,-2,1,0,0,-1,0,-1,-1,0.922363,0.0541992,0.241699,-7.625,6.1875,-6.0625,0.235181,-1.29707,1.62178
2308,-3,-1,-2,-2,-1,0,-1,-2,0.922363,0.0541992,0.241699,-7.625,6.1875,-6.0625,0.235181,-1.29707,1.62178
2308,0,0,-2,1,-1,-1,0,0,0.922363,0.0541992,0.241699,-7.625,6.1875,-6.0625,0.235181,-1.29707,1.62178
2309,0,-2,-2,-1,-1,-1,-2,-3,0.91748,0.0410156,0.260742,-6.375,4.8125,-6.1875,0.237228,-1.29508,1.61741
2309,1,-1,-2,-2,-1,-1,2,1,0.91748,0.0410156,0.260742,-6.375,4.8125,-6.1875,0.237228,-1.29508,1.61741
2321,0,-1,-2,-1,-3,0,0,-1,0.91748,0.0410156,0.260742,-6.375,4.8125,-6.1875,0.237228,-1.29508,1.61741
2321,-1,-2,-1,-1,-1,-1,-1,0,0.91748,0.0410156,0.260742,-6.375,4.8125,-6.1875,0.237228,-1.29508,1.61741
2330,-1,-2,-1,0,1,-1,-1,-1,0.920898,0.0390625,0.268555,-2.375,3.0625,-5.9375,0.240279,-1.29339,1.6133
2330,-2,-1,-1,0,-1,-1,-3,-2,0.920898,0.0390625,0.268555,-2.375,3.0625,-5.9375,0.240279,-1.29339,1.6133
2345,0,0,0,-1,-1,0,0,0,0.920898,0.0390625,0.268555,-2.375,3.0625,-5.9375,0.240279,-1.29339,1.6133
2345,-1,-1,0,-1,-2,-2,-3,0,0.920898,0.0390625,0.268555,-2.375,3.0625,-5.9375,0.240279,-1.29339,1.6133
2347,0,0,-1,-1,-1,-1,-1,-1,0.923828,0.0380859,0.281738,0.3125,1,-5.9375,0.244036,-1.29172,1.60893
2347,-1,-1,-1,0,-1,-1,-1,-1,0.923828,0.0380859,0.281738,0.3125,1,-5.9375,0.244036,-1.29172,1.60893
2368,-1,-2,-1,-1,1,-1,0,0,0.923828,0.0380859,0.281738,0.3125,1,-5.9375,0.244036,-1.29172,1.60893
2368,-2,-2,0,0,-2,1,-1,-1,0.923828,0.0380859,0.281738,0.3125,1,-5.9375,0.244036,-1.29172,1.60893
2369,2,0,-2,0,-2,-1,-1,0,0.942871,0.043457,0.273438,-0.25,-0.5,-6.3125,0.249332,-1.2912,1.60317
2369,-1,-2,-1,-1,-1,0,-2,0,0.942871,0.043457,0.273438,-0.25,-0.5,-6.3125,0.249332,-1.2912,1.60317
2390,1,1,-2,-1,-2,-2,-1,-1,0.942871,0.043457,0.273438,-0.25,-0.5,-6.3125,0.249332,-1.2912,1.60317
2390,-2,-1,-1,-1,-1,-1,0,-1,0.942871,0.043457,0.273438,-0.25,-0.5,-6.3125,0.249332,-1.2912,1.60317
2391,0,-1,-3,-2,-1,1,0,-2,0.950684,0.0507812,0.260742,-3.875,-1.4375,-6,0.254104,-1.29152,1.59694
2391,-1,-2,1,0,0,-1,-1,-1,0.950684,0.0507812,0.260742,-3.875,-1.4375,-6,0.254104,-1.29152,1.59694
2405,0,-1,-1,0,-2,-2,-2,-1,0.950684,0.0507812,0.260742,-3.875,-1.4375,-6,0.254104,-1.29152,1.59694
2405,-1,2,-1,0,-2,-3,-1,-1,0.950684,0.0507812,0.260742,-3.875,-1.4375,-6,0.254104,-1.29152,1.59694
2406,0,0,-1,-1,-1,-1,-1,0,0.939941,0.0478516,0.254395,-8.5,-2.1875,-5,0.255763,-1.29193,1.59191
2406,-1,-1,-1,-1,0,0,0,-2,0.939941,0.0478516,0.254395,-8.5,-2.1875,-5,0.255763,-1.29193,1.59191
2428,-2,-3,-1,-2,-1,0,0,0,0.939941,0.0478516,0.254395,-8.5,-2.1875,-5,0.255763,-1.29193,1.59191
2428,-1,-2,-1,0,0,1,0,-2,0.939941,0.0478516,0.254395,-8.5,-2.1875,-5,0.255763,-1.29193,1.59191
2430,-2,-2,0,-2,-2,-1,-1,-1,0.918457,0.043457,0.265137,-10.9375,-3.0625,-3.8125,0.255064,-1.29263,1.5885
2430,0,-1,-2,-1,-2,-1,-1,1,0.918457,0.043457,0.265137,-10.9375,-3.0625,-3.8125,0.255064,-1.29263,1.5885
2451,0,-1,-1,-2,-1,-1,-2,0,0.918457,0.043457,0.265137,-10.9375,-3.0625,-3.8125,0.255064,-1.29263,1.5885
2451,0,-2,-2,-1,0,-1,0,-2,0.918457,0.043457,0.265137,-10.9375,-3.0625,-3.8125,0.255064,-1.29263,1.5885
2452,-3,0,-1,0,0,0,1,0,0.911621,0.0302734,0.26416,-9.625,-4.5625,-3.375,0.254139,-1.29362,1.58569
2452,-2,-2,0,1,-2,0,-1,-2,0.911621,0.0302734,0.26416,-9.625,-4.5625,-3.375,0.254139,-1.29362,1.58569
2465,0,1,-1,0,-1,-2,-1,-2,0.911621,0.0302734,0.26416,-9.625,-4.5625,-3.375,0.254139,-1.29362,1.58569
2465,-1,0,-1,-1,-1,-1,-1,0,0.911621,0.0302734,0.26416,-9.625,-4.5625,-3.375,0.254139,-1.29362,1.58569
2466,-1,-1,-1,-2,-2,-3,-2,0,0.916992,0.0273438,0.272461,-7.875,-5.375,-2.6875,0.252242,-1.29497,1.58456
2466,-1,-2,-3,-1,-1,-1,-1,-1,0.916992,0.0273438,0.272461,-7.875,-5.375,-2.6875,0.252242,-1.29497,1.58456
2489,-1,-1,0,0,-1,-1,0,-2,0.916992,0.0273438,0.272461,-7.875,-5.375,-2.6875,0.252242,-1.29497,1.58456
2489,1,-1,-1,-2,-1,-1,1,-2,0.916992,0.0273438,0.272461,-7.875,-5.375,-2.6875,0.252242,-1.29497,1.58456
2489,-1,0,0,-2,-1,-1,-1,-1,0.919434,0.0375977,0.271973,-7.125,-6.375,-2.5625,0.252251,-1.2965,1.58173
2489,0,0,0,-1,-1,-2,0,0,0.919434,0.0375977,0.271973,-7.125,-6.375,-2.5625,0.252251,-1.2965,1.58173
2510,0,-2,0,-2,-1,-2,-1,0,0.919434,0.0375977,0.271973,-7.125,-6.375,-2.5625,0.252251,-1.2965,1.58173
2510,-2,-2,0,0,0,-2,-1,-1,0.919434,0.0375977,0.271973,-7.125,-6.375,-2.5625,0.252251,-1.2965,1.58173
2512,-2,-1,-3,-2,-2,-2,-1,0,0.921875,0.0351562,0.270508,-9.5625,-7.4375,-2.125,0.250656,-1.29868,1.5798
2512,0,0,-1,-2,-1,1,-1,0,0.921875,0.0351562,0.270508,-9.5625,-7.4375,-2.125,0.250656,-1.29868,1.5798
2524,-2,-1,-2,-1,0,0,-1,-1,0.921875,0.0351562,0.270508,-9.5625,-7.4375,-2.125,0.250656,-1.29868,1.5798
2524,-1,-1,-2,-1,-2,-1,-2,0,0.921875,0.0351562,0.270508,-9.5625,-7.4375,-2.125,0.250656,-1.29868,1.5798
2540,0,0,0,0,0,-1,0,-1,0.91748,0.0307617,0.274902,-11.625,-8.625,-1.5,0.24726,-1.30098,1.57896
2540,-1,-1,-1,0,-2,-2,0,-1,0.91748,0.0307617,0.274902,-11.625,-8.625,-1.5,0.24726,-1.30098,1.57896
2547,0,0,-1,-1,-1,-1,-1,-2,0.91748,0.0307617,0.274902,-11.625,-8.625,-1.5,0.24726,-1.30098,1.57896
2547,-2,-2,-2,-2,-1,0,-1,1,0.91748,0.0307617,0.274902,-11.625,-8.625,-1.5,0.24726,-1.30098,1.57896
2549,-2,-1,-1,-1,1,-2,-2,-2,0.921387,0.03125,0.26709,-12.25,-9.625,-0.75,0.243862,-1.30346,1.57749
2549,-1,-1,-1,-2,0,-1,-2,-2,0.921387,0.03125,0.26709,-12.25,-9.625,-0.75,0.243862,-1.30346,1.57749
2570,-2,-1,-1,-1,1,0,1,-1,0.921387,0.03125,0.26709,-12.25,-9.625,-0.75,0.243862,-1.30346,1.57749
2570,0,0,-2,-2,-1,0,0,-1,0.921387,0.03125,0.26709,-12.25,-9.625,-0.75,0.243862,-1.30346,1.57749
2572,0,-2,-1,0,0,-1,-1,-2,0.919434,0.0454102,0.258301,-14,-9.6875,-0.6875,0.241025,-1.30649,1.57538
2572,-2,0,-1,-1,0,-1,0,1,0.919434,0.0454102,0.258301,-14,-9.6875,-0.6875,0.241025,-1.30649,1.57538
2584,-1,-3,-1,0,0,0,-1,1,0.919434,0.0454102,0.258301,-14,-9.6875,-0.6875,0.241025,-1.30649,1.57538
2584,1,0,-1,0,-1,0,-1,-1,0.919434,0.0454102,0.258301,-14,-9.6875,-0.6875,0.241025,-1.30649,1.57538
2592,0,-1,-1,-1,-1,0,-1,0,0.928711,0.0512695,0.256836,-16.4375,-9.6875,-0.375,0.237978,-1.30942,1.57264
2592,-2,-2,-1,-1,-1,-4,0,-1,0.928711,0.0512695,0.256836,-16.4375,-9.6875,-0.375,0.237978,-1.30942,1.57264
2608,-1,-1,-1,-2,-1,-1,0,-2,0.928711,0.0512695,0.256836,-16.4375,-9.6875,-0.375,0.237978,-1.30942,1.57264
2608,-2,-1,1,-1,-2,-2,-2,1,0.928711,0.0512695,0.256836,-16.4375,-9.6875,-0.375,0.237978,-1.30942,1.57264
2609,0,0,0,-1,-2,0,-1,0,0.930664,0.0288086,0.270996,-17.75,-10.0625,0.3125,0.231103,-1.31245,1.57324
2609,0,1,-1,-1,-1,-1,-1,-1,0.930664,0.0288086,0.270996,-17.75,-10.0625,0.3125,0.231103,-1.31245,1.57324
2630,0,-1,-2,-2,-2,0,0,0,0.930664,0.0288086,0.270996,-17.75,-10.0625,0.3125,0.231103,-1.31245,1.57324
2630,0,0,0,-1,-1,0,0,-2,0.930664,0.0288086,0.270996,-17.75,-10.0625,0.3125,0.231103,-1.31245,1.57324
2632,-1,-2,0,0,-1,-1,-1,0,0.935059,0.0161133,0.273438,-15.5,-10.875,0.0625,0.224315,-1.3153,1.57413
2632,-1,-2,1,0,-2,0,-2,0,0.935059,0.0161133,0.273438,-15.5,-10.875,0.0625,0.224315,-1.3153,1.57413
2652,1,-2,0,2,0,-2,-1,-1,0.935059,0.0161133,0.273438,-15.5,-10.875,0.0625,0.224315,-1.3153,1.57413
2652,-3,1,-3,0,-1,-1,0,-2,0.935059,0.0161133,0.273438,-15.5,-10.875,0.0625,0.224315,-1.3153,1.57413
2654,-1,1,-2,-1,-2,0,0,0,0.952148,0.034668,0.265625,-13.6875,-11.125,-0.75,0.221519,-1.31876,1.57221
2654,0,-1,-1,-1,0,1,-3,-1,0.952148,0.034668,0.265625,-13.6875,-11.125,-0.75,0.221519,-1.31876,1.57221
2667,-2,0,0,-2,-1,-1,-2,0,0.952148,0.034668,0.265625,-13.6875,-11.125,-0.75,0.221519,-1.31876,1.57221
2667,-1,-3,-3,-2,0,-1,-1,0,0.952148,0.034668,0.265625,-13.6875,-11.125,-0.75,0.221519,-1.31876,1.57221
2669,-1,-1,-2,-1,-1,-1,-1,-2,0.961914,0.0454102,0.26416,-16.1875,-11.5625,-1.0625,0.219218,-1.32153,1.56813
2669,-2,-1,-1,-1,-2,-1,0,-1,0.961914,0.0454102,0.26416,-16.1875,-11.5625,-1.0625,0.219218,-1.32153,1.56813
2690,-1,0,-1,0,-2,0,-1,-2,0.961914,0.0454102,0.26416,-16.1875,-11.5625,-1.0625,0.219218,-1.32153,1.56813
2690,-2,-1,0,-1,0,-1,-1,0,0.961914,0.0454102,0.26416,-16.1875,-11.5625,-1.0625,0.219218,-1.32153,1.56813
2691,0,-3,-2,-1,-1,-1,0,-2,0.958984,0.0507812,0.264648,-19.8125,-11.6875,-0.9375,0.216671,-1.32504,1.56396
2691,1,0,-1,-1,0,-2,-1,-1,0.958984,0.0507812,0.264648,-19.8125,-11.6875,-0.9375,0.216671,-1.32504,1.56396
2703,-1,-1,-2,-2,0,0,0,-2,0.958984,0.0507812,0.264648,-19.8125,-11.6875,-0.9375,0.216671,-1.32504,1.56396
2703,-2,-1,0,-1,-1,0,-2,-1,0.958984,0.0507812,0.264648,-19.8125,-11.6875,-0.9375,0.216671,-1.32504,1.56396
2713,0,-3,0,0,-1,-2,-3,0,0.950195,0.0371094,0.270508,-19.5625,-12,-1.0625,0.212238,-1.32788,1.56111
2713,0,-1,-1,0,0,-1,-2,-1,0.950195,0.0371094,0.270508,-19.5625,-12,-1.0625,0.212238,-1.32788,1.56111
2728,-1,-1,0,0,-1,-2,-1,0,0.950195,0.0371094,0.270508,-19.5625,-12,-1.0625,0.212238,-1.32788,1.56111
2728,0,-1,-3,-1,0,-1,-3,-1,0.950195,0.0371094,0.270508,-19.5625,-12,-1.0625,0.212238,-1.32788,1.56111
2729,1,-1,-1,0,-2,-1,0,-1,0.956543,0.0351562,0.27002,-16.4375,-12,-1.5,0.210172,-1.33102,1.55729
2729,0,-1,-2,-1,-1,-2,0,0,0.956543,0.0351562,0.27002,-16.4375,-12,-1.5,0.210172,-1.33102,1.55729
2750,-3,-1,0,1,-1,-1,-2,-2,0.956543,0.0351562,0.27002,-16.4375,-12,-1.5,0.210172,-1.33102,1.55729
2750,3,0,-2,-1,-1,-1,0,0,0.956543,0.0351562,0.27002,-16.4375,-12,-1.5,0.210172,-1.33102,1.55729
2752,-1,0,-2,-2,1,0,-1,-1,0.96582,0.0380859,0.258789,-13.375,-12.1875,-2,0.209816,-1.33429,1.55277
2752,-1,-1,0,-2,-1,0,-1,0,0.96582,0.0380859,0.258789,-13.375,-12.1875,-2,0.209816,-1.33429,1.55277
2764,0,-2,-2,-1,-2,-1,-1,0,0.96582,0.0380859,0.258789,-13.375,-12.1875,-2,0.209816,-1.33429,1.55277
2764,-2,-2,0,0,0,-2,-2,-1,0.96582,0.0380859,0.258789,-13.375,-12.1875,-2,0.209816,-1.33429,1.55277
2773,-1,0,-1,-2,-2,0,-1,-2,0.959961,0.043457,0.245605,-12.5625,-12.125,-1.5,0.210567,-1.33763,1.54721
2773,-1,0,-1,-1,-1,-1,0,-1,0.959961,0.043457,0.245605,-12.5625,-12.125,-1.5,0.210567,-1.33763,1.54721
2795,0,1,-1,-2,-2,0,-1,-1,0.959961,0.043457,0.245605,-12.5625,-12.125,-1.5,0.210567,-1.33763,1.54721
2795,-1,0,1,-2,-2,-1,0,-1,0.959961,0.043457,0.245605,-12.5625,-12.125,-1.5,0.210567,-1.33763,1.54721
2797,-2,-1,0,1,-1,0,-3,-1,0.961426,0.0527344,0.245605,-12.625,-12.25,-1.9375,0.212804,-1.3417,1.54124
2797,-1,-1,-2,-2,-2,0,-2,-2,0.961426,0.0527344,0.245605,-12.625,-12.25,-1.9375,0.212804,-1.3417,1.54124
2809,-1,-3,-2,1,0,-2,-1,0,0.961426,0.0527344,0.245605,-12.625,-12.25,-1.9375,0.212804,-1.3417,1.54124
2809,-2,0,0,0,-1,-2,0,-1,0.961426,0.0527344,0.245605,-12.625,-12.25,-1.9375,0.212804,-1.3417,1.54124
2812,-1,-1,0,-1,-2,0,0,0,0.977051,0.0463867,0.248047,-13.1875,-12.375,-3.5,0.216132,-1.3444,1.53248
2812,0,-1,0,-2,-1,-1,-1,-1,0.977051,0.0463867,0.248047,-13.1875,-12.375,-3.5,0.216132,-1.3444,1.53248
2824,-1,-1,-1,0,-3,0,-1,0,0.977051,0.0463867,0.248047,-13.1875,-12.375,-3.5,0.216132,-1.3444,1.53248
2824,0,-2,0,-2,-2,0,-1,0,0.977051,0.0463867,0.248047,-13.1875,-12.375,-3.5,0.216132,-1.3444,1.53248
2831,0,-2,1,0,0,-1,-1,0,0.980957,0.043457,0.237793,-12.9375,-13,-4.5625,0.221899,-1.34813,1.52202
2831,-1,-1,-2,-2,-1,-2,-1,-2,0.980957,0.043457,0.237793,-12.9375,-13,-4.5625,0.221899,-1.34813,1.52202
2847,-1,-2,-2,-3,-2,-1,-1,-1,0.980957,0.043457,0.237793,-12.9375,-13,-4.5625,0.221899,-1.34813,1.52202
2847,0,0,-1,1,1,0,-1,-1,0.980957,0.043457,0.237793,-12.9375,-13,-4.5625,0.221899,-1.34813,1.52202
2849,-1,-2,0,-2,-1,-2,0,-1,0.981934,0.0483398,0.230469,-11.875,-13.25,-6.0625,0.230893,-1.35153,1.5083
2849,0,-1,0,-1,-1,-2,1,-1,0.981934,0.0483398,0.230469,-11.875,-13.25,-6.0625,0.230893,-1.35153,1.5083
2871,-1,-2,0,-1,0,-2,-1,-1,0.981934,0.0483398,0.230469,-11.875,-13.25,-6.0625,0.230893,-1.35153,1.5083
2871,-1,0,-1,-1,-1,-1,0,0,0.981934,0.0483398,0.230469,-11.875,-13.25,-6.0625,0.230893,-1.35153,1.5083
2872,-1,-1,-3,-1,-1,-3,-1,0,0.980469,0.0532227,0.228027,-10.9375,-13.5,-7.875,0.243803,-1.35503,1.4912
2872,-1,-2,1,-1,-1,0,-2,0,0.980469,0.0532227,0.228027,-10.9375,-13.5,-7.875,0.243803,-1.35503,1.4912
2883,-1,1,-1,-2,-2,0,-1,-2,0.980469,0.0532227,0.228027,-10.9375,-13.5,-7.875,0.243803,-1.35503,1.4912
2883,-2,-1,-1,-2,-2,-3,-1,-1,0.980469,0.0532227,0.228027,-10.9375,-13.5,-7.875,0.243803,-1.35503,1.4912
2893,0,-2,0,0,-1,-1,1,-2,0.978027,0.0585938,0.220215,-10.5625,-13.75,-10,0.261308,-1.35856,1.46964
2893,0,-1,-2,0,0,-1,0,-1,0.978027,0.0585938,0.220215,-10.5625,-13.75,-10,0.261308,-1.35856,1.46964
2907,0,-1,1,-1,0,-2,0,-1,0.978027,0.0585938,0.220215,-10.5625,-13.75,-10,0.261308,-1.35856,1.46964
2907,-2,-1,-2,-1,2,0,-1,-1,0.978027,0.0585938,0.220215,-10.5625,-13.75,-10,0.261308,-1.35856,1.46964
2909,0,1,-3,-1,-2,-1,-1,1,1.0166,0.0581055,0.229492,-12.5,-14.6875,-12.9375,0.282498,-1.36177,1.44357
2909,-3,-1,-1,1,-2,-2,-2,-1,1.0166,0.0581055,0.229492,-12.5,-14.6875,-12.9375,0.282498,-1.36177,1.44357
2931,0,-2,-2,-1,-1,-1,-2,0,1.0166,0.0581055,0.229492,-12.5,-14.6875,-12.9375,0.282498,-1.36177,1.44357
2931,1,-1,1,-2,-1,-2,-1,-1,1.0166,0.0581055,0.229492,-12.5,-14.6875,-12.9375,0.282498,-1.36177,1.44357
2932,-1,-2,-2,-2,-1,-2,-1,-1,1.05615,0.050293,0.235352,-13.4375,-16.5,-15.3125,0.307427,-1.36535,1.41343
2932,-1,-1,-1,-2,-2,-1,-1,0,1.05615,0.050293,0.235352,-13.4375,-16.5,-15.3125,0.307427,-1.36535,1.41343
2944,-1,1,-3,0,-1,0,-1,-1,1.05615,0.050293,0.235352,-13.4375,-16.5,-15.3125,0.307427,-1.36535,1.41343
2944,-1,-2,0,-1,-2,-1,-1,-1,1.05615,0.050293,0.235352,-13.4375,-16.5,-15.3125,0.307427,-1.36535,1.41343
2953,-1,0,0,-2,0,0,0,0,1.08057,0.0571289,0.218262,-16.625,-18.0625,-16.375,0.335153,-1.36921,1.37872
2953,-2,-3,-1,0,-1,-1,0,-1,1.08057,0.0571289,0.218262,-16.625,-18.0625,-16.375,0.335153,-1.36921,1.37872
2967,-2,0,-1,-2,-1,-2,1,-2,1.08057,0.0571289,0.218262,-16.625,-18.0625,-16.375,0.335153,-1.36921,1.37872
2967,-1,-1,0,0,-1,-1,0,-2,1.08057,0.0571289,0.218262,-16.625,-18.0625,-16.375,0.335153,-1.36921,1.37872
2970,-1,-1,-2,-2,0,0,-1,-2,1.0415,0.0917969,0.196289,-21.375,-18.8125,-15.6875,0.366391,-1.37332,1.33936
2970,-1,1,0,-1,1,-1,-1,0,1.0415,0.0917969,0.196289,-21.375,-18.8125,-15.6875,0.366391,-1.37332,1.33936
2990,-2,-3,-2,-1,1,-1,-2,-2,1.0415,0.0917969,0.196289,-21.375,-18.8125,-15.6875,0.366391,-1.37332,1.33936
2990,-1,-3,-2,2,-2,-1,0,-2,1.0415,0.0917969,0.196289,-21.375,-18.8125,-15.6875,0.366391,-1.37332,1.33936
2992,0,-1,-2,-1,-1,-1,0,-1,0.981934,0.11084,0.174805,-25.8125,-19.25,-15.4375,0.399372,-1.37733,1.29694
2992,0,-2,0,-2,-1,0,0,-1,0.981934,0.11084,0.174805,-25.8125,-19.25,-15.4375,0.399372,-1.37733,1.29694
3004,-1,-1,1,0,0,0,-1,-1,0.981934,0.11084,0.174805,-25.8125,-19.25,-15.4375,0.399372,-1.37733,1.29694
3004,-2,1,-2,-2,-4,-1,0,-1,0.981934,0.11084,0.174805,-25.8125,-19.25,-15.4375,0.399372,-1.37733,1.29694
3013,-2,-1,-2,1,-2,-2,-1,0,0.943848,0.101562,0.168457,-28.0625,-19.125,-15.75,0.432677,-1.38065,1.25286
3013,1,1,-2,-1,-2,-2,-1,-1,0.943848,0.101562,0.168457,-28.0625,-19.125,-15.75,0.432677,-1.38065,1.25286
3028,-1,1,0,-1,0,-1,-1,-1,0.943848,0.101562,0.168457,-28.0625,-19.125,-15.75,0.432677,-1.38065,1.25286
3028,-2,-3,-3,-2,-1,-2,-2,-1,0.943848,0.101562,0.168457,-28.0625,-19.125,-15.75,0.432677,-1.38065,1.25286
3029,1,0,-1,0,-2,1,1,-1,0.928223,0.059082,0.170898,-24.875,-19.6875,-15.625,0.46177,-1.38457,1.21455
3029,0,-1,-1,-1,-1,-1,-1,-1,0.928223,0.059082,0.170898,-24.875,-19.6875,-15.625,0.46177,-1.38457,1.21455
3057,-1,-3,-2,0,-2,-1,1,1,0.928223,0.059082,0.170898,-24.875,-19.6875,-15.625,0.46177,-1.38457,1.21455
3057,0,0,0,-1,-1,-1,-2,-2,0.928223,0.059082,0.170898,-24.875,-19.6875,-15.625,0.46177,-1.38457,1.21455
3059,-1,-1,-2,-1,-1,-3,0,-1,0.946777,0.0463867,0.161133,-14.9375,-19.9375,-15.9375,0.495895,-1.38814,1.17398
3059,-1,1,-2,-1,-2,0,-1,0,0.946777,0.0463867,0.161133,-14.9375,-19.9375,-15.9375,0.495895,-1.38814,1.17398
3064,0,0,-2,-1,-1,0,-1,-1,0.946777,0.0463867,0.161133,-14.9375,-19.9375,-15.9375,0.495895,-1.38814,1.17398
3064,-2,-1,-1,-2,-1,-1,-1,0,0.946777,0.0463867,0.161133,-14.9375,-19.9375,-15.9375,0.495895,-1.38814,1.17398
3072,-2,-2,-1,0,-1,-1,-1,0,0.969238,0.0649414,0.135254,-5.9375,-18.625,-17,0.537406,-1.39139,1.12963
3072,-2,-1,-1,-1,1,1,1,0,0.969238,0.0649414,0.135254,-5.9375,-18.625,-17,0.537406,-1.39139,1.12963
3087,0,0,-2,-1,-2,-1,0,0,0.969238,0.0649414,0.135254,-5.9375,-18.625,-17,0.537406,-1.39139,1.12963
3087,0,0,-2,0,-1,-1,-2,-2,0.969238,0.0649414,0.135254,-5.9375,-18.625,-17,0.537406,-1.39139,1.12963
3094,-2,-1,-1,-2,-1,-2,1,0,0.967285,0.105957,0.112793,-5.375,-16.0625,-17.5625,0.58456,-1.39377,1.08037
3094,-1,-3,-2,0,-3,-3,-2,-1,0.967285,0.105957,0.112793,-5.375,-16.0625,-17.5625,0.58456,-1.39377,1.08037
3118,-1,-1,-1,-2,1,-1,0,-1,0.967285,0.105957,0.112793,-5.375,-16.0625,-17.5625,0.58456,-1.39377,1.08037
3118,-1,-2,-1,-1,1,1,-3,-1,0.967285,0.105957,0.112793,-5.375,-16.0625,-17.5625,0.58456,-1.39377,1.08037
3119,-2,-1,-1,0,0,0,-1,-2,0.942383,0.130371,0.102539,-11.4375,-13.9375,-18.3125,0.631601,-1.39385,1.02815
3119,-3,0,-1,-2,-2,-1,1,0,0.942383,0.130371,0.102539,-11.4375,-13.9375,-18.3125,0.631601,-1.39385,1.02815
3123,0,-2,-1,1,-2,0,-2,-1,0.942383,0.130371,0.102539,-11.4375,-13.9375,-18.3125,0.631601,-1.39385,1.02815
3123,0,-2,0,-1,-1,0,-1,0,0.942383,0.130371,0.102539,-11.4375,-13.9375,-18.3125,0.631601,-1.39385,1.02815
3132,-1,-2,-1,-1,0,-2,-1,-1,0.927734,0.121582,0.0751953,-18.0625,-11.625,-19.125,0.674975,-1.39388,0.977921
3132,-1,-3,-1,0,0,-2,-2,-1,0.927734,0.121582,0.0751953,-18.0625,-11.625,-19.125,0.674975,-1.39388,0.977921
3155,-2,-1,0,0,-1,-1,-2,-1,0.927734,0.121582,0.0751953,-18.0625,-11.625,-19.125,0.674975,-1.39388,0.977921
3155,0,0,-2,0,0,-1,0,-1,0.927734,0.121582,0.0751953,-18.0625,-11.625,-19.125,0.674975,-1.39388,0.977921
3157,-1,0,1,0,-1,2,-2,-1,0.905273,0.125977,0.0610352,-23.3125,-7.875,-19.4375,0.713238,-1.39263,0.931386
3157,-1,0,-1,-2,-3,0,-1,-1,0.905273,0.125977,0.0610352,-23.3125,-7.875,-19.4375,0.713238,-1.39263,0.931386
3171,-1,-2,-1,-1,0,-2,-2,-1,0.905273,0.125977,0.0610352,-23.3125,-7.875,-19.4375,0.713238,-1.39263,0.931386
3171,-2,-1,0,0,0,0,0,-1,0.905273,0.125977,0.0610352,-23.3125,-7.875,-19.4375,0.713238,-1.39263,0.931386
3172,-1,-1,-2,0,0,-2,0,-2,0.875488,0.14502,0.0566406,-25.5,-4.375,-19.125,0.747431,-1.39013,0.888264
3172,0,1,-1,-2,0,-2,-1,-2,0.875488,0.14502,0.0566406,-25.5,-4.375,-19.125,0.747431,-1.39013,0.888264
3184,1,-1,-2,-1,-1,-1,0,0,0.875488,0.14502,0.0566406,-25.5,-4.375,-19.125,0.747431,-1.39013,0.888264
3184,-3,-1,-1,-2,-1,0,0,-1,0.875488,0.14502,0.0566406,-25.5,-4.375,-19.125,0.747431,-1.39013,0.888264
3193,1,-1,0,-2,-1,-2,-3,-2,0.865234,0.157715,0.0649414,-25.4375,-1.8125,-18,0.773925,-1.38574,0.851744
3193,-2,0,-1,-1,-1,0,-3,-1,0.865234,0.157715,0.0649414,-25.4375,-1.8125,-18,0.773925,-1.38574,0.851744
3207,0,-1,-2,-1,-2,-2,-1,-1,0.865234,0.157715,0.0649414,-25.4375,-1.8125,-18,0.773925,-1.38574,0.851744
3207,0,-1,0,-2,0,-2,-2,0,0.865234,0.157715,0.0649414,-25.4375,-1.8125,-18,0.773925,-1.38574,0.851744
3214,-1,-2,-2,1,-3,-2,-1,0,0.898438,0.151367,0.0908203,-20,-1.5,-16.25,0.795461,-1.38226,0.823047
3214,0,-1,-1,0,-1,-2,-1,-2,0.898438,0.151367,0.0908203,-20,-1.5,-16.25,0.795461,-1.38226,0.823047
3230,0,1,-2,0,-2,1,-1,0,0.898438,0.151367,0.0908203,-20,-1.5,-16.25,0.795461,-1.38226,0.823047
3230,-1,-2,-3,-1,-2,0,0,-1,0.898438,0.151367,0.0908203,-20,-1.5,-16.25,0.795461,-1.38226,0.823047
3231,-1,-1,-1,-2,-2,-1,-2,0,0.973633,0.154785,0.103027,-13.4375,-2.5,-14.4375,0.816681,-1.37987,0.79766
3231,-2,-1,-1,0,-1,0,1,2,0.973633,0.154785,0.103027,-13.4375,-2.5,-14.4375,0.816681,-1.37987,0.79766
3244,-3,-1,-1,-2,-1,-1,1,-2,0.973633,0.154785,0.103027,-13.4375,-2.5,-14.4375,0.816681,-1.37987,0.79766
3244,0,-1,-1,0,-2,0,-1,0,0.973633,0.154785,0.103027,-13.4375,-2.5,-14.4375,0.816681,-1.37987,0.79766
3252,0,-2,-1,-1,-1,-1,-1,0,1.03857,0.179199,0.10791,-12.5625,-3.125,-12.1875,0.836029,-1.37717,0.773447
3252,-1,-2,-1,-1,-1,1,0,-2,1.03857,0.179199,0.10791,-12.5625,-3.125,-12.1875,0.836029,-1.37717,0.773447
3267,-1,-1,-1,-2,0,-1,0,-1,1.03857,0.179199,0.10791,-12.5625,-3.125,-12.1875,0.836029,-1.37717,0.773447
3267,1,0,-1,-1,-2,-1,1,-1,1.03857,0.179199,0.10791,-12.5625,-3.125,-12.1875,0.836029,-1.37717,0.773447
3274,-1,3,-1,-2,-1,-1,1,-1,1.06641,0.210938,0.0927734,-17.875,-3.4375,-9.75,0.85404,-1.37505,0.748633
3274,-2,-2,-1,1,-1,0,-1,0,1.06641,0.210938,0.0927734,-17.875,-3.4375,-9.75,0.85404,-1.37505,0.748633
3290,2,-1,0,-1,0,0,-1,0,1.06641,0.210938,0.0927734,-17.875,-3.4375,-9.75,0.85404,-1.37505,0.748633
3290,-1,-1,0,-2,-1,0,0,-1,1.06641,0.210938,0.0927734,-17.875,-3.4375,-9.75,0.85404,-1.37505,0.748633
3292,-4,0,2,-2,-1,0,-2,0,1.02539,0.225098,0.0869141,-24.375,-2.4375,-5.375,0.865092,-1.37338,0.728807
3292,0,-4,-7,-1,-2,-1,-2,0,1.02539,0.225098,0.0869141,-24.375,-2.4375,-5.375,0.865092,-1.37338,0.728807
3313,-2,-2,-6,-1,0,-2,-2,-1,1.02539,0.225098,0.0869141,-24.375,-2.4375,-5.375,0.865092,-1.37338,0.728807
3313,-1,-1,-3,1,0,-2,0,0,1.02539,0.225098,0.0869141,-24.375,-2.4375,-5.375,0.865092,-1.37338,0.728807
3315,1,0,1,0,0,-1,1,0,0.943359,0.211426,0.081543,-20.8125,-2.3125,-1.5,0.872024,-1.37312,0.714909
3315,-3,-1,1,-2,-1,0,-1,-3,0.943359,0.211426,0.081543,-20.8125,-2.3125,-1.5,0.872024,-1.37312,0.714909
3327,0,-1,2,-2,0,-1,-2,-1,0.943359,0.211426,0.081543,-20.8125,-2.3125,-1.5,0.872024,-1.37312,0.714909
3327,1,0,0,0,-1,-1,0,0,0.943359,0.211426,0.081543,-20.8125,-2.3125,-1.5,0.872024,-1.37312,0.714909
3334,2,-3,-6,-1,-1,-1,-1,1,0.881348,0.193848,0.0732422,-13.0625,-2.0625,0.1875,0.878523,-1.37355,0.704676
3334,-1,-1,5,0,0,-2,0,-1,0.881348,0.193848,0.0732422,-13.0625,-2.0625,0.1875,0.878523,-1.37355,0.704676
3350,1,3,2,0,-1,-2,-2,-1,0.881348,0.193848,0.0732422,-13.0625,-2.0625,0.1875,0.878523,-1.37355,0.704676
3350,-4,-6,-10,-2,-2,-1,-2,-2,0.881348,0.193848,0.0732422,-13.0625,-2.0625,0.1875,0.878523,-1.37355,0.704676
3351,-2,0,5,0,1,0,0,-1,0.825684,0.200195,0.0810547,-1.0625,-2.0625,1.125,0.887136,-1.37279,0.69511
3351,0,-5,-19,-2,-1,0,1,0,0.825684,0.200195,0.0810547,-1.0625,-2.0625,1.125,0.887136,-1.37279,0.69511
3373,-4,6,0,0,-1,-2,-3,-2,0.825684,0.200195,0.0810547,-1.0625,-2.0625,1.125,0.887136,-1.37279,0.69511
3373,1,2,0,0,1,-1,-1,0,0.825684,0.200195,0.0810547,-1.0625,-2.0625,1.125,0.887136,-1.37279,0.69511
3374,-2,-5,-2,-1,-2,-3,-2,-2,0.799316,0.206055,0.0957031,7.875,-3.3125,1.1875,0.900068,-1.37269,0.685552
3374,0,4,7,0,0,-1,1,-2,0.799316,0.206055,0.0957031,7.875,-3.3125,1.1875,0.900068,-1.37269,0.685552
3395,-3,-2,5,-2,0,0,-1,1,0.799316,0.206055,0.0957031,7.875,-3.3125,1.1875,0.900068,-1.37269,0.685552
3395,2,0,-7,-3,-2,-2,-1,0,0.799316,0.206055,0.0957031,7.875,-3.3125,1.1875,0.900068,-1.37269,0.685552
3397,-6,-1,-1,2,1,-1,-1,-3,0.793457,0.207031,0.126465,11.4375,-4.125,1.6875,0.91079,-1.37193,0.678573
3397,1,-5,0,0,-1,0,-1,-1,0.793457,0.207031,0.126465,11.4375,-4.125,1.6875,0.91079,-1.37193,0.678573
3410,0,2,2,-1,-2,-1,-1,0,0.793457,0.207031,0.126465,11.4375,-4.125,1.6875,0.91079,-1.37193,0.678573
3410,0,4,4,-2,-1,-2,0,0,0.793457,0.207031,0.126465,11.4375,-4.125,1.6875,0.91079,-1.37193,0.678573
3411,1,-7,-6,-3,-1,0,-1,-1,0.796875,0.19873,0.161621,15.75,-6.125,3.375,0.920029,-1.37192,0.674635
3411,-1,3,0,0,-1,-1,-1,1,0.796875,0.19873,0.161621,15.75,-6.125,3.375,0.920029,-1.37192,0.674635
3433,-2,-5,-1,-1,-1,-2,0,-1,0.796875,0.19873,0.161621,15.75,-6.125,3.375,0.920029,-1.37192,0.674635
3433,-2,-3,-3,-1,0,-1,-1,0,0.796875,0.19873,0.161621,15.75,-6.125,3.375,0.920029,-1.37192,0.674635
3438,1,2,-1,0,-1,-2,1,-1,0.796875,0.200195,0.203613,20.6875,-7.5,4.4375,0.927402,-1.37172,0.674344
3438,0,1,0,-1,-1,-2,-1,-2,0.796875,0.200195,0.203613,20.6875,-7.5,4.4375,0.927402,-1.37172,0.674344
3446,3,-1,-2,-1,1,-1,0,0,0.796875,0.200195,0.203613,20.6875,-7.5,4.4375,0.927402,-1.37172,0.674344
3446,0,0,3,0,0,-2,0,0,0.796875,0.200195,0.203613,20.6875,-7.5,4.4375,0.927402,-1.37172,0.674344
3455,-2,3,2,0,-2,-1,-1,0,0.81543,0.219727,0.217285,24.6875,-7.5625,5,0.936408,-1.37166,0.674141
3455,-1,-1,-1,-1,0,0,-2,0,0.81543,0.219727,0.217285,24.6875,-7.5625,5,0.936408,-1.37166,0.674141
3470,-2,-6,-11,-1,0,-2,0,0,0.81543,0.219727,0.217285,24.6875,-7.5625,5,0.936408,-1.37166,0.674141
3470,-1,-3,0,-1,0,0,0,-1,0.81543,0.219727,0.217285,24.6875,-7.5625,5,0.936408,-1.37166,0.674141
3472,-1,-1,-2,-1,0,0,-1,-2,0.813965,0.223145,0.222656,24.125,-6.6875,6.3125,0.941265,-1.37085,0.676951
3472,0,-1,2,-2,-2,0,0,-2,0.813965,0.223145,0.222656,24.125,-6.6875,6.3125,0.941265,-1.37085,0.676951
3493,-2,-3,-3,0,-2,-1,-1,-3,0.813965,0.223145,0.222656,24.125,-6.6875,6.3125,0.941265,-1.37085,0.676951
3493,-1,2,6,1,-1,-1,-3,-1,0.813965,0.223145,0.222656,24.125,-6.6875,6.3125,0.941265,-1.37085,0.676951
3495,2,9,0,-3,-2,0,-1,1,0.810059,0.217773,0.229004,23.0625,-4.8125,8.9375,0.939623,-1.37095,0.686685
3495,-2,-25,1,0,1,-1,-1,-2,0.810059,0.217773,0.229004,23.0625,-4.8125,8.9375,0.939623,-1.37095,0.686685
3506,-1,4,1,-1,-1,-1,-2,-1,0.810059,0.217773,0.229004,23.0625,-4.8125,8.9375,0.939623,-1.37095,0.686685
3506,0,-7,10,0,-1,-2,0,-1,0.810059,0.217773,0.229004,23.0625,-4.8125,8.9375,0.939623,-1.37095,0.686685
3515,-3,-3,-21,-3,-1,0,-3,-2,0.773926,0.1875,0.233887,26.625,-3.9375,10.375,0.934258,-1.37169,0.701646
3515,-1,6,2,0,-1,-1,0,0,0.773926,0.1875,0.233887,26.625,-3.9375,10.375,0.934258,-1.37169,0.701646
3530,-1,-4,-3,-2,-2,0,-1,-1,0.773926,0.1875,0.233887,26.625,-3.9375,10.375,0.934258,-1.37169,0.701646
3530,-2,0,1,1,0,-1,-1,-2,0.773926,0.1875,0.233887,26.625,-3.9375,10.375,0.934258,-1.37169,0.701646
3531,1,1,5,-1,0,0,-1,-1,0.764648,0.154785,0.233398,28.625,-2.75,11.6875,0.924485,-1.37285,0.721186
3531,-1,1,-1,-1,-1,-1,-1,1,0.764648,0.154785,0.233398,28.625,-2.75,11.6875,0.924485,-1.37285,0.721186
3552,-1,-2,-1,0,-2,1,0,0,0.764648,0.154785,0.233398,28.625,-2.75,11.6875,0.924485,-1.37285,0.721186
3552,3,4,-3,-1,-1,0,-1,1,0.764648,0.154785,0.233398,28.625,-2.75,11.6875,0.924485,-1.37285,0.721186
3554,2,-1,1,0,-2,-1,0,1,0.773438,0.123535,0.235352,35.375,-1.0625,12.9375,0.910374,-1.37468,0.747847
3554,-9,-4,-3,-1,0,-1,-2,-5,0.773438,0.123535,0.235352,35.375,-1.0625,12.9375,0.910374,-1.37468,0.747847
3566,1,1,3,0,-1,-1,0,-1,0.773438,0.123535,0.235352,35.375,-1.0625,12.9375,0.910374,-1.37468,0.747847
3566,-2,-4,-3,-3,-1,1,0,-2,0.773438,0.123535,0.235352,35.375,-1.0625,12.9375,0.910374,-1.37468,0.747847
3575,2,0,1,1,-1,0,0,-1,0.788086,0.116699,0.22168,38.75,1.4375,14.0625,0.893294,-1.37636,0.778368
3575,2,8,2,-2,0,0,-1,-3,0.788086,0.116699,0.22168,38.75,1.4375,14.0625,0.893294,-1.37636,0.778368
3590,-1,-1,-1,-1,-2,3,15,-1,0.788086,0.116699,0.22168,38.75,1.4375,14.0625,0.893294,-1.37636,0.778368
3590,-2,1,-3,-2,-1,-4,-10,-4,0.788086,0.116699,0.22168,38.75,1.4375,14.0625,0.893294,-1.37636,0.778368
3591,1,-10,-3,1,0,-1,-1,0,0.744141,0.125488,0.156738,31.25,7.5625,15.875,0.871083,-1.37766,0.811895
3591,2,11,3,0,-2,-1,-3,2,0.744141,0.125488,0.156738,31.25,7.5625,15.875,0.871083,-1.37766,0.811895
3612,-3,-4,-8,-1,-1,-1,3,2,0.744141,0.125488,0.156738,31.25,7.5625,15.875,0.871083,-1.37766,0.811895
3612,-2,10,4,0,0,2,3,0,0.744141,0.125488,0.156738,31.25,7.5625,15.875,0.871083,-1.37766,0.811895
3619,2,-5,7,-1,-2,-2,-2,-2,0.62207,0.134277,0.074707,16.375,16.3125,18.625,0.83726,-1.37826,0.852539
3619,2,-3,-7,-2,0,-2,2,1,0.62207,0.134277,0.074707,16.375,16.3125,18.625,0.83726,-1.37826,0.852539
3626,-4,12,6,-1,-2,-3,-7,-2,0.62207,0.134277,0.074707,16.375,16.3125,18.625,0.83726,-1.37826,0.852539
3626,2,-9,-3,1,-2,0,2,1,0.62207,0.134277,0.074707,16.375,16.3125,18.625,0.83726,-1.37826,0.852539
3635,-5,12,5,-1,-1,-1,-2,-3,0.500977,0.0966797,0.0493164,12.6875,23.0625,22.625,0.78721,-1.37784,0.907682
3635,6,2,2,1,-1,3,2,1,0.500977,0.0966797,0.0493164,12.6875,23.0625,22.625,0.78721,-1.37784,0.907682
3650,-6,-12,-7,-3,-1,-1,-5,-5,0.500977,0.0966797,0.0493164,12.6875,23.0625,22.625,0.78721,-1.37784,0.907682
3650,-3,19,3,-1,-2,-1,-3,0,0.500977,0.0966797,0.0493164,12.6875,23.0625,22.625,0.78721,-1.37784,0.907682
3651,-1,-44,-8,-1,-2,0,3,0,0.45459,0.0302734,0.0795898,22.9375,27.9375,21.9375,0.728869,-1.3766,0.975543
3651,-1,1,-6,-1,-1,-2,-3,-1,0.45459,0.0302734,0.0795898,22.9375,27.9375,21.9375,0.728869,-1.3766,0.975543
3672,0,5,1,0,0,-2,-3,-1,0.45459,0.0302734,0.0795898,22.9375,27.9375,21.9375,0.728869,-1.3766,0.975543
3672,9,1,1,0,-2,0,2,1,0.45459,0.0302734,0.0795898,22.9375,27.9375,21.9375,0.728869,-1.3766,0.975543
3675,-5,10,-8,-1,-1,-1,5,-4,0.515137,-0.0483398,0.135742,38.3125,27.625,14.875,0.675754,-1.3732,1.04257
3675,-6,-9,-5,-1,-2,-3,-17,0,0.515137,-0.0483398,0.135742,38.3125,27.625,14.875,0.675754,-1.3732,1.04257
3687,4,6,6,0,1,-2,-3,2,0.515137,-0.0483398,0.135742,38.3125,27.625,14.875,0.675754,-1.3732,1.04257
3687,-16,-9,-8,0,2,-1,4,-4,0.515137,-0.0483398,0.135742,38.3125,27.625,14.875,0.675754,-1.3732,1.04257
3696,12,-4,-1,3,1,0,-11,2,0.612793,-0.108887,0.166992,40.625,27.25,7.625,0.628069,-1.36892,1.10505
3696,2,79,5,0,0,-1,5,-2,0.612793,-0.108887,0.166992,40.625,27.25,7.625,0.628069,-1.36892,1.10505
3710,-12,-45,-9,-8,-5,-2,-4,-6,0.612793,-0.108887,0.166992,40.625,27.25,7.625,0.628069,-1.36892,1.10505
3710,9,-17,-5,-1,-1,-2,-6,0,0.612793,-0.108887,0.166992,40.625,27.25,7.625,0.628069,-1.36892,1.10505
3712,3,-7,-4,-3,-1,0,7,2,0.662109,-0.103027,0.201172,48.25,25.125,7.375,0.586892,-1.36368,1.16297
3712,-3,-2,1,2,1,-1,3,1,0.662109,-0.103027,0.201172,48.25,25.125,7.375,0.586892,-1.36368,1.16297
3733,4,4,-4,-2,-2,-1,-4,-1,0.662109,-0.103027,0.201172,48.25,25.125,7.375,0.586892,-1.36368,1.16297
3733,-6,0,-3,-1,0,2,-2,-2,0.662109,-0.103027,0.201172,48.25,25.125,7.375,0.586892,-1.36368,1.16297
3734,-7,-6,0,-3,-1,-3,-2,4,0.763672,-0.0893555,0.186523,54.0625,22.25,2.1875,0.561819,-1.35897,1.20695
3734,7,-24,-2,-1,-2,0,13,-4,0.763672,-0.0893555,0.186523,54.0625,22.25,2.1875,0.561819,-1.35897,1.20695
3746,-6,11,4,1,-1,-2,-4,-2,0.763672,-0.0893555,0.186523,54.0625,22.25,2.1875,0.561819,-1.35897,1.20695
3746,-4,-5,-3,-3,-1,-3,-7,-2,0.763672,-0.0893555,0.186523,54.0625,22.25,2.1875,0.561819,-1.35897,1.20695
3763,1,30,0,-1,-2,0,-1,-3,0.897461,-0.0410156,0.17334,50.25,19.8125,-4.625,0.55425,-1.3541,1.23224
3763,-1,-18,5,-2,-1,-2,-2,2,0.897461,-0.0410156,0.17334,50.25,19.8125,-4.625,0.55425,-1.3541,1.23224
3770,0,-2,1,3,1,0,-3,0,0.897461,-0.0410156,0.17334,50.25,19.8125,-4.625,0.55425,-1.3541,1.23224
3770,5,45,8,0,-2,-2,6,0,0.897461,-0.0410156,0.17334,50.25,19.8125,-4.625,0.55425,-1.3541,1.23224
3772,-6,-41,3,-6,-4,-4,-5,-1,1.0127,0.0605469,0.121094,28.4375,20.1875,-11.375,0.561178,-1.34859,1.23569
3772,2,-33,-18,-6,-3,-2,8,-5,1.0127,0.0605469,0.121094,28.4375,20.1875,-11.375,0.561178,-1.34859,1.23569
3793,6,58,19,5,2,0,-21,0,1.0127,0.0605469,0.121094,28.4375,20.1875,-11.375,0.561178,-1.34859,1.23569
3793,-12,-44,-6,-7,-5,-5,-8,-8,1.0127,0.0605469,0.121094,28.4375,20.1875,-11.375,0.561178,-1.34859,1.23569
3794,-3,29,0,2,-1,0,4,-3,1.09131,0.104492,0.0878906,10.125,20.125,-16.625,0.574133,-1.34218,1.22589
3794,-2,-4,3,-1,-2,-1,-8,0,1.09131,0.104492,0.0878906,10.125,20.125,-16.625,0.574133,-1.34218,1.22589
3806,6,13,-5,1,3,0,11,3,1.09131,0.104492,0.0878906,10.125,20.125,-16.625,0.574133,-1.34218,1.22589
3806,-4,-15,-5,1,0,0,0,-4,1.09131,0.104492,0.0878906,10.125,20.125,-16.625,0.574133,-1.34218,1.22589
3816,1,14,5,1,-1,-1,-10,-4,1.12891,0.0825195,-0.0151367,-15.5625,26.6875,-16.625,0.575618,-1.33697,1.21924
3816,-6,-9,-5,-2,-1,-1,-1,-2,1.12891,0.0825195,-0.0151367,-15.5625,26.6875,-16.625,0.575618,-1.33697,1.21924
3830,-1,-16,-7,-2,-2,-1,2,-2,1.12891,0.0825195,-0.0151367,-15.5625,26.6875,-16.625,0.575618,-1.33697,1.21924
3830,10,15,1,0,0,0,4,4,1.12891,0.0825195,-0.0151367,-15.5625,26.6875,-16.625,0.575618,-1.33697,1.21924
3832,-7,-20,-4,0,-1,0,-6,1,1.14795,0.0942383,-0.0488281,-21.625,34.875,-15.8125,0.571306,-1.33034,1.2168
3832,3,7,3,0,1,1,2,6,1.14795,0.0942383,-0.0488281,-21.625,34.875,-15.8125,0.571306,-1.33034,1.2168
3853,5,-12,-2,-2,-2,-1,7,11,1.14795,0.0942383,-0.0488281,-21.625,34.875,-15.8125,0.571306,-1.33034,1.2168
3853,-11,-7,-2,-2,-1,-1,-8,-15,1.14795,0.0942383,-0.0488281,-21.625,34.875,-15.8125,0.571306,-1.33034,1.2168
3854,-19,20,3,2,2,-1,2,8,1.24951,0.0727539,-0.00195312,-15.625,39.625,-16.4375,0.561497,-1.32214,1.2214
3854,-7,-7,-3,-3,-4,-3,-6,-16,1.24951,0.0727539,-0.00195312,-15.625,39.625,-16.4375,0.561497,-1.32214,1.2214
3867,-5,-11,-7,-3,-2,-1,2,-4,1.24951,0.0727539,-0.00195312,-15.625,39.625,-16.4375,0.561497,-1.32214,1.2214
3867,8,-3,-7,0,-1,-2,0,1,1.24951,0.0727539,-0.00195312,-15.625,39.625,-16.4375,0.561497,-1.32214,1.2214
3876,-7,3,-2,-2,-1,0,7,7,1.36035,0.0683594,0.00390625,-9.5,45.25,-18.1875,0.552377,-1.31303,1.22787
3876,5,7,4,2,1,0,-1,10,1.36035,0.0683594,0.00390625,-9.5,45.25,-18.1875,0.552377,-1.31303,1.22787
3890,28,-10,5,1,1,2,2,-4,1.36035,0.0683594,0.00390625,-9.5,45.25,-18.1875,0.552377,-1.31303,1.22787
3890,-18,-7,-11,2,0,0,4,-6,1.36035,0.0683594,0.00390625,-9.5,45.25,-18.1875,0.552377,-1.31303,1.22787
3892,-9,6,-2,-4,-4,-4,-5,-6,1.43652,0.147949,-0.0307617,2.5,49.6875,-16.5,0.551246,-1.3036,1.23121
3892,-17,-27,-6,-1,-1,-1,-4,-4,1.43652,0.147949,-0.0307617,2.5,49.6875,-16.5,0.551246,-1.3036,1.23121
3912,3,12,4,-3,-3,-1,-2,-1,1.43652,0.147949,-0.0307617,2.5,49.6875,-16.5,0.551246,-1.3036,1.23121
3912,2,4,15,1,2,1,4,7,1.43652,0.147949,-0.0307617,2.5,49.6875,-16.5,0.551246,-1.3036,1.23121
3914,12,-14,0,-1,-1,1,0,-6,1.44092,0.208008,-0.0512695,2.125,50.25,-12.0625,0.550722,-1.29457,1.23383
3914,-7,17,-17,-2,-1,-3,-4,-2,1.44092,0.208008,-0.0512695,2.125,50.25,-12.0625,0.550722,-1.29457,1.23383
3926,-14,-7,-3,-6,-5,-2,0,6,1.44092,0.208008,-0.0512695,2.125,50.25,-12.0625,0.550722,-1.29457,1.23383
3926,3,-7,-34,1,0,1,2,7,1.44092,0.208008,-0.0512695,2.125,50.25,-12.0625,0.550722,-1.29457,1.23383
3935,4,-43,-3,-2,-1,-1,1,-1,1.35156,0.25,-0.0224609,-12.3125,45.5625,-4.875,0.54311,-1.28663,1.23858
3935,4,-4,2,-1,-2,-2,-5,-10,1.35156,0.25,-0.0224609,-12.3125,45.5625,-4.875,0.54311,-1.28663,1.23858
3951,-5,-3,10,1,-2,2,1,-3,1.35156,0.25,-0.0224609,-12.3125,45.5625,-4.875,0.54311,-1.28663,1.23858
3951,-4,-8,4,-4,-3,-3,-2,4,1.35156,0.25,-0.0224609,-12.3125,45.5625,-4.875,0.54311,-1.28663,1.23858
3951,9,47,1,0,-1,0,-2,-1,1.25879,0.175781,0.00341797,-21.75,40.75,-3.9375,0.528195,-1.28042,1.24751
3951,-2,5,4,0,0,0,0,-5,1.25879,0.175781,0.00341797,-21.75,40.75,-3.9375,0.528195,-1.28042,1.24751
3972,-9,-7,-9,-2,0,-5,-2,2,1.25879,0.175781,0.00341797,-21.75,40.75,-3.9375,0.528195,-1.28042,1.24751
3972,6,-8,5,-2,-3,-1,0,1,1.25879,0.175781,0.00341797,-21.75,40.75,-3.9375,0.528195,-1.28042,1.24751
3974,-2,9,2,2,3,0,0,-3,1.25244,0.0595703,0.081543,-20.625,36.5625,8.4375,0.493093,-1.27749,1.27699
3974,1,-1,10,-1,0,-1,0,1,1.25244,0.0595703,0.081543,-20.625,36.5625,8.4375,0.493093,-1.27749,1.27699
3986,-4,-4,-3,1,-1,0,0,-1,1.25244,0.0595703,0.081543,-20.625,36.5625,8.4375,0.493093,-1.27749,1.27699
3986,3,9,-5,0,2,0,0,2,1.25244,0.0595703,0.081543,-20.625,36.5625,8.4375,0.493093,-1.27749,1.27699
3995,8,-2,-1,0,-2,-2,0,8,1.31348,0.0205078,0.160156,-7.0625,34.1875,12.25,0.45585,-1.27461,1.3129
3995,-3,-1,-6,-7,-6,-2,-2,-10,1.31348,0.0205078,0.160156,-7.0625,34.1875,12.25,0.45585,-1.27461,1.3129
4010,-3,-7,-9,-5,0,2,-1,-3,1.31348,0.0205078,0.160156,-7.0625,34.1875,12.25,0.45585,-1.27461,1.3129
4010,-1,0,2,0,-1,-2,-1,-4,1.31348,0.0205078,0.160156,-7.0625,34.1875,12.25,0.45585,-1.27461,1.3129
4012,0,5,8,6,1,2,1,-6,1.27002,0.0214844,0.28125,4.8125,35.5625,15.375,0.416946,-1.26852,1.35427
4012,1,-5,-4,4,2,-1,-1,16,1.27002,0.0214844,0.28125,4.8125,35.5625,15.375,0.416946,-1.26852,1.35427
4031,-3,0,-1,3,0,-2,1,-3,1.27002,0.0214844,0.28125,4.8125,35.5625,15.375,0.416946,-1.26852,1.35427
4031,-3,3,5,-7,-4,-3,-2,-1,1.27002,0.0214844,0.28125,4.8125,35.5625,15.375,0.416946,-1.26852,1.35427
4040,0,-1,-6,-5,-1,1,2,-1,1.20654,0.0571289,0.32666,18.4375,29.75,15.625,0.388766,-1.26284,1.39054
4040,-1,5,1,-2,0,0,-1,-8,1.20654,0.0571289,0.32666,18.4375,29.75,15.625,0.388766,-1.26284,1.39054
4046,1,-5,-3,2,0,-1,-4,-4,1.20654,0.0571289,0.32666,18.4375,29.75,15.625,0.388766,-1.26284,1.39054
4046,2,2,1,0,1,1,1,2,1.20654,0.0571289,0.32666,18.4375,29.75,15.625,0.388766,-1.26284,1.39054
4055,-1,-10,-2,-1,-3,-3,0,-2,1.19043,0.109863,0.361816,2.5625,24.8125,10.0625,0.367471,-1.25624,1.41358
4055,1,-1,4,0,-2,0,1,5,1.19043,0.109863,0.361816,2.5625,24.8125,10.0625,0.367471,-1.25624,1.41358
4069,1,0,-6,-4,-3,-2,-1,0,1.19043,0.109863,0.361816,2.5625,24.8125,10.0625,0.367471,-1.25624,1.41358
4069,0,1,1,-2,1,-1,-2,-4,1.19043,0.109863,0.361816,2.5625,24.8125,10.0625,0.367471,-1.25624,1.41358
4077,-8,2,0,0,-1,-1,-2,-2,1.11523,0.17627,0.397461,-14.125,16.9375,5.875,0.352164,-1.24977,1.42443
4077,2,6,4,0,-2,-1,-2,-1,1.11523,0.17627,0.397461,-14.125,16.9375,5.875,0.352164,-1.24977,1.42443
4092,8,0,-6,2,0,3,2,3,1.11523,0.17627,0.397461,-14.125,16.9375,5.875,0.352164,-1.24977,1.42443
4092,0,2,1,-2,-4,-2,1,10,1.11523,0.17627,0.397461,-14.125,16.9375,5.875,0.352164,-1.24977,1.42443
4094,-10,-8,-3,-4,-1,-4,-8,-40,1.03809,0.163574,0.429199,-25.9375,10.75,1.75,0.33877,-1.24416,1.42958
4094,6,0,0,0,0,1,1,2,1.03809,0.163574,0.429199,-25.9375,10.75,1.75,0.33877,-1.24416,1.42958
4106,-3,-1,2,0,0,1,0,1,1.03809,0.163574,0.429199,-25.9375,10.75,1.75,0.33877,-1.24416,1.42958
4106,1,-1,1,1,1,1,-1,2,1.03809,0.163574,0.429199,-25.9375,10.75,1.75,0.33877,-1.24416,1.42958
4115,4,-3,-4,-1,-1,-1,-2,9,0.994629,0.110352,0.460449,-37.4375,3.5,1.3125,0.319847,-1.24001,1.43521
4115,-12,-3,0,-2,0,0,3,4,0.994629,0.110352,0.460449,-37.4375,3.5,1.3125,0.319847,-1.24001,1.43521
4129,-1,-4,-1,-2,-2,-1,2,5,0.994629,0.110352,0.460449,-37.4375,3.5,1.3125,0.319847,-1.24001,1.43521
4129,0,-2,-3,-1,-2,-3,-7,-26,0.994629,0.110352,0.460449,-37.4375,3.5,1.3125,0.319847,-1.24001,1.43521
4136,-16,-1,0,-1,-2,-1,-2,1,0.978027,0.0556641,0.44043,-38.8125,0.0625,0.25,0.300198,-1.23762,1.44089
4136,9,2,1,1,0,-1,-2,2,0.978027,0.0556641,0.44043,-38.8125,0.0625,0.25,0.300198,-1.23762,1.44089
4152,-11,-3,2,-1,-1,-2,-1,-1,0.978027,0.0556641,0.44043,-38.8125,0.0625,0.25,0.300198,-1.23762,1.44089
4152,3,4,3,0,-2,0,3,3,0.978027,0.0556641,0.44043,-38.8125,0.0625,0.25,0.300198,-1.23762,1.44089
4154,-1,-2,-5,-2,-3,-4,-2,-2,0.939453,0.0458984,0.401367,-33.125,-1.875,-3.9375,0.287994,-1.23616,1.44106
4154,-2,-3,-3,0,-1,0,-1,2,0.939453,0.0458984,0.401367,-33.125,-1.875,-3.9375,0.287994,-1.23616,1.44106
4166,-1,2,0,-2,0,-1,-2,-5,0.939453,0.0458984,0.401367,-33.125,-1.875,-3.9375,0.287994,-1.23616,1.44106
4166,2,11,20,-1,-1,0,-1,6,0.939453,0.0458984,0.401367,-33.125,-1.875,-3.9375,0.287994,-1.23616,1.44106
4175,-5,-12,-22,1,-1,-1,-3,-4,0.90625,0.078125,0.402832,-22.25,-4.125,-6.3125,0.284351,-1.23462,1.43614
4175,-3,-2,-6,0,0,0,6,21,0.90625,0.078125,0.402832,-22.25,-4.125,-6.3125,0.284351,-1.23462,1.43614
4190,5,2,-3,-1,-3,-2,-6,-9,0.90625,0.078125,0.402832,-22.25,-4.125,-6.3125,0.284351,-1.23462,1.43614
4190,-1,-9,-6,-3,-3,0,12,5,0.90625,0.078125,0.402832,-22.25,-4.125,-6.3125,0.284351,-1.23462,1.43614
4197,9,2,8,-2,-4,-4,-24,3,0.868652,0.0820312,0.424805,-12.125,-7.375,-5.9375,0.284866,-1.23361,1.43089
4197,-3,2,0,-5,-2,-6,-1,-12,0.868652,0.0820312,0.424805,-12.125,-7.375,-5.9375,0.284866,-1.23361,1.43089
4213,3,1,1,3,2,-1,-2,6,0.868652,0.0820312,0.424805,-12.125,-7.375,-5.9375,0.284866,-1.23361,1.43089
4213,-18,1,-1,-5,-3,-3,-5,-44,0.868652,0.0820312,0.424805,-12.125,-7.375,-5.9375,0.284866,-1.23361,1.43089
4214,1,-2,2,0,7,4,8,27,0.870117,0.0366211,0.37793,-11.4375,-9.0625,-4.0625,0.282264,-1.23475,1.42904
4214,7,-2,-1,4,2,1,-5,5,0.870117,0.0366211,0.37793,-11.4375,-9.0625,-4.0625,0.282264,-1.23475,1.42904
4227,-4,-1,-1,-5,-3,-4,-1,-1,0.870117,0.0366211,0.37793,-11.4375,-9.0625,-4.0625,0.282264,-1.23475,1.42904
4227,2,4,8,4,4,1,-1,12,0.870117,0.0366211,0.37793,-11.4375,-9.0625,-4.0625,0.282264,-1.23475,1.42904
4236,-1,-19,-31,-7,-3,1,5,-9,0.871582,0.112793,0.358398,-2.3125,-10,-8.375,0.292606,-1.23561,1.41737
4236,-1,2,1,-2,-2,-2,-5,-3,0.871582,0.112793,0.358398,-2.3125,-10,-8.375,0.292606,-1.23561,1.41737
4250,37,7,3,1,1,3,13,36,0.871582,0.112793,0.358398,-2.3125,-10,-8.375,0.292606,-1.23561,1.41737
4250,4,-4,-7,3,2,5,2,-12,0.871582,0.112793,0.358398,-2.3125,-10,-8.375,0.292606,-1.23561,1.41737
4257,-24,2,7,-3,0,4,6,-6,0.879883,0.162598,0.375,-3.9375,-7.5,-17.125,0.312465,-1.23399,1.3951
4257,-16,-4,0,-2,-5,-14,-24,-49,0.879883,0.162598,0.375,-3.9375,-7.5,-17.125,0.312465,-1.23399,1.3951
4272,-23,-1,4,-5,-4,-9,-10,-12,0.879883,0.162598,0.375,-3.9375,-7.5,-17.125,0.312465,-1.23399,1.3951
4272,11,2,-3,2,1,0,-1,7,0.879883,0.162598,0.375,-3.9375,-7.5,-17.125,0.312465,-1.23399,1.3951
4274,33,11,7,3,2,4,9,14,0.887207,0.0878906,0.354004,-22.3125,-0.625,-8.5625,0.31112,-1.23192,1.38796
4274,12,-13,-10,-4,2,5,25,19,0.887207,0.0878906,0.354004,-22.3125,-0.625,-8.5625,0.31112,-1.23192,1.38796
4298,-51,-19,-2,-2,0,-3,-11,-54,0.887207,0.0878906,0.354004,-22.3125,-0.625,-8.5625,0.31112,-1.23192,1.38796
4298,-4,-2,0,1,0,-1,-27,-9,0.887207,0.0878906,0.354004,-22.3125,-0.625,-8.5625,0.31112,-1.23192,1.38796
4298,8,7,5,-2,-8,-3,1,3,0.931152,0.0571289,0.386719,-33.5,4.125,-1.0625,0.295203,-1.22929,1.39214
4298,14,4,2,-1,-2,5,20,15,0.931152,0.0571289,0.386719,-33.5,4.125,-1.0625,0.295203,-1.22929,1.39214
4309,19,10,0,1,-1,-5,-27,-3,0.931152,0.0571289,0.386719,-33.5,4.125,-1.0625,0.295203,-1.22929,1.39214
4309,13,0,-8,-9,-5,-6,18,23,0.931152,0.0571289,0.386719,-33.5,4.125,-1.0625,0.295203,-1.22929,1.39214
4315,-35,-10,-9,-4,-4,-7,-16,-23,0.786621,-0.0356445,0.371582,-15.3125,1.6875,6.375,0.273452,-1.22769,1.40821
4315,3,6,10,7,-2,2,2,-1,0.786621,-0.0356445,0.371582,-15.3125,1.6875,6.375,0.273452,-1.22769,1.40821
4332,-11,-5,-3,5,10,19,21,8,0.786621,-0.0356445,0.371582,-15.3125,1.6875,6.375,0.273452,-1.22769,1.40821
4332,1,-5,-5,2,-3,-5,-6,15,0.786621,-0.0356445,0.371582,-15.3125,1.6875,6.375,0.273452,-1.22769,1.40821
4335,3,8,7,-4,-5,-6,-2,-42,0.792969,0.074707,0.353516,9.6875,-12.1875,1.125,0.27704,-1.2299,1.40763
4335,4,-2,-5,-9,-8,-6,-8,17,0.792969,0.074707,0.353516,9.6875,-12.1875,1.125,0.27704,-1.2299,1.40763
4356,-19,-10,-12,-8,-6,-5,11,-2,0.792969,0.074707,0.353516,9.6875,-12.1875,1.125,0.27704,-1.2299,1.40763
4356,8,6,10,10,11,14,27,16,0.792969,0.074707,0.353516,9.6875,-12.1875,1.125,0.27704,-1.2299,1.40763
4357,5,-4,6,4,8,37,23,14,0.987305,0.247559,0.334961,14.75,-17.8125,-18.625,0.314861,-1.23318,1.37457
4357,-19,2,-2,-5,-12,-45,-57,-19,0.987305,0.247559,0.334961,14.75,-17.8125,-18.625,0.314861,-1.23318,1.37457
4368,10,-2,-5,2,2,-16,-9,18,0.987305,0.247559,0.334961,14.75,-17.8125,-18.625,0.314861,-1.23318,1.37457
4368,-12,-13,-17,-7,-4,2,-3,-1,0.987305,0.247559,0.334961,14.75,-17.8125,-18.625,0.314861,-1.23318,1.37457
4378,-27,-12,-9,-6,-4,12,14,4,1.10498,0.224121,0.39209,-12.25,-10.1875,-12.75,0.331975,-1.23361,1.35234
4378,-19,0,8,4,11,20,23,-16,1.10498,0.224121,0.39209,-12.25,-10.1875,-12.75,0.331975,-1.23361,1.35234
4392,13,-5,-3,-5,-7,-8,-39,-2,1.10498,0.224121,0.39209,-12.25,-10.1875,-12.75,0.331975,-1.23361,1.35234
4392,-10,-1,2,1,5,11,16,-16,1.10498,0.224121,0.39209,-12.25,-10.1875,-12.75,0.331975,-1.23361,1.35234
4394,12,3,4,-5,-8,-11,-19,33,1.21387,0.224121,0.381348,-45.6875,-1.5,-14.625,0.336846,-1.23239,1.33122
4394,23,4,-2,-1,-1,16,31,17,1.21387,0.224121,0.381348,-45.6875,-1.5,-14.625,0.336846,-1.23239,1.33122
4415,-23,-6,-1,1,-2,-18,-33,-28,1.21387,0.224121,0.381348,-45.6875,-1.5,-14.625,0.336846,-1.23239,1.33122
4415,-8,-10,-2,-1,-3,-1,-13,-4,1.21387,0.224121,0.381348,-45.6875,-1.5,-14.625,0.336846,-1.23239,1.33122
4417,4,2,0,3,2,-12,-1,2,1.08789,-0.151855,0.490723,-36.875,9.3125,3.625,0.296076,-1.22885,1.35815
4417,14,3,-2,0,2,5,-2,2,1.08789,-0.151855,0.490723,-36.875,9.3125,3.625,0.296076,-1.22885,1.35815
4428,15,5,-1,1,2,12,14,21,1.08789,-0.151855,0.490723,-36.875,9.3125,3.625,0.296076,-1.22885,1.35815
4428,5,-1,-2,-9,-7,-3,-1,10,1.08789,-0.151855,0.490723,-36.875,9.3125,3.625,0.296076,-1.22885,1.35815
4437,-13,-2,-8,-8,-3,-1,-4,-10,1.00732,-0.275391,0.560059,17.875,2.875,20.25,0.252269,-1.22736,1.40775
4437,15,14,19,6,8,18,21,-12,1.00732,-0.275391,0.560059,17.875,2.875,20.25,0.252269,-1.22736,1.40775
4452,-21,-15,-17,2,-7,-13,-2,25,1.00732,-0.275391,0.560059,17.875,2.875,20.25,0.252269,-1.22736,1.40775
4452,7,3,-5,-5,-10,-24,-22,-2,1.00732,-0.275391,0.560059,17.875,2.875,20.25,0.252269,-1.22736,1.40775
4455,21,2,5,5,3,-2,1,-8,0.973145,-0.0517578,0.477051,50.8125,0.0625,24.6875,0.234787,-1.22703,1.44357
4455,-28,-21,-11,-1,1,-4,-10,11,0.973145,-0.0517578,0.477051,50.8125,0.0625,24.6875,0.234787,-1.22703,1.44357
4475,21,27,7,-2,12,40,39,41,0.973145,-0.0517578,0.477051,50.8125,0.0625,24.6875,0.234787,-1.22703,1.44357
4475,-28,-4,19,-9,-18,-12,-11,23,0.973145,-0.0517578,0.477051,50.8125,0.0625,24.6875,0.234787,-1.22703,1.44357
4477,-10,-24,-29,0,-2,-14,-13,-69,0.993652,0.0332031,0.470215,60.8125,-2.75,37.25,0.215987,-1.22858,1.48593
4477,-23,29,-15,-5,2,-5,-18,-22,0.993652,0.0332031,0.470215,60.8125,-2.75,37.25,0.215987,-1.22858,1.48593
4489,6,-15,17,14,0,11,13,-6,0.993652,0.0332031,0.470215,60.8125,-2.75,37.25,0.215987,-1.22858,1.48593
4489,-3,3,32,-7,-10,-19,-10,14,0.993652,0.0332031,0.470215,60.8125,-2.75,37.25,0.215987,-1.22858,1.48593
4504,31,20,-26,-2,3,8,9,35,0.973145,0.0102539,0.401855,57.375,-14.5625,36,0.199013,-1.23478,1.52443
4504,-28,-16,58,-19,-23,-18,8,-29,0.973145,0.0102539,0.401855,57.375,-14.5625,36,0.199013,-1.23478,1.52443
4512,-7,-18,-104,7,12,11,-26,-23,0.973145,0.0102539,0.401855,57.375,-14.5625,36,0.199013,-1.23478,1.52443
4512,-1,14,-8,5,9,4,-7,-23,0.973145,0.0102539,0.401855,57.375,-14.5625,36,0.199013,-1.23478,1.52443
4514,16,23,97,-5,-15,-17,5,61,1.13135,0.0571289,0.305664,47.0625,-17.75,33,0.185637,-1.24452,1.5557
4514,32,2,-108,-36,-13,-18,-43,11,1.13135,0.0571289,0.305664,47.0625,-17.75,33,0.185637,-1.24452,1.5557
4535,-14,6,57,4,-7,2,28,-1,1.13135,0.0571289,0.305664,47.0625,-17.75,33,0.185637,-1.24452,1.5557
4535,-17,-11,60,49,17,10,4,-36,1.13135,0.0571289,0.305664,47.0625,-17.75,33,0.185637,-1.24452,1.5557
4537,2,-5,19,17,10,3,3,19,1.04248,0.124023,0.161133,35.5625,-19.9375,28.5,0.179913,-1.25666,1.57547
4537,23,-16,-18,-22,-8,11,10,19,1.04248,0.124023,0.161133,35.5625,-19.9375,28.5,0.179913,-1.25666,1.57547
4549,16,-6,-10,-37,-12,-3,18,-9,1.04248,0.124023,0.161133,35.5625,-19.9375,28.5,0.179913,-1.25666,1.57547
4549,10,15,-52,-37,-25,-30,-49,-15,1.04248,0.124023,0.161133,35.5625,-19.9375,28.5,0.179913,-1.25666,1.57547
4557,24,6,78,20,20,6,10,-13,1.10645,0.0454102,0.0581055,12.75,-28.5,25.5625,0.164748,-1.27454,1.59645
4557,26,-4,4,76,34,9,-7,-11,1.10645,0.0454102,0.0581055,12.75,-28.5,25.5625,0.164748,-1.27454,1.59645
4573,99,5,31,25,13,31,54,49,1.10645,0.0454102,0.0581055,12.75,-28.5,25.5625,0.164748,-1.27454,1.59645
4573,-11,-29,-35,-18,-8,0,17,-31,1.10645,0.0454102,0.0581055,12.75,-28.5,25.5625,0.164748,-1.27454,1.59645
4574,32,-14,-65,-75,-47,-29,-52,-46,1.36475,0.0722656,0.0805664,-3,-24.875,12.875,0.15856,-1.29118,1.60252
4574,16,-4,10,-29,-34,-22,-14,-32,1.36475,0.0722656,0.0805664,-3,-24.875,12.875,0.15856,-1.29118,1.60252
4595,-3,3,38,44,23,-23,-29,-22,1.36475,0.0722656,0.0805664,-3,-24.875,12.875,0.15856,-1.29118,1.60252
4595,25,9,40,50,32,15,21,52,1.36475,0.0722656,0.0805664,-3,-24.875,12.875,0.15856,-1.29118,1.60252
4597,1,3,-11,6,19,29,18,-3,1.0708,0.0463867,0.125977,-10.9375,-13.6875,20.3125,0.135314,-1.30087,1.62291
4597,-8,-7,-10,-83,-40,-11,3,4,1.0708,0.0463867,0.125977,-10.9375,-13.6875,20.3125,0.135314,-1.30087,1.62291
4609,-1,-16,-103,-78,-48,-7,-1,-8,1.0708,0.0463867,0.125977,-10.9375,-13.6875,20.3125,0.135314,-1.30087,1.62291
4609,-2,11,66,71,44,15,23,-25,1.0708,0.0463867,0.125977,-10.9375,-13.6875,20.3125,0.135314,-1.30087,1.62291
4618,-30,9,80,116,55,8,-2,1,1.13379,0.26123,0.0112305,-13,0.1875,11.6875,0.139687,-1.30749,1.6154
4618,6,-4,-12,32,0,1,-2,33,1.13379,0.26123,0.0112305,-13,0.1875,11.6875,0.139687,-1.30749,1.6154
4632,-49,0,0,-35,-28,-13,-25,-73,1.13379,0.26123,0.0112305,-13,0.1875,11.6875,0.139687,-1.30749,1.6154
4632,-28,-19,-73,-76,-26,2,4,52,1.13379,0.26123,0.0112305,-13,0.1875,11.6875,0.139687,-1.30749,1.6154
4639,-63,-13,-69,-41,-18,5,11,-37,1.20654,0.446777,-0.213867,-14.0625,23.75,5.4375,0.167947,-1.31034,1.58385
4639,-34,8,76,1,9,7,9,39,1.20654,0.446777,-0.213867,-14.0625,23.75,5.4375,0.167947,-1.31034,1.58385
4655,-27,12,-30,5,7,-17,-12,0,1.20654,0.446777,-0.213867,-14.0625,23.75,5.4375,0.167947,-1.31034,1.58385
4655,-10,-8,20,23,21,14,20,-21,1.20654,0.446777,-0.213867,-14.0625,23.75,5.4375,0.167947,-1.31034,1.58385
4657,-45,-6,14,9,-8,-10,-14,9,1.3208,0.494629,-0.223633,-26.1875,34.9375,5.5,0.193359,-1.31034,1.55172
4657,-27,-10,-7,3,-2,-3,1,-1,1.3208,0.494629,-0.223633,-26.1875,34.9375,5.5,0.193359,-1.31034,1.55172
4669,-14,1,5,18,13,0,1,15,1.3208,0.494629,-0.223633,-26.1875,34.9375,5.5,0.193359,-1.31034,1.55172
4669,-17,19,57,11,5,9,0,-24,1.3208,0.494629,-0.223633,-26.1875,34.9375,5.5,0.193359,-1.31034,1.55172
4677,17,2,-49,7,8,4,19,40,1.23828,0.195801,0.0908203,-23.875,47.125,5.1875,0.18385,-1.29996,1.55433
4677,-24,-19,5,-3,-15,-3,-17,-15,1.23828,0.195801,0.0908203,-23.875,47.125,5.1875,0.18385,-1.29996,1.55433
4692,-15,-17,-33,-46,-12,-5,-8,15,1.23828,0.195801,0.0908203,-23.875,47.125,5.1875,0.18385,-1.29996,1.55433
4692,-1,8,-51,-48,-17,-1,-3,14,1.23828,0.195801,0.0908203,-23.875,47.125,5.1875,0.18385,-1.29996,1.55433
4694,17,-4,9,38,17,9,18,43,1.09521,-0.046875,0.364258,-10.25,53.875,11.5625,0.146675,-1.28112,1.58821
4694,-13,37,58,56,31,-6,-17,-74,1.09521,-0.046875,0.364258,-10.25,53.875,11.5625,0.146675,-1.28112,1.58821
4715,-10,-22,75,34,16,-2,11,19,1.09521,-0.046875,0.364258,-10.25,53.875,11.5625,0.146675,-1.28112,1.58821
4715,-39,-24,-80,-36,-38,1,0,-13,1.09521,-0.046875,0.364258,-10.25,53.875,11.5625,0.146675,-1.28112,1.58821
4717,-55,-19,-78,-82,-34,-18,-4,-47,1.06738,-0.203613,0.470215,-5.125,57.25,9.8125,0.10462,-1.2595,1.62867
4717,-28,-11,-15,19,21,14,12,28,1.06738,-0.203613,0.470215,-5.125,57.25,9.8125,0.10462,-1.2595,1.62867
4729,-17,19,32,2,-10,-6,-9,15,1.06738,-0.203613,0.470215,-5.125,57.25,9.8125,0.10462,-1.2595,1.62867
4729,2,-3,10,5,-3,-9,2,-20,1.06738,-0.203613,0.470215,-5.125,57.25,9.8125,0.10462,-1.2595,1.62867
4738,8,0,-7,0,9,8,4,17,1.0498,-0.248535,0.479492,-1.5,54.4375,10.75,0.0660146,-1.23884,1.66652
4738,11,5,10,32,10,1,11,6,1.0498,-0.248535,0.479492,-1.5,54.4375,10.75,0.0660146,-1.23884,1.66652
4753,5,4,-18,-6,7,5,6,-33,1.0498,-0.248535,0.479492,-1.5,54.4375,10.75,0.0660146,-1.23884,1.66652
4753,53,-1,22,-3,-3,18,35,64,1.0498,-0.248535,0.479492,-1.5,54.4375,10.75,0.0660146,-1.23884,1.66652
4754,-27,5,34,-28,-48,-73,-79,-47,1,-0.172852,0.385254,-10.8125,49.125,10.75,0.0355564,-1.22156,1.69335
4754,11,0,-24,2,23,7,22,-5,1,-0.172852,0.385254,-10.8125,49.125,10.75,0.0355564,-1.22156,1.69335
4783,7,-9,11,7,-7,-5,-12,16,1,-0.172852,0.385254,-10.8125,49.125,10.75,0.0355564,-1.22156,1.69335
4783,21,-1,-17,-28,-4,7,16,0,1,-0.172852,0.385254,-10.8125,49.125,10.75,0.0355564,-1.22156,1.69335
4785,29,2,-24,23,20,14,1,-15,1.00684,-0.0742188,0.362305,-22.4375,43.625,2.125,0.0189098,-1.20679,1.70186
4785,58,1,20,10,-1,6,13,55,1.00684,-0.0742188,0.362305,-22.4375,43.625,2.125,0.0189098,-1.20679,1.70186
4798,-62,11,41,16,-6,-8,-10,-61,1.00684,-0.0742188,0.362305,-22.4375,43.625,2.125,0.0189098,-1.20679,1.70186
4798,-47,-15,-39,0,1,-5,-7,18,1.00684,-0.0742188,0.362305,-22.4375,43.625,2.125,0.0189098,-1.20679,1.70186
4800,-7,3,30,18,18,11,6,7,1.06006,-0.0107422,0.400391,-28.9375,42.625,-2.5625,0.00959688,-1.19245,1.70109
4800,-3,-2,0,-10,-8,-3,-16,8,1.06006,-0.0107422,0.400391,-28.9375,42.625,-2.5625,0.00959688,-1.19245,1.70109
4813,65,23,-2,-5,5,32,51,66,1.06006,-0.0107422,0.400391,-28.9375,42.625,-2.5625,0.00959688,-1.19245,1.70109
4813,13,-8,-46,-52,-42,-43,-61,-51,1.06006,-0.0107422,0.400391,-28.9375,42.625,-2.5625,0.00959688,-1.19245,1.70109
4815,-11,4,-21,-58,-41,-25,-5,-23,0.962402,0.0078125,0.41748,-35.1875,41.6875,-5.625,0.00222443,-1.17755,1.69578
4815,6,-1,51,101,96,19,17,-24,0.962402,0.0078125,0.41748,-35.1875,41.6875,-5.625,0.00222443,-1.17755,1.69578
4835,37,9,55,53,37,16,13,35,0.962402,0.0078125,0.41748,-35.1875,41.6875,-5.625,0.00222443,-1.17755,1.69578
4835,5,4,-14,-24,-21,-6,-18,-16,0.962402,0.0078125,0.41748,-35.1875,41.6875,-5.625,0.00222443,-1.17755,1.69578
4837,50,1,-7,-27,-19,8,17,34,0.894531,-0.00683594,0.423828,-37.5625,39.5,-5.0625,-0.00700374,-1.16281,1.69151
4837,13,-10,-50,-69,-42,-6,-6,-2,0.894531,-0.00683594,0.423828,-37.5625,39.5,-5.0625,-0.00700374,-1.16281,1.69151
4848,5,9,12,-5,-2,-10,-5,-28,0.894531,-0.00683594,0.423828,-37.5625,39.5,-5.0625,-0.00700374,-1.16281,1.69151
4848,31,-3,20,31,15,-4,-1,22,0.894531,-0.00683594,0.423828,-37.5625,39.5,-5.0625,-0.00700374,-1.16281,1.69151
4858,-7,1,-1,18,7,7,6,-7,0.84082,-0.0390625,0.40625,-38.5,41.375,-4.125,-0.0184162,-1.14755,1.68885
4858,-16,0,-12,-62,-45,-21,-17,-10,0.84082,-0.0390625,0.40625,-38.5,41.375,-4.125,-0.0184162,-1.14755,1.68885
4873,-8,-22,-55,-70,-25,-10,2,0,0.84082,-0.0390625,0.40625,-38.5,41.375,-4.125,-0.0184162,-1.14755,1.68885
4873,18,-6,-57,36,27,-5,-22,-15,0.84082,-0.0390625,0.40625,-38.5,41.375,-4.125,-0.0184162,-1.14755,1.68885
4874,4,18,59,63,34,19,28,23,0.834473,-0.050293,0.416504,-25.8125,42.625,-3.875,-0.0263016,-1.13236,1.68745
4874,19,10,21,42,23,18,15,11,0.834473,-0.050293,0.416504,-25.8125,42.625,-3.875,-0.0263016,-1.13236,1.68745
4895,-18,3,3,-35,-28,-27,-19,3,0.834473,-0.050293,0.416504,-25.8125,42.625,-3.875,-0.0263016,-1.13236,1.68745
4895,-38,2,-14,-69,-27,-11,-14,-59,0.834473,-0.050293,0.416504,-25.8125,42.625,-3.875,-0.0263016,-1.13236,1.68745
4897,-4,-15,-26,-8,-11,-3,-4,16,0.787109,0.0117188,0.412109,-24.375,45.0625,-8,-0.0266978,-1.1159,1.67859
4897,4,-1,-20,20,8,-4,1,45,0.787109,0.0117188,0.412109,-24.375,45.0625,-8,-0.0266978,-1.1159,1.67859
4908,12,14,65,54,25,13,7,-58,0.787109,0.0117188,0.412109,-24.375,45.0625,-8,-0.0266978,-1.1159,1.67859
4908,-18,27,73,58,26,24,4,12,0.787109,0.0117188,0.412109,-24.375,45.0625,-8,-0.0266978,-1.1159,1.67859
4917,-20,-29,-58,-34,-1,-18,-22,-22,0.739258,-0.0439453,0.467285,-27.6875,49.3125,-9.9375,-0.0301969,-1.09702,1.67149
4917,-2,-8,-48,-87,-46,1,9,-2,0.739258,-0.0439453,0.467285,-27.6875,49.3125,-9.9375,-0.0301969,-1.09702,1.67149
4933,-3,-4,-17,20,0,-8,-20,0,0.739258,-0.0439453,0.467285,-27.6875,49.3125,-9.9375,-0.0301969,-1.09702,1.67149
4933,21,13,48,33,22,7,14,20,0.739258,-0.0439453,0.467285,-27.6875,49.3125,-9.9375,-0.0301969,-1.09702,1.67149
4934,4,4,37,1,-2,-2,-3,-33,0.71582,-0.110352,0.49707,-23.75,53.5625,-5.0625,-0.0386386,-1.0757,1.67028
4934,-7,-5,-47,-42,-17,-4,-1,-1,0.71582,-0.110352,0.49707,-23.75,53.5625,-5.0625,-0.0386386,-1.0757,1.67028
4955,4,-9,5,-33,-19,-1,0,18,0.71582,-0.110352,0.49707,-23.75,53.5625,-5.0625,-0.0386386,-1.0757,1.67028
4955,2,-6,-3,-4,6,1,9,-47,0.71582,-0.110352,0.49707,-23.75,53.5625,-5.0625,-0.0386386,-1.0757,1.67028
4957,-10,1,-4,21,12,-6,-11,-12,0.63916,-0.0512695,0.482422,-17.3125,57.125,-3.875,-0.0421869,-1.05334,1.6672
4957,16,15,47,16,10,0,-4,4,0.63916,-0.0512695,0.482422,-17.3125,57.125,-3.875,-0.0421869,-1.05334,1.6672
4978,15,-3,-35,6,-6,-10,-8,17,0.63916,-0.0512695,0.482422,-17.3125,57.125,-3.875,-0.0421869,-1.05334,1.6672
4978,-23,-9,-19,-6,-10,-5,-6,4,0.63916,-0.0512695,0.482422,-17.3125,57.125,-3.875,-0.0421869,-1.05334,1.6672
4979,45,-6,-42,-25,10,11,19,62,0.586914,-0.00927734,0.45459,-20.875,57.9375,-13.6875,-0.0395423,-1.03125,1.65581
4979,-24,-12,15,34,16,14,32,-44,0.586914,-0.00927734,0.45459,-20.875,57.9375,-13.6875,-0.0395423,-1.03125,1.65581
4992,-3,8,-2,12,-1,-17,-37,-3,0.586914,-0.00927734,0.45459,-20.875,57.9375,-13.6875,-0.0395423,-1.03125,1.65581
4992,28,-3,27,26,5,-3,8,46,0.586914,-0.00927734,0.45459,-20.875,57.9375,-13.6875,-0.0395423,-1.03125,1.65581
4999,-6,13,20,13,-5,12,-11,-57,0.595215,-0.0595703,0.507812,-22.3125,57.375,-13.3125,-0.0402944,-1.00854,1.64707
4999,-10,-5,-20,-36,-28,-24,0,9,0.595215,-0.0595703,0.507812,-22.3125,57.375,-13.3125,-0.0402944,-1.00854,1.64707
5015,-5,-6,-35,-47,-5,4,3,-21,0.595215,-0.0595703,0.507812,-22.3125,57.375,-13.3125,-0.0402944,-1.00854,1.64707
5015,-6,-25,-55,29,-3,-1,8,3,0.595215,-0.0595703,0.507812,-22.3125,57.375,-13.3125,-0.0402944,-1.00854,1.64707
5017,6,5,25,13,3,-1,-21,2,0.580078,-0.0786133,0.498047,-18.6875,56.25,-12.6875,-0.0412431,-0.986683,1.63955
5017,9,11,51,19,24,12,4,10,0.580078,-0.0786133,0.498047,-18.6875,56.25,-12.6875,-0.0412431,-0.986683,1.63955
5029,-21,8,45,12,1,-6,-14,-37,0.580078,-0.0786133,0.498047,-18.6875,56.25,-12.6875,-0.0412431,-0.986683,1.63955
5029,-2,0,-27,-8,-9,-6,0,11,0.580078,-0.0786133,0.498047,-18.6875,56.25,-12.6875,-0.0412431,-0.986683,1.63955
5038,22,-4,28,8,6,9,25,48,0.541504,-0.0395508,0.487305,-21,54.5625,-21.0625,-0.0376233,-0.965607,1.6258
5038,-15,-26,-93,-27,-20,-9,-39,-9,0.541504,-0.0395508,0.487305,-21,54.5625,-21.0625,-0.0376233,-0.965607,1.6258
5060,-6,10,12,-4,-1,-14,0,7,0.541504,-0.0395508,0.487305,-21,54.5625,-21.0625,-0.0376233,-0.965607,1.6258
5060,6,-2,49,-22,-1,32,11,-10,0.541504,-0.0395508,0.487305,-21,54.5625,-21.0625,-0.0376233,-0.965607,1.6258
5062,11,7,8,29,26,15,32,36,0.540039,-0.0170898,0.497559,-20.6875,53.5,-16.5,-0.0355757,-0.945146,1.61469
5062,-21,28,93,14,3,-9,-33,-36,0.540039,-0.0170898,0.497559,-20.6875,53.5,-16.5,-0.0355757,-0.945146,1.61469
5075,-8,-39,-110,23,4,6,6,10,0.540039,-0.0170898,0.497559,-20.6875,53.5,-16.5,-0.0355757,-0.945146,1.61469
5075,13,7,27,-46,-25,-7,13,3,0.540039,-0.0170898,0.497559,-20.6875,53.5,-16.5,-0.0355757,-0.945146,1.61469
5077,-13,-16,12,7,5,-17,-28,-24,0.52832,-0.0488281,0.517578,-16.0625,52.875,-17.9375,-0.0331328,-0.924565,1.60414
5077,27,-14,-5,-4,3,17,22,46,0.52832,-0.0488281,0.517578,-16.0625,52.875,-17.9375,-0.0331328,-0.924565,1.60414
5098,-51,10,24,-23,-13,-10,-16,-46,0.52832,-0.0488281,0.517578,-16.0625,52.875,-17.9375,-0.0331328,-0.924565,1.60414
5098,10,9,11,11,-9,-2,18,17,0.52832,-0.0488281,0.517578,-16.0625,52.875,-17.9375,-0.0331328,-0.924565,1.60414
5104,-13,6,-17,-13,-5,-18,-19,-13,0.513672,-0.0297852,0.501465,-13.375,47.5625,-19,-0.0291842,-0.906207,1.59302
5104,-2,-24,-78,-8,-12,-11,8,-20,0.513672,-0.0297852,0.501465,-13.375,47.5625,-19,-0.0291842,-0.906207,1.59302
5112,16,-12,-13,-33,-16,2,-11,35,0.513672,-0.0297852,0.501465,-13.375,47.5625,-19,-0.0291842,-0.906207,1.59302
5112,-6,-3,-21,-8,6,-3,0,-9,0.513672,-0.0297852,0.501465,-13.375,47.5625,-19,-0.0291842,-0.906207,1.59302
5126,-10,12,6,11,-2,3,-5,-12,0.558594,0.0107422,0.521973,-8.125,45,-17.6875,-0.0228209,-0.889331,1.58165
5126,-12,10,48,78,64,26,-2,7,0.558594,0.0107422,0.521973,-8.125,45,-17.6875,-0.0228209,-0.889331,1.58165
5135,37,7,-30,34,15,6,27,9,0.558594,0.0107422,0.521973,-8.125,45,-17.6875,-0.0228209,-0.889331,1.58165
5135,-32,2,30,6,-8,-8,-24,-13,0.558594,0.0107422,0.521973,-8.125,45,-17.6875,-0.0228209,-0.889331,1.58165
5137,15,-10,-37,-51,-45,-16,-4,21,0.563477,0.012207,0.558105,-11,43,-19.125,-0.0173508,-0.872705,1.57007
5137,-17,-5,-53,-88,-54,-15,-10,-26,0.563477,0.012207,0.558105,-11,43,-19.125,-0.0173508,-0.872705,1.57007
5157,13,3,54,41,32,18,12,18,0.563477,0.012207,0.558105,-11,43,-19.125,-0.0173508,-0.872705,1.57007
5157,10,6,11,38,36,-3,0,23,0.563477,0.012207,0.558105,-11,43,-19.125,-0.0173508,-0.872705,1.57007
5160,-23,-4,2,-28,-20,-4,6,12,0.554199,-0.0136719,0.591797,-7.6875,39.8125,-15.6875,-0.0135494,-0.856784,1.56145
5160,3,-9,-40,-12,-19,-8,-6,-24,0.554199,-0.0136719,0.591797,-7.6875,39.8125,-15.6875,-0.0135494,-0.856784,1.56145
5172,-11,-1,20,-38,-10,-7,15,7,0.554199,-0.0136719,0.591797,-7.6875,39.8125,-15.6875,-0.0135494,-0.856784,1.56145
5172,4,9,-21,47,29,7,-21,27,0.554199,-0.0136719,0.591797,-7.6875,39.8125,-15.6875,-0.0135494,-0.856784,1.56145
5179,22,11,62,47,26,0,-1,-19,0.541992,0.0493164,0.609375,-5.5,39,-14.625,-0.00753987,-0.840993,1.55198
5179,-18,-10,-11,-20,-21,-4,-4,12,0.541992,0.0493164,0.609375,-5.5,39,-14.625,-0.00753987,-0.840993,1.55198
5195,3,-8,-54,-86,-67,-4,6,5,0.541992,0.0493164,0.609375,-5.5,39,-14.625,-0.00753987,-0.840993,1.55198
5195,12,11,23,46,38,12,8,-14,0.541992,0.0493164,0.609375,-5.5,39,-14.625,-0.00753987,-0.840993,1.55198
5197,-11,0,40,57,46,-5,-18,8,0.521484,0.0112305,0.615234,-4.125,38.125,-15.3125,-0.00250851,-0.825337,1.54369
5197,6,8,-5,8,-1,7,11,9,0.521484,0.0112305,0.615234,-4.125,38.125,-15.3125,-0.00250851,-0.825337,1.54369
5218,2,-25,-78,-5,-8,11,5,-11,0.521484,0.0112305,0.615234,-4.125,38.125,-15.3125,-0.00250851,-0.825337,1.54369
5218,-5,-1,-13,-60,-44,-26,-13,-4,0.521484,0.0112305,0.615234,-4.125,38.125,-15.3125,-0.00250851,-0.825337,1.54369
5219,4,-8,2,18,17,9,4,19,0.563965,0.0126953,0.638672,-4.3125,34.5,-11.625,0.000781939,-0.811385,1.53731
5219,-4,20,53,45,35,-14,-24,-44,0.563965,0.0126953,0.638672,-4.3125,34.5,-11.625,0.000781939,-0.811385,1.53731
5231,12,2,39,-50,-37,5,10,5,0.563965,0.0126953,0.638672,-4.3125,34.5,-11.625,0.000781939,-0.811385,1.53731
5231,-10,-40,-86,-47,-20,-5,1,-6,0.563965,0.0126953,0.638672,-4.3125,34.5,-11.625,0.000781939,-0.811385,1.53731
5240,-11,17,-1,16,23,11,-2,6,0.571777,-0.0449219,0.666016,0.125,34,-8.375,0.00231234,-0.797633,1.53434
5240,20,13,47,31,9,6,23,54,0.571777,-0.0449219,0.666016,0.125,34,-8.375,0.00231234,-0.797633,1.53434
5255,-29,-8,-36,-26,-20,-9,-23,-26,0.571777,-0.0449219,0.666016,0.125,34,-8.375,0.00231234,-0.797633,1.53434
5255,-4,-16,-41,-20,-15,-19,-36,-21,0.571777,-0.0449219,0.666016,0.125,34,-8.375,0.00231234,-0.797633,1.53434
5256,2,-20,-38,-27,-25,-7,18,-4,0.566406,0.00585938,0.654785,-0.0625,33.4375,-8.375,0.00525558,-0.784507,1.53026
5256,-17,18,61,57,45,13,-19,-10,0.566406,0.00585938,0.654785,-0.0625,33.4375,-8.375,0.00525558,-0.784507,1.53026
5285,18,16,12,58,43,18,20,28,0.566406,0.00585938,0.654785,-0.0625,33.4375,-8.375,0.00525558,-0.784507,1.53026
5285,0,5,23,-24,-24,-2,7,1,0.566406,0.00585938,0.654785,-0.0625,33.4375,-8.375,0.00525558,-0.784507,1.53026
5286,-9,-30,-101,-128,-75,-8,22,3,0.57959,0.00146484,0.669434,-0.9375,33.9375,-8.5,0.00757223,-0.771318,1.52636
5286,-8,-9,-44,12,-10,-14,-24,-32,0.57959,0.00146484,0.669434,-0.9375,33.9375,-8.5,0.00757223,-0.771318,1.52636
5291,-2,18,97,127,112,21,2,-7,0.57959,0.00146484,0.669434,-0.9375,33.9375,-8.5,0.00757223,-0.771318,1.52636
5291,-2,24,63,21,8,-5,-6,-14,0.57959,0.00146484,0.669434,-0.9375,33.9375,-8.5,0.00757223,-0.771318,1.52636
5307,15,-10,-45,-64,-26,0,4,-7,0.588379,-0.0253906,0.70752,-1.625,34,-7.0625,0.00830268,-0.757901,1.52369
5307,3,-6,-5,-42,-28,-2,7,14,0.588379,-0.0253906,0.70752,-1.625,34,-7.0625,0.00830268,-0.757901,1.52369
5315,-5,0,-14,-61,-55,-25,-5,-2,0.588379,-0.0253906,0.70752,-1.625,34,-7.0625,0.00830268,-0.757901,1.52369
5315,0,-18,-93,22,16,8,-1,13,0.588379,-0.0253906,0.70752,-1.625,34,-7.0625,0.00830268,-0.757901,1.52369
5316,21,23,76,85,54,12,2,39,0.577148,0.00195312,0.704102,-0.875,35.25,-8.25,0.0103195,-0.744328,1.52004
5316,-8,0,33,-8,-9,24,45,-40,0.577148,0.00195312,0.704102,-0.875,35.25,-8.25,0.0103195,-0.744328,1.52004
5337,-24,-10,-30,-35,-16,-45,-62,-9,0.577148,0.00195312,0.704102,-0.875,35.25,-8.25,0.0103195,-0.744328,1.52004
5337,19,10,26,44,40,33,31,6,0.577148,0.00195312,0.704102,-0.875,35.25,-8.25,0.0103195,-0.744328,1.52004
5340,-15,-4,-62,-45,-40,-16,-10,-32,0.564941,0.00732422,0.714355,-3.625,35.75,-9,0.0118307,-0.730423,1.51606
5340,5,-5,-1,-17,-9,-2,-7,8,0.564941,0.00732422,0.714355,-3.625,35.75,-9,0.0118307,-0.730423,1.51606
5352,13,8,39,43,19,10,7,8,0.564941,0.00732422,0.714355,-3.625,35.75,-9,0.0118307,-0.730423,1.51606
5352,-8,-11,2,-63,-35,-14,-5,-5,0.564941,0.00732422,0.714355,-3.625,35.75,-9,0.0118307,-0.730423,1.51606
5360,-16,26,41,32,33,16,19,-34,0.583984,0.0078125,0.748535,-3.75,35.9375,-8.75,0.0130384,-0.716529,1.51215
5360,-1,-13,17,43,40,19,-2,-14,0.583984,0.0078125,0.748535,-3.75,35.9375,-8.75,0.0130384,-0.716529,1.51215
5375,5,7,30,-69,-49,-2,2,3,0.583984,0.0078125,0.748535,-3.75,35.9375,-8.75,0.0130384,-0.716529,1.51215
5375,-5,-14,-96,10,11,-19,-23,-31,0.583984,0.0078125,0.748535,-3.75,35.9375,-8.75,0.0130384,-0.716529,1.51215
5376,4,-5,38,43,4,-6,-3,32,0.564453,0.0292969,0.737305,-2.875,36.875,-8.1875,0.0149656,-0.702521,1.50827
5376,17,5,-4,-21,-7,-3,-5,24,0.564453,0.0292969,0.737305,-2.875,36.875,-8.1875,0.0149656,-0.702521,1.50827
5398,-32,-16,-18,-7,-3,-10,-10,-34,0.564453,0.0292969,0.737305,-2.875,36.875,-8.1875,0.0149656,-0.702521,1.50827
5398,16,25,73,8,11,10,14,-16,0.564453,0.0292969,0.737305,-2.875,36.875,-8.1875,0.0149656,-0.702521,1.50827
5399,-19,-28,-17,22,2,5,-21,0,0.555664,0.0371094,0.744141,-0.0625,37.875,-7.75,0.0177174,-0.688239,1.50469
5399,6,-2,-39,-44,-43,-14,13,-16,0.555664,0.0371094,0.744141,-0.0625,37.875,-7.75,0.0177174,-0.688239,1.50469
5412,-6,-9,-24,15,-4,2,-14,3,0.555664,0.0371094,0.744141,-0.0625,37.875,-7.75,0.0177174,-0.688239,1.50469
5412,15,18,59,7,25,0,7,31,0.555664,0.0371094,0.744141,-0.0625,37.875,-7.75,0.0177174,-0.688239,1.50469
5427,-10,-1,-29,-3,17,-4,-6,-39,0.572754,0.0341797,0.76416,0.9375,39.0625,-5.375,0.0199623,-0.673787,1.50227
5427,-1,-13,-5,29,-1,-14,-13,37,0.572754,0.0341797,0.76416,0.9375,39.0625,-5.375,0.0199623,-0.673787,1.50227
5436,24,11,20,-7,3,14,30,10,0.572754,0.0341797,0.76416,0.9375,39.0625,-5.375,0.0199623,-0.673787,1.50227
5436,-27,-10,-10,-86,-72,-4,6,2,0.572754,0.0341797,0.76416,0.9375,39.0625,-5.375,0.0199623,-0.673787,1.50227
5437,-19,-7,9,19,18,-7,-16,-39,0.548828,0.0283203,0.793457,0.9375,39.125,-4.5625,0.0216911,-0.658736,1.50033
5437,-15,-7,-27,9,12,-6,-17,-10,0.548828,0.0283203,0.793457,0.9375,39.125,-4.5625,0.0216911,-0.658736,1.50033
5458,26,14,-18,37,24,19,42,26,0.548828,0.0283203,0.793457,0.9375,39.125,-4.5625,0.0216911,-0.658736,1.50033
5458,10,13,73,48,37,17,-29,-3,0.548828,0.0283203,0.793457,0.9375,39.125,-4.5625,0.0216911,-0.658736,1.50033
5459,-13,-10,-27,-38,-47,-13,-4,-36,0.541992,0.0239258,0.783691,1.625,40.1875,-5.5,0.0236406,-0.643695,1.49812
5459,-12,-9,-17,-89,-49,-17,-9,7,0.541992,0.0239258,0.783691,1.625,40.1875,-5.5,0.0236406,-0.643695,1.49812
5471,-8,1,13,33,14,-5,-10,-20,0.541992,0.0239258,0.783691,1.625,40.1875,-5.5,0.0236406,-0.643695,1.49812
5471,-1,-24,-25,29,26,10,9,-9,0.541992,0.0239258,0.783691,1.625,40.1875,-5.5,0.0236406,-0.643695,1.49812
5480,5,6,-6,-35,-25,0,-3,13,0.507812,0.0400391,0.78125,4.875,40.75,-3,0.0264697,-0.628352,1.4971
5480,6,-2,14,9,24,-3,3,8,0.507812,0.0400391,0.78125,4.875,40.75,-3,0.0264697,-0.628352,1.4971
5496,9,-11,-40,-5,5,11,16,14,0.507812,0.0400391,0.78125,4.875,40.75,-3,0.0264697,-0.628352,1.4971
5496,-6,4,-7,44,12,8,1,-6,0.507812,0.0400391,0.78125,4.875,40.75,-3,0.0264697,-0.628352,1.4971
5497,14,27,89,-25,-21,-12,-7,6,0.509277,0.0249023,0.79834,1.875,39.5,-4.5,0.0279814,-0.613415,1.49554
5497,7,-16,-79,-24,-14,-6,8,12,0.509277,0.0249023,0.79834,1.875,39.5,-4.5,0.0279814,-0.613415,1.49554
5518,-17,-9,24,31,19,-6,7,-2,0.509277,0.0249023,0.79834,1.875,39.5,-4.5,0.0279814,-0.613415,1.49554
5518,1,11,33,-12,2,-6,-20,-11,0.509277,0.0249023,0.79834,1.875,39.5,-4.5,0.0279814,-0.613415,1.49554
5519,-18,-22,-10,3,-7,3,8,0,0.495605,0.00634766,0.808105,2.25,39.5,-3.125,0.0287766,-0.59854,1.49503
5519,19,2,-25,-18,-1,9,15,17,0.495605,0.00634766,0.808105,2.25,39.5,-3.125,0.0287766,-0.59854,1.49503
5531,1,12,-5,-8,-6,-5,-13,-14,0.495605,0.00634766,0.808105,2.25,39.5,-3.125,0.0287766,-0.59854,1.49503
5531,-4,-7,19,-13,-31,-8,29,1,0.495605,0.00634766,0.808105,2.25,39.5,-3.125,0.0287766,-0.59854,1.49503
5540,15,3,-85,1,22,14,-8,8,0.464355,0.019043,0.797363,4.4375,38.4375,-2.75,0.0305926,-0.583742,1.49437
5540,-23,8,84,52,27,-16,-22,1,0.464355,0.019043,0.797363,4.4375,38.4375,-2.75,0.0305926,-0.583742,1.49437
5556,31,-9,-9,9,2,2,-8,18,0.464355,0.019043,0.797363,4.4375,38.4375,-2.75,0.0305926,-0.583742,1.49437
5556,-42,-15,-37,-31,-33,-12,1,-42,0.464355,0.019043,0.797363,4.4375,38.4375,-2.75,0.0305926,-0.583742,1.49437
5557,3,14,-2,-2,8,6,12,12,0.469727,0.0371094,0.791992,7.875,36.9375,-3.25,0.0341859,-0.570049,1.49347
5557,13,2,23,-15,-9,13,2,4,0.469727,0.0371094,0.791992,7.875,36.9375,-3.25,0.0341859,-0.570049,1.49347
5578,1,19,17,-24,-14,-23,-22,-21,0.469727,0.0371094,0.791992,7.875,36.9375,-3.25,0.0341859,-0.570049,1.49347
5578,-12,-11,10,-15,-9,-8,9,20,0.469727,0.0371094,0.791992,7.875,36.9375,-3.25,0.0341859,-0.570049,1.49347
5579,17,5,31,44,23,14,12,50,0.463379,0.0239258,0.813477,8,35.5,-2.25,0.0370007,-0.556717,1.49317
5579,-14,-3,-13,13,24,-7,-7,-54,0.463379,0.0239258,0.813477,8,35.5,-2.25,0.0370007,-0.556717,1.49317
5592,-9,4,-14,-22,-22,1,0,25,0.463379,0.0239258,0.813477,8,35.5,-2.25,0.0370007,-0.556717,1.49317
5592,24,-7,-15,-76,-44,-9,-1,-14,0.463379,0.0239258,0.813477,8,35.5,-2.25,0.0370007,-0.556717,1.49317
5600,-7,14,71,97,54,24,14,-2,0.428223,0.0351562,0.814453,5,33.1875,-1.1875,0.0387936,-0.543711,1.493
5600,10,16,30,64,31,1,9,46,0.428223,0.0351562,0.814453,5,33.1875,-1.1875,0.0387936,-0.543711,1.493
5615,-3,-18,-20,-29,-15,1,8,-22,0.428223,0.0351562,0.814453,5,33.1875,-1.1875,0.0387936,-0.543711,1.493
5615,2,12,1,1,-1,-2,-18,7,0.428223,0.0351562,0.814453,5,33.1875,-1.1875,0.0387936,-0.543711,1.493
5617,-15,-36,-100,-73,-44,-11,-8,-5,0.417969,0.0429688,0.799805,4.75,29.6875,-0.875,0.0406787,-0.532267,1.4931
5617,-2,25,69,-36,-28,5,2,-32,0.417969,0.0429688,0.799805,4.75,29.6875,-0.875,0.0406787,-0.532267,1.4931
5638,-21,-18,-49,4,-2,-12,-8,-6,0.417969,0.0429688,0.799805,4.75,29.6875,-0.875,0.0406787,-0.532267,1.4931
5638,26,-8,-4,62,59,17,4,27,0.417969,0.0429688,0.799805,4.75,29.6875,-0.875,0.0406787,-0.532267,1.4931
5640,-2,0,48,-40,-31,-3,-10,-50,0.40918,0.0483398,0.796387,8.1875,26.75,-2.25,0.0441553,-0.521764,1.49241
5640,-21,-6,-55,-31,-26,-11,-7,21,0.40918,0.0483398,0.796387,8.1875,26.75,-2.25,0.0441553,-0.521764,1.49241
5652,9,10,67,100,71,15,8,11,0.40918,0.0483398,0.796387,8.1875,26.75,-2.25,0.0441553,-0.521764,1.49241
5652,1,-2,3,-1,-18,-7,16,-5,0.40918,0.0483398,0.796387,8.1875,26.75,-2.25,0.0441553,-0.521764,1.49241
5660,0,15,-24,-27,-17,12,-15,11,0.397461,0.0273438,0.81543,7.5,22.5,-2.5625,0.0466951,-0.51254,1.49198
5660,13,-5,-14,-33,-21,-8,-1,2,0.397461,0.0273438,0.81543,7.5,22.5,-2.5625,0.0466951,-0.51254,1.49198
5675,-22,-6,-23,14,13,12,-7,-43,0.397461,0.0273438,0.81543,7.5,22.5,-2.5625,0.0466951,-0.51254,1.49198
5675,18,18,26,-17,9,5,12,34,0.397461,0.0273438,0.81543,7.5,22.5,-2.5625,0.0466951,-0.51254,1.49198
5677,-22,-25,-42,8,-20,-32,-21,-21,0.407227,0.0102539,0.829102,8.25,18.8125,-1.375,0.0488755,-0.504881,1.49221
5677,3,-6,-23,-19,-21,4,8,33,0.407227,0.0102539,0.829102,8.25,18.8125,-1.375,0.0488755,-0.504881,1.49221
5706,-26,1,56,3,1,-11,-11,-40,0.407227,0.0102539,0.829102,8.25,18.8125,-1.375,0.0488755,-0.504881,1.49221
5706,-23,18,55,65,37,-1,-1,-33,0.407227,0.0102539,0.829102,8.25,18.8125,-1.375,0.0488755,-0.504881,1.49221
5707,17,-12,-44,-56,-22,2,1,22,0.397949,0.0458984,0.807617,9.875,15.25,-1.25,0.0524666,-0.498622,1.49211
5707,-21,1,-33,-17,-13,13,6,-65,0.397949,0.0458984,0.807617,9.875,15.25,-1.25,0.0524666,-0.498622,1.49211
5711,33,1,41,67,43,11,7,27,0.397949,0.0458984,0.807617,9.875,15.25,-1.25,0.0524666,-0.498622,1.49211
5711,-10,-20,-44,-49,-39,-19,-19,18,0.397949,0.0458984,0.807617,9.875,15.25,-1.25,0.0524666,-0.498622,1.49211
5721,-11,-18,-43,-61,-41,-12,22,-11,0.424805,0.0493164,0.793945,8.625,14.8125,-3.25,0.0561466,-0.493219,1.49101
5721,3,11,52,72,60,7,-31,16,0.424805,0.0493164,0.793945,8.625,14.8125,-3.25,0.0561466,-0.493219,1.49101
5736,15,0,29,15,6,8,15,20,0.424805,0.0493164,0.793945,8.625,14.8125,-3.25,0.0561466,-0.493219,1.49101
5736,-14,5,-2,16,-3,10,4,-19,0.424805,0.0493164,0.793945,8.625,14.8125,-3.25,0.0561466,-0.493219,1.49101
5737,2,-5,-30,-1,4,-5,5,19,0.42041,0.00537109,0.808594,6.125,14.0625,-2.375,0.0574529,-0.488094,1.49087
5737,9,-16,-43,-61,-38,-22,-4,17,0.42041,0.00537109,0.808594,6.125,14.0625,-2.375,0.0574529,-0.488094,1.49087
5757,-14,5,-39,-47,-18,-4,-16,-8,0.42041,0.00537109,0.808594,6.125,14.0625,-2.375,0.0574529,-0.488094,1.49087
5757,9,15,56,53,36,9,0,-23,0.42041,0.00537109,0.808594,6.125,14.0625,-2.375,0.0574529,-0.488094,1.49087
5759,18,18,90,79,37,10,6,-27,0.425781,-0.00488281,0.833008,8.875,13.8125,-2.3125,0.0593051,-0.483035,1.49099
5759,-6,-3,-22,-45,-25,-23,-3,1,0.425781,-0.00488281,0.833008,8.875,13.8125,-2.3125,0.0593051,-0.483035,1.49099
5772,-23,-23,-60,-37,-25,-5,-18,-10,0.425781,-0.00488281,0.833008,8.875,13.8125,-2.3125,0.0593051,-0.483035,1.49099
5772,3,-27,-92,-26,-25,-3,4,13,0.425781,-0.00488281,0.833008,8.875,13.8125,-2.3125,0.0593051,-0.483035,1.49099
5780,-5,27,87,45,39,-2,9,0,0.42334,0.059082,0.834473,7.25,15.9375,-2.875,0.0624533,-0.477244,1.49021
5780,8,9,58,12,-9,9,-2,-26,0.42334,0.059082,0.834473,7.25,15.9375,-2.875,0.0624533,-0.477244,1.49021
5795,11,2,-13,7,5,-11,2,7,0.42334,0.059082,0.834473,7.25,15.9375,-2.875,0.0624533,-0.477244,1.49021
5795,-20,-16,-36,-29,1,15,-2,-27,0.42334,0.059082,0.834473,7.25,15.9375,-2.875,0.0624533,-0.477244,1.49021
5796,17,-3,-29,-45,-38,-10,-24,10,0.414551,0.0649414,0.844727,1.125,16.1875,-1,0.0630701,-0.471169,1.49011
5796,-21,-17,-8,34,28,8,1,-16,0.414551,0.0649414,0.844727,1.125,16.1875,-1,0.0630701,-0.471169,1.49011
5817,-12,24,26,-2,-7,-9,9,-1,0.414551,0.0649414,0.844727,1.125,16.1875,-1,0.0630701,-0.471169,1.49011
5817,13,-18,-29,-7,-12,-12,-8,-4,0.414551,0.0649414,0.844727,1.125,16.1875,-1,0.0630701,-0.471169,1.49011
5819,1,21,48,35,34,6,-2,3,0.407715,0.0634766,0.856934,1.875,16.3125,-0.5,0.0638968,-0.465029,1.49032
5819,0,-27,-60,-13,6,4,6,35,0.407715,0.0634766,0.856934,1.875,16.3125,-0.5,0.0638968,-0.465029,1.49032
5831,1,6,34,-21,-25,0,10,-12,0.407715,0.0634766,0.856934,1.875,16.3125,-0.5,0.0638968,-0.465029,1.49032
5831,-6,-11,-35,-26,-23,-17,-14,-33,0.407715,0.0634766,0.856934,1.875,16.3125,-0.5,0.0638968,-0.465029,1.49032
5840,-6,-1,-12,-2,6,8,1,-26,0.397461,0.0478516,0.883789,7.1875,17.9375,-0.0625,0.0659133,-0.457859,1.49081
5840,15,3,16,0,-17,-19,-4,29,0.397461,0.0478516,0.883789,7.1875,17.9375,-0.0625,0.0659133,-0.457859,1.49081
5854,2,17,42,-5,9,10,14,15,0.397461,0.0478516,0.883789,7.1875,17.9375,-0.0625,0.0659133,-0.457859,1.49081
5854,-15,-7,-21,2,1,-12,-22,0,0.397461,0.0478516,0.883789,7.1875,17.9375,-0.0625,0.0659133,-0.457859,1.49081
5863,4,-10,-35,-4,4,5,2,45,0.391113,0.050293,0.855957,8.25,18.9375,2.5,0.0678581,-0.450727,1.49238
