0,-1,0,-2,0,0,-1,0,-1,0.968262,-0.0722656,0.193359,35.5,-24.25,4.5,-0.673349,-1.41695,0.431532
0,-1,-1,-1,-1,-1,1,0,0,0.968262,-0.0722656,0.193359,35.5,-24.25,4.5,-0.673349,-1.41695,0.431532
0,-1,1,-1,-1,-2,-2,0,-1,0.968262,-0.0722656,0.193359,35.5,-24.25,4.5,-0.673349,-1.41695,0.431532
0,-1,0,-2,-1,-1,0,-2,-1,0.968262,-0.0722656,0.193359,35.5,-24.25,4.5,-0.673349,-1.41695,0.431532
0,-1,-2,1,-2,-1,-1,-1,0,0.968262,-0.0722656,0.193359,35.5,-24.25,4.5,-0.673349,-1.41695,0.431532
0,0,-1,0,-2,-2,0,0,-2,0.968262,-0.0722656,0.193359,35.5,-24.25,4.5,-0.673349,-1.41695,0.431532
2,0,-1,-3,0,-3,-2,-2,-1,0.968262,-0.0722656,0.193359,35.5,-24.25,4.5,-0.673349,-1.41695,0.431532
2,-1,-1,-2,-1,-1,0,0,0,0.968262,-0.0722656,0.193359,35.5,-24.25,4.5,-0.673349,-1.41695,0.431532
7,0,-1,-1,0,-2,-1,-1,-2,0.956055,-0.0688477,0.198242,37.375,-29.875,2.75,-0.696473,-1.42307,0.468485
7,0,-1,-1,0,-1,0,0,-2,0.956055,-0.0688477,0.198242,37.375,-29.875,2.75,-0.696473,-1.42307,0.468485
12,-1,-1,0,-1,-3,0,-2,-1,0.956055,-0.0688477,0.198242,37.375,-29.875,2.75,-0.696473,-1.42307,0.468485
12,-2,-2,0,0,0,-2,0,-1,0.956055,-0.0688477,0.198242,37.375,-29.875,2.75,-0.696473,-1.42307,0.468485
23,-1,0,0,-1,-1,0,0,-1,0.954102,-0.0708008,0.188477,38.6875,-35.5625,1.1875,-0.729443,-1.43112,0.515564
23,-1,0,-2,-1,-1,-3,-1,1,0.954102,-0.0708008,0.188477,38.6875,-35.5625,1.1875,-0.729443,-1.43112,0.515564
27,-1,0,-1,0,0,-1,0,-1,0.954102,-0.0708008,0.188477,38.6875,-35.5625,1.1875,-0.729443,-1.43112,0.515564
27,-1,-1,-2,0,-3,-2,-3,-1,0.954102,-0.0708008,0.188477,38.6875,-35.5625,1.1875,-0.729443,-1.43112,0.515564
43,-1,-1,-1,-1,-1,-1,-1,-1,0.95166,-0.0800781,0.181152,40.9375,-40.5,-1.0625,-0.771011,-1.43949,0.572338
43,-1,0,-1,-1,-1,0,0,-2,0.95166,-0.0800781,0.181152,40.9375,-40.5,-1.0625,-0.771011,-1.43949,0.572338
58,-2,-1,-1,-2,-1,-1,-1,-1,0.95166,-0.0800781,0.181152,40.9375,-40.5,-1.0625,-0.771011,-1.43949,0.572338
58,-1,0,1,-2,-2,-2,0,-1,0.95166,-0.0800781,0.181152,40.9375,-40.5,-1.0625,-0.771011,-1.43949,0.572338
60,0,-2,-2,0,0,-1,-2,-2,0.959961,-0.0830078,0.156738,42.625,-44.1875,-3.9375,-0.825376,-1.45084,0.642109
60,0,0,0,-1,-1,-2,-2,-1,0.959961,-0.0830078,0.156738,42.625,-44.1875,-3.9375,-0.825376,-1.45084,0.642109
106,-1,0,-1,0,-1,-1,-1,-1,0.978027,-0.0839844,0.117676,44.4375,-47.6875,-9.375,-0.974013,-1.47339,0.82289
106,-1,0,-2,-1,-1,-1,0,-1,0.978027,-0.0839844,0.117676,44.4375,-47.6875,-9.375,-0.974013,-1.47339,0.82289
107,-2,-2,0,-1,-1,-2,0,0,0.978027,-0.0839844,0.117676,44.4375,-47.6875,-9.375,-0.974013,-1.47339,0.82289
107,-1,-2,-2,-3,0,0,-1,0,0.978027,-0.0839844,0.117676,44.4375,-47.6875,-9.375,-0.974013,-1.47339,0.82289
110,-2,-1,-1,-2,-2,-2,0,0,0.978027,-0.0839844,0.117676,44.4375,-47.6875,-9.375,-0.974013,-1.47339,0.82289
110,1,0,-2,-2,-1,-1,-1,-2,0.978027,-0.0839844,0.117676,44.4375,-47.6875,-9.375,-0.974013,-1.47339,0.82289
110,-1,-2,-1,-1,0,0,-2,-2,0.978027,-0.0839844,0.117676,44.4375,-47.6875,-9.375,-0.974013,-1.47339,0.82289
110,-2,-1,-1,-1,-1,0,-1,-2,0.978027,-0.0839844,0.117676,44.4375,-47.6875,-9.375,-0.974013,-1.47339,0.82289
118,-2,-3,-1,0,0,-1,-2,0,0.978027,-0.0839844,0.117676,44.4375,-47.6875,-9.375,-0.974013,-1.47339,0.82289
118,-1,-1,0,0,-1,0,-1,0,0.978027,-0.0839844,0.117676,44.4375,-47.6875,-9.375,-0.974013,-1.47339,0.82289
125,0,-1,0,-1,0,-2,0,-2,0.992676,-0.0795898,0.108398,43.3125,-46.9375,-12.4375,-1.07167,-1.48468,0.936264
125,1,-2,-1,-1,-2,-2,-1,-1,0.992676,-0.0795898,0.108398,43.3125,-46.9375,-12.4375,-1.07167,-1.48468,0.936264
132,1,-1,-3,-2,0,1,-1,-1,0.992676,-0.0795898,0.108398,43.3125,-46.9375,-12.4375,-1.07167,-1.48468,0.936264
132,-1,-1,1,-2,0,-2,-1,-1,0.992676,-0.0795898,0.108398,43.3125,-46.9375,-12.4375,-1.07167,-1.48468,0.936264
148,-1,0,0,0,-1,-2,-1,-1,1.00488,-0.0722656,0.0878906,41.375,-44.6875,-15.4375,-1.18518,-1.49536,1.06478
148,-2,0,1,-1,-1,0,0,-1,1.00488,-0.0722656,0.0878906,41.375,-44.6875,-15.4375,-1.18518,-1.49536,1.06478
155,-1,0,0,1,-1,-2,-1,-1,1.00488,-0.0722656,0.0878906,41.375,-44.6875,-15.4375,-1.18518,-1.49536,1.06478
155,0,-1,0,0,-1,0,-1,-1,1.00488,-0.0722656,0.0878906,41.375,-44.6875,-15.4375,-1.18518,-1.49536,1.06478
178,-1,-1,-1,-1,-2,-1,-1,0,1.01514,-0.0566406,0.0712891,36.5625,-41.75,-17.6875,-1.32489,-1.50565,1.21775
178,0,-2,-1,1,0,-2,-1,-1,1.01514,-0.0566406,0.0712891,36.5625,-41.75,-17.6875,-1.32489,-1.50565,1.21775
179,-1,-1,0,-2,0,0,-1,-1,1.01514,-0.0566406,0.0712891,36.5625,-41.75,-17.6875,-1.32489,-1.50565,1.21775
179,-1,0,0,-1,-3,0,-1,-1,1.01514,-0.0566406,0.0712891,36.5625,-41.75,-17.6875,-1.32489,-1.50565,1.21775
193,0,-1,0,-1,-3,-1,0,-1,1.03076,-0.0541992,0.0605469,30.375,-37.9375,-19.125,-1.48642,-1.51357,1.39028
193,-1,-1,-1,-1,-1,-1,-1,-2,1.03076,-0.0541992,0.0605469,30.375,-37.9375,-19.125,-1.48642,-1.51357,1.39028
193,0,-2,-1,-1,-1,-1,-1,1,1.03076,-0.0541992,0.0605469,30.375,-37.9375,-19.125,-1.48642,-1.51357,1.39028
193,-1,-1,-1,-1,-1,-1,0,-2,1.03076,-0.0541992,0.0605469,30.375,-37.9375,-19.125,-1.48642,-1.51357,1.39028
215,-2,-1,-3,0,-1,-1,0,1,1.05713,-0.050293,0.0415039,25.5,-33.4375,-20.375,-1.67791,-1.52215,1.59103
215,-1,-1,-2,0,-1,-1,-2,0,1.05713,-0.050293,0.0415039,25.5,-33.4375,-20.375,-1.67791,-1.52215,1.59103
216,-1,1,-1,0,-1,0,-1,-1,1.05713,-0.050293,0.0415039,25.5,-33.4375,-20.375,-1.67791,-1.52215,1.59103
216,-2,-1,-2,-2,-1,-2,-1,0,1.05713,-0.050293,0.0415039,25.5,-33.4375,-20.375,-1.67791,-1.52215,1.59103
239,0,-2,-1,-1,-1,1,-2,-1,1.07715,-0.0712891,0.0463867,22.25,-29.125,-21.1875,-1.87908,-1.52668,1.80033
239,-1,0,-1,-3,-1,-2,0,-2,1.07715,-0.0712891,0.0463867,22.25,-29.125,-21.1875,-1.87908,-1.52668,1.80033
239,-1,-1,-1,-1,-1,-2,0,-1,1.07715,-0.0712891,0.0463867,22.25,-29.125,-21.1875,-1.87908,-1.52668,1.80033
239,-1,-2,-2,-1,-1,-2,0,-1,1.07715,-0.0712891,0.0463867,22.25,-29.125,-21.1875,-1.87908,-1.52668,1.80033
253,-2,-2,-2,0,0,-2,0,-1,1.07812,-0.0927734,0.0380859,21.5,-25.0625,-20.8125,-2.07775,-1.52719,2.00672
253,0,-1,-3,0,-1,-1,0,-1,1.07812,-0.0927734,0.0380859,21.5,-25.0625,-20.8125,-2.07775,-1.52719,2.00672
254,-1,-2,0,-1,-1,-1,1,-2,1.07812,-0.0927734,0.0380859,21.5,-25.0625,-20.8125,-2.07775,-1.52719,2.00672
254,-1,0,0,-1,-1,0,-1,0,1.07812,-0.0927734,0.0380859,21.5,-25.0625,-20.8125,-2.07775,-1.52719,2.00672
275,-1,0,-1,-3,0,-1,-2,-1,1.08252,-0.0795898,0.0161133,21.8125,-20.125,-19.75,-2.27033,-1.52987,2.20712
275,-2,-2,-1,0,-1,-1,-1,-1,1.08252,-0.0795898,0.0161133,21.8125,-20.125,-19.75,-2.27033,-1.52987,2.20712
276,-2,0,-1,0,-1,-2,-1,-2,1.08252,-0.0795898,0.0161133,21.8125,-20.125,-19.75,-2.27033,-1.52987,2.20712
276,-1,0,-2,0,0,-1,0,-1,1.08252,-0.0795898,0.0161133,21.8125,-20.125,-19.75,-2.27033,-1.52987,2.20712
298,-1,-1,-1,0,-3,0,-2,0,1.06885,-0.0634766,0.0195312,24.125,-15.75,-16.5625,-2.42118,-1.53248,2.36668
298,0,-1,-1,-1,-2,-2,0,0,1.06885,-0.0634766,0.0195312,24.125,-15.75,-16.5625,-2.42118,-1.53248,2.36668
298,-1,-1,-1,-2,-2,0,0,-1,1.06885,-0.0634766,0.0195312,24.125,-15.75,-16.5625,-2.42118,-1.53248,2.36668
298,0,-2,0,-1,-1,-1,-1,-1,1.06885,-0.0634766,0.0195312,24.125,-15.75,-16.5625,-2.42118,-1.53248,2.36668
312,-2,-1,-1,1,0,0,0,-2,1.03418,-0.0507812,0.0078125,28.0625,-11.875,-13.625,-2.53751,-1.53056,2.49295
312,0,0,-1,0,-1,0,-1,-1,1.03418,-0.0507812,0.0078125,28.0625,-11.875,-13.625,-2.53751,-1.53056,2.49295
314,0,-1,-1,-2,0,-1,-1,0,1.03418,-0.0507812,0.0078125,28.0625,-11.875,-13.625,-2.53751,-1.53056,2.49295
314,-3,-1,-1,-1,-1,-2,0,-2,1.03418,-0.0507812,0.0078125,28.0625,-11.875,-13.625,-2.53751,-1.53056,2.49295
335,-1,-1,-1,-1,0,-1,0,-1,1.01465,-0.0585938,0.0126953,31.5625,-8.25,-11.5625,-2.61455,-1.53173,2.58116
335,-2,0,0,0,0,0,-1,-2,1.01465,-0.0585938,0.0126953,31.5625,-8.25,-11.5625,-2.61455,-1.53173,2.58116
336,-1,-1,0,-1,-1,-2,-1,-1,1.01465,-0.0585938,0.0126953,31.5625,-8.25,-11.5625,-2.61455,-1.53173,2.58116
336,-2,0,-1,-2,-1,-2,-1,-2,1.01465,-0.0585938,0.0126953,31.5625,-8.25,-11.5625,-2.61455,-1.53173,2.58116
358,-1,-2,-2,-1,-1,1,-2,-3,1.00195,-0.0834961,0.0151367,34.4375,-5.375,-10.125,-2.6546,-1.53212,2.63337
358,0,-1,-1,-1,-1,0,-1,-2,1.00195,-0.0834961,0.0151367,34.4375,-5.375,-10.125,-2.6546,-1.53212,2.63337
359,0,0,0,-2,-1,-2,0,-1,1.00195,-0.0834961,0.0151367,34.4375,-5.375,-10.125,-2.6546,-1.53212,2.63337
359,-1,-1,-1,2,-2,-1,-2,0,1.00195,-0.0834961,0.0151367,34.4375,-5.375,-10.125,-2.6546,-1.53212,2.63337
372,-1,-1,0,0,-1,-2,0,-2,1.00049,-0.09375,0.0151367,37.3125,-3.25,-8.5625,-2.66415,-1.53218,2.65603
372,-1,1,0,0,-1,-2,-2,-2,1.00049,-0.09375,0.0151367,37.3125,-3.25,-8.5625,-2.66415,-1.53218,2.65603
373,-1,-2,0,0,-3,0,-2,-1,1.00049,-0.09375,0.0151367,37.3125,-3.25,-8.5625,-2.66415,-1.53218,2.65603
373,0,-1,-1,-1,1,1,0,-1,1.00049,-0.09375,0.0151367,37.3125,-3.25,-8.5625,-2.66415,-1.53218,2.65603
395,1,3,-2,-2,-1,-1,-1,-1,0.993164,-0.0957031,0.0117188,40,-1.6875,-8.25,-2.66461,-1.53471,2.67056
395,-1,-1,-1,-1,-1,0,0,1,0.993164,-0.0957031,0.0117188,40,-1.6875,-8.25,-2.66461,-1.53471,2.67056
395,-1,-1,-2,0,-2,0,-2,0,0.993164,-0.0957031,0.0117188,40,-1.6875,-8.25,-2.66461,-1.53471,2.67056
395,-1,-1,1,-1,-1,-1,0,0,0.993164,-0.0957031,0.0117188,40,-1.6875,-8.25,-2.66461,-1.53471,2.67056
418,-1,-1,-1,-2,-1,-1,0,-1,0.978027,-0.0913086,0.00878906,38.5,-1.1875,-7.6875,-2.66256,-1.53283,2.68208
418,11,-1,1,0,1,1,-1,-6,0.978027,-0.0913086,0.00878906,38.5,-1.1875,-7.6875,-2.66256,-1.53283,2.68208
419,-9,-3,-2,1,-3,-2,0,-2,0.978027,-0.0913086,0.00878906,38.5,-1.1875,-7.6875,-2.66256,-1.53283,2.68208
419,3,0,-2,0,-1,0,0,2,0.978027,-0.0913086,0.00878906,38.5,-1.1875,-7.6875,-2.66256,-1.53283,2.68208
433,4,-1,-3,-2,0,0,1,4,0.966797,-0.0883789,-0.000488281,36.5,-1.4375,-7.875,-2.67067,-1.53539,2.70302
433,3,-2,-3,-1,-2,-3,1,3,0.966797,-0.0883789,-0.000488281,36.5,-1.4375,-7.875,-2.67067,-1.53539,2.70302
433,-2,-4,-1,-2,-1,0,-2,-2,0.966797,-0.0883789,-0.000488281,36.5,-1.4375,-7.875,-2.67067,-1.53539,2.70302
433,-2,0,-1,0,-1,0,-2,-2,0.966797,-0.0883789,-0.000488281,36.5,-1.4375,-7.875,-2.67067,-1.53539,2.70302
455,-5,-1,-1,-1,-1,0,-2,-1,0.958984,-0.0800781,-0.0170898,32.75,-2.5625,-8.75,-2.70181,-1.53435,2.74568
455,-20,-2,-2,-3,-2,0,-3,2,0.958984,-0.0800781,-0.0170898,32.75,-2.5625,-8.75,-2.70181,-1.53435,2.74568
456,3,1,-1,-1,0,-1,-2,0,0.958984,-0.0800781,-0.0170898,32.75,-2.5625,-8.75,-2.70181,-1.53435,2.74568
456,-2,0,-2,-1,-1,-2,0,-2,0.958984,-0.0800781,-0.0170898,32.75,-2.5625,-8.75,-2.70181,-1.53435,2.74568
478,1,1,-1,-1,-2,-1,1,0,0.951172,-0.0771484,-0.0239258,26.125,-3.875,-9.375,-2.74822,-1.53553,2.80117
478,-2,-2,-1,1,-2,-3,-2,-2,0.951172,-0.0771484,-0.0239258,26.125,-3.875,-9.375,-2.74822,-1.53553,2.80117
479,2,-1,-1,-1,0,1,0,-3,0.951172,-0.0771484,-0.0239258,26.125,-3.875,-9.375,-2.74822,-1.53553,2.80117
479,2,-1,0,0,-1,-1,-2,0,0.951172,-0.0771484,-0.0239258,26.125,-3.875,-9.375,-2.74822,-1.53553,2.80117
491,-2,-1,-1,-2,0,-1,-2,0,0.956055,-0.0795898,-0.0429688,18.8125,-5.9375,-10.375,-2.81157,-1.53292,2.87132
491,0,1,-1,-1,-1,1,2,-2,0.956055,-0.0795898,-0.0429688,18.8125,-5.9375,-10.375,-2.81157,-1.53292,2.87132
500,0,0,-2,-1,-1,-2,-6,0,0.956055,-0.0795898,-0.0429688,18.8125,-5.9375,-10.375,-2.81157,-1.53292,2.87132
500,-2,-3,-1,-2,-2,-2,-1,-2,0.956055,-0.0795898,-0.0429688,18.8125,-5.9375,-10.375,-2.81157,-1.53292,2.87132
515,0,-2,-1,-1,-2,-1,-1,-1,0.967773,-0.0874023,-0.065918,15.875,-8.3125,-11.125,-2.8807,-1.52938,2.9461
515,0,0,0,-3,-3,0,-3,1,0.967773,-0.0874023,-0.065918,15.875,-8.3125,-11.125,-2.8807,-1.52938,2.9461
515,0,1,-2,-1,1,-2,3,-1,0.967773,-0.0874023,-0.065918,15.875,-8.3125,-11.125,-2.8807,-1.52938,2.9461
515,-4,0,-2,-2,-2,0,0,-1,0.967773,-0.0874023,-0.065918,15.875,-8.3125,-11.125,-2.8807,-1.52938,2.9461
546,0,-1,-1,0,-1,-1,-3,0,0.993164,-0.0864258,-0.0878906,14.5625,-10.5625,-11.25,-2.94608,-1.52558,3.01683
546,2,-1,0,-1,-1,-2,1,-2,0.993164,-0.0864258,-0.0878906,14.5625,-10.5625,-11.25,-2.94608,-1.52558,3.01683
546,-2,0,-2,0,0,-1,1,-2,0.993164,-0.0864258,-0.0878906,14.5625,-10.5625,-11.25,-2.94608,-1.52558,3.01683
546,1,-1,0,0,0,0,-1,1,0.993164,-0.0864258,-0.0878906,14.5625,-10.5625,-11.25,-2.94608,-1.52558,3.01683
552,-2,-1,0,0,0,0,0,0,0.989258,-0.0688477,-0.119629,11.875,-11.1875,-10.5625,-3.00597,-1.52081,3.081
552,1,0,-1,0,-1,0,-1,1,0.989258,-0.0688477,-0.119629,11.875,-11.1875,-10.5625,-3.00597,-1.52081,3.081
567,0,0,-2,-1,-3,-1,-1,-2,0.989258,-0.0688477,-0.119629,11.875,-11.1875,-10.5625,-3.00597,-1.52081,3.081
567,-1,-3,-1,0,-1,-2,0,-2,0.989258,-0.0688477,-0.119629,11.875,-11.1875,-10.5625,-3.00597,-1.52081,3.081
575,0,-1,0,-1,-1,-2,-2,-6,0.972656,-0.0551758,-0.149414,8.6875,-12,-9.125,-3.052,-1.51507,3.13011
575,-1,-1,0,0,-1,-1,-1,2,0.972656,-0.0551758,-0.149414,8.6875,-12,-9.125,-3.052,-1.51507,3.13011
575,0,0,0,-2,-1,-1,-2,0,0.972656,-0.0551758,-0.149414,8.6875,-12,-9.125,-3.052,-1.51507,3.13011
575,0,1,-2,0,-1,-2,-1,-1,0.972656,-0.0551758,-0.149414,8.6875,-12,-9.125,-3.052,-1.51507,3.13011
598,-1,-1,-2,-1,-1,-2,-3,-1,0.977539,-0.0473633,-0.18457,3.3125,-13.375,-8.25,-3.08971,-1.50635,-3.11404
598,-1,-1,-3,-3,-1,0,-1,-4,0.977539,-0.0473633,-0.18457,3.3125,-13.375,-8.25,-3.08971,-1.50635,-3.11404
599,-2,0,0,0,-2,0,-1,2,0.977539,-0.0473633,-0.18457,3.3125,-13.375,-8.25,-3.08971,-1.50635,-3.11404
599,-1,1,0,-2,0,0,-1,-1,0.977539,-0.0473633,-0.18457,3.3125,-13.375,-8.25,-3.08971,-1.50635,-3.11404
612,0,-1,-2,0,0,0,16,8,0.981934,-0.0366211,-0.209473,-1.25,-13.5,-5.9375,-3.11286,-1.49839,-3.09124
612,-2,-1,-1,-1,-1,-4,-6,-17,0.981934,-0.0366211,-0.209473,-1.25,-13.5,-5.9375,-3.11286,-1.49839,-3.09124
620,-1,-2,1,-1,-1,-2,-1,-2,0.981934,-0.0366211,-0.209473,-1.25,-13.5,-5.9375,-3.11286,-1.49839,-3.09124
620,-1,-3,-1,-2,-1,-2,-4,-3,0.981934,-0.0366211,-0.209473,-1.25,-13.5,-5.9375,-3.11286,-1.49839,-3.09124
636,0,-1,0,1,-1,-2,2,2,0.968262,-0.0400391,-0.211426,1.125,-14.6875,-3.375,-3.11794,-1.49106,-3.08571
636,-1,-2,-1,0,0,0,2,3,0.968262,-0.0400391,-0.211426,1.125,-14.6875,-3.375,-3.11794,-1.49106,-3.08571
636,0,-2,-2,-1,-1,-1,0,0,0.968262,-0.0400391,-0.211426,1.125,-14.6875,-3.375,-3.11794,-1.49106,-3.08571
636,-1,-1,1,-2,-1,-2,2,-2,0.968262,-0.0400391,-0.211426,1.125,-14.6875,-3.375,-3.11794,-1.49106,-3.08571
659,-1,-1,-2,-2,-3,-3,-6,1,0.959961,-0.0351562,-0.208496,4.0625,-16.625,-0.75,-3.11368,-1.48119,-3.08848
659,0,-2,-1,-1,-1,-1,0,1,0.959961,-0.0351562,-0.208496,4.0625,-16.625,-0.75,-3.11368,-1.48119,-3.08848
659,-2,-2,-2,-2,-2,-2,-3,-1,0.959961,-0.0351562,-0.208496,4.0625,-16.625,-0.75,-3.11368,-1.48119,-3.08848
659,-1,-3,-3,0,-1,-1,-1,2,0.959961,-0.0351562,-0.208496,4.0625,-16.625,-0.75,-3.11368,-1.48119,-3.08848
672,-3,0,-1,-1,-2,-1,-5,-5,0.947266,-0.0258789,-0.200195,4.75,-19.6875,1,-3.10554,-1.47261,-3.09503
672,-1,-1,0,-1,-1,-2,-2,0,0.947266,-0.0258789,-0.200195,4.75,-19.6875,1,-3.10554,-1.47261,-3.09503
680,0,0,-3,-2,-1,-1,2,0,0.947266,-0.0258789,-0.200195,4.75,-19.6875,1,-3.10554,-1.47261,-3.09503
680,-3,0,-1,-2,-2,1,1,-3,0.947266,-0.0258789,-0.200195,4.75,-19.6875,1,-3.10554,-1.47261,-3.09503
695,-1,-1,-1,-1,-2,0,-3,-5,0.955078,-0.0307617,-0.213379,3.0625,-24,2.5625,-3.09417,-1.46089,-3.1052
695,0,-1,-1,1,-1,-1,0,1,0.955078,-0.0307617,-0.213379,3.0625,-24,2.5625,-3.09417,-1.46089,-3.1052
696,1,-2,-1,-1,-1,-1,-2,-2,0.955078,-0.0307617,-0.213379,3.0625,-24,2.5625,-3.09417,-1.46089,-3.1052
696,-2,0,0,1,0,-1,0,0,0.955078,-0.0307617,-0.213379,3.0625,-24,2.5625,-3.09417,-1.46089,-3.1052
718,-2,-1,0,0,-1,-1,-5,-3,0.981934,-0.0224609,-0.234375,0.0625,-28.4375,3.25,-3.08628,-1.44855,-3.11309
718,0,-2,-1,-2,-1,-1,0,2,0.981934,-0.0224609,-0.234375,0.0625,-28.4375,3.25,-3.08628,-1.44855,-3.11309
719,-1,-1,0,-2,-2,-1,0,0,0.981934,-0.0224609,-0.234375,0.0625,-28.4375,3.25,-3.08628,-1.44855,-3.11309
719,-2,0,-2,0,-1,0,3,-2,0.981934,-0.0224609,-0.234375,0.0625,-28.4375,3.25,-3.08628,-1.44855,-3.11309
732,-1,0,0,-1,-1,-2,-4,-2,1.01562,-0.0175781,-0.254883,-2.5625,-30.6875,2.875,-3.08361,-1.4348,-3.11666
732,-1,2,-2,-1,-1,1,-2,4,1.01562,-0.0175781,-0.254883,-2.5625,-30.6875,2.875,-3.08361,-1.4348,-3.11666
741,-1,-1,-1,-1,0,-1,-3,-1,1.01562,-0.0175781,-0.254883,-2.5625,-30.6875,2.875,-3.08361,-1.4348,-3.11666
741,1,-1,0,-1,-1,-2,0,-1,1.01562,-0.0175781,-0.254883,-2.5625,-30.6875,2.875,-3.08361,-1.4348,-3.11666
755,-1,-2,-1,0,0,0,0,-2,1.01807,-0.00927734,-0.27832,-2.375,-31.3125,3.625,-3.08154,-1.4203,-3.1196
755,1,-1,-2,-1,0,0,-1,-1,1.01807,-0.00927734,-0.27832,-2.375,-31.3125,3.625,-3.08154,-1.4203,-3.1196
756,-2,0,0,-1,0,0,2,-1,1.01807,-0.00927734,-0.27832,-2.375,-31.3125,3.625,-3.08154,-1.4203,-3.1196
756,-1,-1,-1,-2,0,0,-2,0,1.01807,-0.00927734,-0.27832,-2.375,-31.3125,3.625,-3.08154,-1.4203,-3.1196
778,0,0,-1,-1,-1,0,-1,-2,0.995605,-0.00390625,-0.276855,-0.25,-33.0625,5.8125,-3.07546,-1.40647,-3.12595
778,0,-1,-1,0,0,0,-1,0,0.995605,-0.00390625,-0.276855,-0.25,-33.0625,5.8125,-3.07546,-1.40647,-3.12595
779,0,-3,-1,0,1,1,-1,-1,0.995605,-0.00390625,-0.276855,-0.25,-33.0625,5.8125,-3.07546,-1.40647,-3.12595
779,0,0,-1,-2,-1,-2,-2,1,0.995605,-0.00390625,-0.276855,-0.25,-33.0625,5.8125,-3.07546,-1.40647,-3.12595
792,-1,1,-2,-3,0,1,1,-4,0.984863,0.0112305,-0.279785,-0.5,-35.9375,7.4375,-3.06999,-1.39134,-3.1317
792,-1,-1,-1,-2,-2,-1,1,-3,0.984863,0.0112305,-0.279785,-0.5,-35.9375,7.4375,-3.06999,-1.39134,-3.1317
800,-1,1,-2,0,-1,-1,2,3,0.984863,0.0112305,-0.279785,-0.5,-35.9375,7.4375,-3.06999,-1.39134,-3.1317
800,0,-2,-1,-2,0,-2,-4,-3,0.984863,0.0112305,-0.279785,-0.5,-35.9375,7.4375,-3.06999,-1.39134,-3.1317
815,-2,0,-1,-2,-1,-1,-2,2,0.973633,0.0244141,-0.291992,-2.5,-37.75,7.75,-3.06773,-1.37588,-3.13513
815,0,-3,-1,-2,1,0,0,-2,0.973633,0.0244141,-0.291992,-2.5,-37.75,7.75,-3.06773,-1.37588,-3.13513
815,-1,-2,-1,1,-1,0,-2,-6,0.973633,0.0244141,-0.291992,-2.5,-37.75,7.75,-3.06773,-1.37588,-3.13513
815,0,-1,-1,-1,-1,-1,-1,3,0.973633,0.0244141,-0.291992,-2.5,-37.75,7.75,-3.06773,-1.37588,-3.13513
838,0,-1,-1,-2,-1,0,4,-3,0.961426,0.0415039,-0.304199,-4.875,-38.5,7,-3.0696,-1.35992,-3.13526
838,-2,0,-2,0,-3,0,9,2,0.961426,0.0415039,-0.304199,-4.875,-38.5,7,-3.0696,-1.35992,-3.13526
845,-1,-1,-1,0,-1,-1,-9,-4,0.961426,0.0415039,-0.304199,-4.875,-38.5,7,-3.0696,-1.35992,-3.13526
845,1,-1,-2,0,-1,-1,-3,-2,0.961426,0.0415039,-0.304199,-4.875,-38.5,7,-3.0696,-1.35992,-3.13526
852,-1,0,-3,-1,0,-1,-2,-1,0.962891,0.0385742,-0.296875,-9.8125,-37.75,6.375,-3.074,-1.34503,-3.13454
852,-1,-1,-2,0,-2,-1,0,-1,0.962891,0.0385742,-0.296875,-9.8125,-37.75,6.375,-3.074,-1.34503,-3.13454
860,-1,0,-1,-1,0,-2,2,0,0.962891,0.0385742,-0.296875,-9.8125,-37.75,6.375,-3.074,-1.34503,-3.13454
860,-2,0,-2,-2,-1,-2,0,3,0.962891,0.0385742,-0.296875,-9.8125,-37.75,6.375,-3.074,-1.34503,-3.13454
875,-1,-1,0,-1,-2,0,-2,-1,0.949219,0.0268555,-0.293945,-13,-37.1875,5.6875,-3.07863,-1.3303,-3.1348
875,-2,-2,-1,0,0,-2,-3,0,0.949219,0.0268555,-0.293945,-13,-37.1875,5.6875,-3.07863,-1.3303,-3.1348
875,0,0,-1,-2,0,-2,0,5,0.949219,0.0268555,-0.293945,-13,-37.1875,5.6875,-3.07863,-1.3303,-3.1348
875,-1,-2,-3,-1,1,-1,-2,-8,0.949219,0.0268555,-0.293945,-13,-37.1875,5.6875,-3.07863,-1.3303,-3.1348
898,0,-1,-1,-1,-2,-2,-3,0,0.916016,0.0185547,-0.297363,-12.25,-37.9375,4.75,-3.08317,-1.31609,-3.13476
898,0,-1,0,-2,-2,-2,-4,-1,0.916016,0.0185547,-0.297363,-12.25,-37.9375,4.75,-3.08317,-1.31609,-3.13476
898,-1,-1,0,-1,-1,2,0,-1,0.916016,0.0185547,-0.297363,-12.25,-37.9375,4.75,-3.08317,-1.31609,-3.13476
898,0,-1,-1,-2,-1,0,1,2,0.916016,0.0185547,-0.297363,-12.25,-37.9375,4.75,-3.08317,-1.31609,-3.13476
921,0,-1,0,-1,0,-1,-2,0,0.914551,0.0219727,-0.29834,-12.3125,-38.9375,2.4375,-3.09026,-1.301,-3.13202
921,0,-2,1,-2,1,-2,-3,-7,0.914551,0.0219727,-0.29834,-12.3125,-38.9375,2.4375,-3.09026,-1.301,-3.13202
922,0,-1,0,0,-1,-2,-2,0,0.914551,0.0219727,-0.29834,-12.3125,-38.9375,2.4375,-3.09026,-1.301,-3.13202
922,0,0,-1,0,-1,0,-1,2,0.914551,0.0219727,-0.29834,-12.3125,-38.9375,2.4375,-3.09026,-1.301,-3.13202
935,-1,-1,0,-1,0,0,1,-3,0.942383,0.0419922,-0.314453,-14.25,-38.25,-0.75,-3.10332,-1.28709,-3.12406
935,-1,0,-1,0,-1,-1,-2,1,0.942383,0.0419922,-0.314453,-14.25,-38.25,-0.75,-3.10332,-1.28709,-3.12406
935,-1,-2,-1,0,-1,-1,6,-4,0.942383,0.0419922,-0.314453,-14.25,-38.25,-0.75,-3.10332,-1.28709,-3.12406
935,-2,0,0,-2,-3,-1,-6,-1,0.942383,0.0419922,-0.314453,-14.25,-38.25,-0.75,-3.10332,-1.28709,-3.12406
958,-1,-1,-2,0,-1,0,-1,-1,0.964844,0.046875,-0.335938,-16.8125,-35.25,-2.0625,-3.11746,-1.27372,-3.11571
958,0,-1,-2,0,0,0,-3,1,0.964844,0.046875,-0.335938,-16.8125,-35.25,-2.0625,-3.11746,-1.27372,-3.11571
959,0,-1,-1,0,-2,-2,0,-2,0.964844,0.046875,-0.335938,-16.8125,-35.25,-2.0625,-3.11746,-1.27372,-3.11571
959,0,-2,0,0,-1,-1,3,-2,0.964844,0.046875,-0.335938,-16.8125,-35.25,-2.0625,-3.11746,-1.27372,-3.11571
981,-1,-1,-2,-1,-1,-1,0,1,0.945801,0.0522461,-0.33252,-19.125,-31.875,-1.625,-3.13124,-1.26186,-3.10878
981,-1,-1,-1,-1,-1,0,-2,-1,0.945801,0.0522461,-0.33252,-19.125,-31.875,-1.625,-3.13124,-1.26186,-3.10878
981,0,-2,-1,-1,0,-1,-2,-1,0.945801,0.0522461,-0.33252,-19.125,-31.875,-1.625,-3.13124,-1.26186,-3.10878
981,0,-2,-2,-2,-2,-2,0,-2,0.945801,0.0522461,-0.33252,-19.125,-31.875,-1.625,-3.13124,-1.26186,-3.10878
995,0,-2,0,0,0,-3,-2,1,0.914551,0.0493164,-0.312012,-16.5,-30.875,-1.4375,3.14078,-1.25109,-3.10335
995,0,-1,-2,-1,0,-1,-1,-2,0.914551,0.0493164,-0.312012,-16.5,-30.875,-1.4375,3.14078,-1.25109,-3.10335
995,-2,0,-2,-1,-2,0,0,0,0.914551,0.0493164,-0.312012,-16.5,-30.875,-1.4375,3.14078,-1.25109,-3.10335
995,0,0,-2,-1,-1,-1,0,0,0.914551,0.0493164,-0.312012,-16.5,-30.875,-1.4375,3.14078,-1.25109,-3.10335
1019,0,-1,-1,-1,-1,0,-5,-1,0.922852,0.0600586,-0.302246,-15.3125,-30.875,-2.3125,3.12893,-1.24049,-3.09698
1019,-3,0,0,-1,-2,-1,0,-3,0.922852,0.0600586,-0.302246,-15.3125,-30.875,-2.3125,3.12893,-1.24049,-3.09698
1020,-2,0,-2,-2,-2,-2,-5,-1,0.931152,0.0512695,-0.304199,-13.25,-29.0625,-4.375,3.11726,-1.23107,-3.08985
1020,1,-1,-2,-1,0,1,1,-1,0.931152,0.0512695,-0.304199,-13.25,-29.0625,-4.375,3.11726,-1.23107,-3.08985
1041,-1,0,-1,-1,-1,0,-2,-2,0.931152,0.0512695,-0.304199,-13.25,-29.0625,-4.375,3.11726,-1.23107,-3.08985
1041,-2,-1,-1,0,-2,-2,-3,-1,0.931152,0.0512695,-0.304199,-13.25,-29.0625,-4.375,3.11726,-1.23107,-3.08985
1043,-1,-1,0,-1,-2,0,4,0,0.93457,0.0537109,-0.312988,-13.25,-25.5,-5.0625,3.1054,-1.22247,-3.08252
1043,-2,-2,-2,0,-1,0,0,0,0.93457,0.0537109,-0.312988,-13.25,-25.5,-5.0625,3.1054,-1.22247,-3.08252
1054,-2,-3,0,0,-1,-2,2,-3,0.93457,0.0537109,-0.312988,-13.25,-25.5,-5.0625,3.1054,-1.22247,-3.08252
1054,1,-2,-2,-1,1,-1,-2,0,0.93457,0.0537109,-0.312988,-13.25,-25.5,-5.0625,3.1054,-1.22247,-3.08252
1064,0,-1,-2,0,0,-1,-1,1,0.936523,0.0708008,-0.330566,-15.9375,-20.625,-5.1875,3.09179,-1.21562,-3.07451
1064,0,-2,0,0,-2,-1,-3,-3,0.936523,0.0708008,-0.330566,-15.9375,-20.625,-5.1875,3.09179,-1.21562,-3.07451
1077,-1,-1,0,-1,-1,-1,0,0,0.936523,0.0708008,-0.330566,-15.9375,-20.625,-5.1875,3.09179,-1.21562,-3.07451
1077,-1,0,0,-1,0,-2,-2,-2,0.936523,0.0708008,-0.330566,-15.9375,-20.625,-5.1875,3.09179,-1.21562,-3.07451
1086,0,0,-1,-1,-1,-1,-1,-1,0.936523,0.0541992,-0.34375,-15.875,-15.6875,-5.75,3.0796,-1.21015,-3.06767
1086,-2,-1,-1,0,-3,-1,0,-1,0.936523,0.0541992,-0.34375,-15.875,-15.6875,-5.75,3.0796,-1.21015,-3.06767
1101,1,1,0,-1,-1,0,0,0,0.936523,0.0541992,-0.34375,-15.875,-15.6875,-5.75,3.0796,-1.21015,-3.06767
1101,-2,2,-1,-1,-2,0,0,-1,0.936523,0.0541992,-0.34375,-15.875,-15.6875,-5.75,3.0796,-1.21015,-3.06767
1103,-1,-1,-1,0,-1,-2,-4,0,0.937012,0.0493164,-0.34375,-14.3125,-10.6875,-6,3.06807,-1.20685,-3.06096
1103,-1,-2,1,1,1,-2,-1,0,0.937012,0.0493164,-0.34375,-14.3125,-10.6875,-6,3.06807,-1.20685,-3.06096
1123,-2,1,-3,0,-1,-2,1,-2,0.937012,0.0493164,-0.34375,-14.3125,-10.6875,-6,3.06807,-1.20685,-3.06096
1123,-1,-1,-1,-1,-1,-2,-6,-2,0.937012,0.0493164,-0.34375,-14.3125,-10.6875,-6,3.06807,-1.20685,-3.06096
1124,0,-2,0,-2,-1,0,0,-1,0.93457,0.0561523,-0.334473,-11.5625,-5.375,-6.25,3.05672,-1.20512,-3.05338
1124,-3,-1,0,-1,0,-1,3,-3,0.93457,0.0561523,-0.334473,-11.5625,-5.375,-6.25,3.05672,-1.20512,-3.05338
1137,-2,0,-1,-1,-1,-3,-4,1,0.93457,0.0561523,-0.334473,-11.5625,-5.375,-6.25,3.05672,-1.20512,-3.05338
1137,-2,-2,-1,0,-1,0,-1,0,0.93457,0.0561523,-0.334473,-11.5625,-5.375,-6.25,3.05672,-1.20512,-3.05338
1145,-1,-1,0,-1,-1,0,-6,2,0.925781,0.065918,-0.333008,-9,-0.375,-5.6875,3.04643,-1.20542,-3.04599
1145,0,0,-2,1,-1,-1,1,1,0.925781,0.065918,-0.333008,-9,-0.375,-5.6875,3.04643,-1.20542,-3.04599
1160,-1,-1,-1,-2,-1,-1,-5,-3,0.925781,0.065918,-0.333008,-9,-0.375,-5.6875,3.04643,-1.20542,-3.04599
1160,-1,-2,0,-2,-1,-1,2,2,0.925781,0.065918,-0.333008,-9,-0.375,-5.6875,3.04643,-1.20542,-3.04599
1162,-1,0,-1,-1,-4,0,1,-3,0.925781,0.0751953,-0.334961,-8.6875,4.375,-5.875,3.0348,-1.20668,-3.03708
1162,-1,0,0,-1,-1,-1,-4,-1,0.925781,0.0751953,-0.334961,-8.6875,4.375,-5.875,3.0348,-1.20668,-3.03708
1183,-2,-2,-2,-1,-1,0,1,-1,0.925781,0.0751953,-0.334961,-8.6875,4.375,-5.875,3.0348,-1.20668,-3.03708
1183,0,-1,-2,0,-1,0,0,3,0.925781,0.0751953,-0.334961,-8.6875,4.375,-5.875,3.0348,-1.20668,-3.03708
1184,-2,-2,-1,0,0,-1,1,-2,0.943848,0.0678711,-0.348145,-12.125,9.875,-6.1875,3.02198,-1.21025,-3.02821
1184,-1,0,-3,-1,-2,1,-3,-2,0.943848,0.0678711,-0.348145,-12.125,9.875,-6.1875,3.02198,-1.21025,-3.02821
1197,-1,0,-1,0,-1,-2,-1,1,0.943848,0.0678711,-0.348145,-12.125,9.875,-6.1875,3.02198,-1.21025,-3.02821
1197,-2,-1,0,-1,-3,-3,0,-2,0.943848,0.0678711,-0.348145,-12.125,9.875,-6.1875,3.02198,-1.21025,-3.02821
1206,-2,0,0,-2,1,-2,-4,-3,0.943848,0.0625,-0.362305,-14,15.25,-5.75,3.00909,-1.21485,-3.0198
1206,-1,-1,0,-1,-2,-1,-1,1,0.943848,0.0625,-0.362305,-14,15.25,-5.75,3.00909,-1.21485,-3.0198
1220,-1,-2,0,1,-1,0,0,-1,0.943848,0.0625,-0.362305,-14,15.25,-5.75,3.00909,-1.21485,-3.0198
1220,0,-1,-1,-2,0,-1,0,-3,0.943848,0.0625,-0.362305,-14,15.25,-5.75,3.00909,-1.21485,-3.0198
1227,1,-3,-2,-1,-1,-1,2,0,0.938477,0.0693359,-0.360352,-14.8125,20.25,-5.5,2.99498,-1.22097,-3.01041
1227,0,-1,-2,0,1,-1,-1,-3,0.938477,0.0693359,-0.360352,-14.8125,20.25,-5.5,2.99498,-1.22097,-3.01041
1243,-1,-2,-1,-1,-2,-2,-2,-4,0.938477,0.0693359,-0.360352,-14.8125,20.25,-5.5,2.99498,-1.22097,-3.01041
1243,-1,-1,-2,-1,-1,0,0,1,0.938477,0.0693359,-0.360352,-14.8125,20.25,-5.5,2.99498,-1.22097,-3.01041
1245,0,0,-1,0,0,-2,-3,2,0.928711,0.0776367,-0.354492,-14.6875,24.875,-5.5625,2.97962,-1.22863,-2.99968
1245,0,-2,-2,-1,-1,-2,2,7,0.928711,0.0776367,-0.354492,-14.6875,24.875,-5.5625,2.97962,-1.22863,-2.99968
1257,-3,-1,-2,-1,-3,-2,-2,-13,0.928711,0.0776367,-0.354492,-14.6875,24.875,-5.5625,2.97962,-1.22863,-2.99968
1257,-2,0,0,-2,-1,1,-2,-4,0.928711,0.0776367,-0.354492,-14.6875,24.875,-5.5625,2.97962,-1.22863,-2.99968
1265,-1,-1,0,-2,0,1,-2,-4,0.912598,0.09375,-0.354004,-13.625,29,-5.1875,2.96277,-1.23717,-2.9871
1265,3,-1,-2,-1,0,-1,1,2,0.912598,0.09375,-0.354004,-13.625,29,-5.1875,2.96277,-1.23717,-2.9871
1280,0,-1,-1,-1,1,2,0,2,0.912598,0.09375,-0.354004,-13.625,29,-5.1875,2.96277,-1.23717,-2.9871
1280,-2,-2,-1,-1,-1,-1,0,-1,0.912598,0.09375,-0.354004,-13.625,29,-5.1875,2.96277,-1.23717,-2.9871
1287,0,-1,-3,-1,2,-2,0,-2,0.922852,0.0947266,-0.334473,-12.1875,31.875,-5.3125,2.94475,-1.24693,-2.97282
1287,0,-1,0,-1,-1,0,-3,-3,0.922852,0.0947266,-0.334473,-12.1875,31.875,-5.3125,2.94475,-1.24693,-2.97282
1303,0,0,0,-1,0,0,1,3,0.922852,0.0947266,-0.334473,-12.1875,31.875,-5.3125,2.94475,-1.24693,-2.97282
1303,-2,-3,0,-1,-2,0,-2,-2,0.922852,0.0947266,-0.334473,-12.1875,31.875,-5.3125,2.94475,-1.24693,-2.97282
1305,-1,-2,0,-1,-2,-1,-2,0,0.928711,0.0961914,-0.317871,-13.5,34.25,-4.875,2.92574,-1.2576,-2.95799
1305,-1,2,2,-2,-1,-1,-1,-3,0.928711,0.0961914,-0.317871,-13.5,34.25,-4.875,2.92574,-1.2576,-2.95799
1317,0,-1,-4,0,0,-1,-1,-2,0.928711,0.0961914,-0.317871,-13.5,34.25,-4.875,2.92574,-1.2576,-2.95799
1317,0,-2,-1,-1,-1,0,4,0,0.928711,0.0961914,-0.317871,-13.5,34.25,-4.875,2.92574,-1.2576,-2.95799
1326,0,-1,-2,-1,-1,-3,-4,1,0.913574,0.0981445,-0.30957,-13.75,36.5625,-4.5,2.90506,-1.26878,-2.94147
1326,-2,-2,0,1,-2,0,-2,-2,0.913574,0.0981445,-0.30957,-13.75,36.5625,-4.5,2.90506,-1.26878,-2.94147
1341,0,0,1,-3,-1,0,0,1,0.913574,0.0981445,-0.30957,-13.75,36.5625,-4.5,2.90506,-1.26878,-2.94147
1341,-2,0,-1,0,-1,-1,2,-1,0.913574,0.0981445,-0.30957,-13.75,36.5625,-4.5,2.90506,-1.26878,-2.94147
1347,-1,0,-3,-1,-1,0,2,-2,0.905273,0.111328,-0.29248,-13.75,37.375,-4.5625,2.88215,-1.28028,-2.92271
1347,-2,-2,-1,-1,-1,-1,-4,-2,0.905273,0.111328,-0.29248,-13.75,37.375,-4.5625,2.88215,-1.28028,-2.92271
1364,-1,-1,-1,0,-2,0,1,1,0.905273,0.111328,-0.29248,-13.75,37.375,-4.5625,2.88215,-1.28028,-2.92271
1364,0,-1,-2,2,-2,-3,-2,-1,0.905273,0.111328,-0.29248,-13.75,37.375,-4.5625,2.88215,-1.28028,-2.92271
1365,-2,0,-1,-1,-1,-2,-1,-2,0.890137,0.127441,-0.28418,-14.125,38.3125,-4.375,2.85605,-1.29142,-2.90094
1365,-1,-2,-2,-1,-1,0,11,-1,0.890137,0.127441,-0.28418,-14.125,38.3125,-4.375,2.85605,-1.29142,-2.90094
1376,-1,0,-2,0,-1,-3,-5,-1,0.890137,0.127441,-0.28418,-14.125,38.3125,-4.375,2.85605,-1.29142,-2.90094
1376,-1,-1,2,-1,1,-2,-3,-3,0.890137,0.127441,-0.28418,-14.125,38.3125,-4.375,2.85605,-1.29142,-2.90094
1386,-1,-3,-7,-2,-1,-1,-5,-3,0.881836,0.128906,-0.263184,-14.1875,38.9375,-3.9375,2.82852,-1.30294,-2.87782
1386,-2,-2,0,0,-1,0,0,-1,0.881836,0.128906,-0.263184,-14.1875,38.9375,-3.9375,2.82852,-1.30294,-2.87782
1400,0,0,-1,-1,-2,-1,2,0,0.881836,0.128906,-0.263184,-14.1875,38.9375,-3.9375,2.82852,-1.30294,-2.87782
1400,0,-2,1,-1,0,-2,-1,-1,0.881836,0.128906,-0.263184,-14.1875,38.9375,-3.9375,2.82852,-1.30294,-2.87782
1407,-1,0,2,0,0,0,3,-1,0.881836,0.136719,-0.240723,-13.0625,38.875,-3.1875,2.79917,-1.31433,-2.85244
1407,-3,-1,0,-2,0,-1,-4,-3,0.881836,0.136719,-0.240723,-13.0625,38.875,-3.1875,2.79917,-1.31433,-2.85244
1423,-3,-1,0,-2,-1,-1,-1,0,0.881836,0.136719,-0.240723,-13.0625,38.875,-3.1875,2.79917,-1.31433,-2.85244
1423,0,0,-3,0,-1,0,1,-2,0.881836,0.136719,-0.240723,-13.0625,38.875,-3.1875,2.79917,-1.31433,-2.85244
1425,-2,-1,0,0,-2,-1,-3,0,0.892578,0.117676,-0.208984,-11,37.375,-2.125,2.77143,-1.32608,-2.82797
1425,-1,0,-1,-1,-1,-2,-4,-2,0.892578,0.117676,-0.208984,-11,37.375,-2.125,2.77143,-1.32608,-2.82797
1445,0,0,1,0,0,0,-4,-1,0.892578,0.117676,-0.208984,-11,37.375,-2.125,2.77143,-1.32608,-2.82797
1445,-1,-1,-4,-1,-1,0,3,0,0.892578,0.117676,-0.208984,-11,37.375,-2.125,2.77143,-1.32608,-2.82797
1447,-1,-3,-2,-1,-1,-2,0,-1,0.903809,0.118164,-0.195312,-8.0625,35,-1.625,2.74392,-1.33683,-2.80277
1447,-2,1,-1,-1,0,0,-3,-2,0.903809,0.118164,-0.195312,-8.0625,35,-1.625,2.74392,-1.33683,-2.80277
1460,-2,0,-2,0,-1,-1,3,0,0.903809,0.118164,-0.195312,-8.0625,35,-1.625,2.74392,-1.33683,-2.80277
1460,0,0,-1,-2,0,-3,-3,-2,0.903809,0.118164,-0.195312,-8.0625,35,-1.625,2.74392,-1.33683,-2.80277
1467,-1,-1,1,0,-2,-1,0,-1,0.92627,0.129395,-0.186035,-8.375,33.4375,-0.875,2.71532,-1.34722,-2.77666
1467,-1,-2,-2,1,-1,0,-4,-1,0.92627,0.129395,-0.186035,-8.375,33.4375,-0.875,2.71532,-1.34722,-2.77666
1483,0,-2,-3,-1,-1,-2,0,-1,0.92627,0.129395,-0.186035,-8.375,33.4375,-0.875,2.71532,-1.34722,-2.77666
1483,0,-3,-1,-1,-1,-2,-3,-1,0.92627,0.129395,-0.186035,-8.375,33.4375,-0.875,2.71532,-1.34722,-2.77666
1485,-1,1,2,0,0,-1,-1,-2,0.938477,0.126953,-0.184082,-7.125,32.6875,-0.25,2.68666,-1.35684,-2.75007
1485,0,0,-1,-2,-1,-2,-1,-2,0.938477,0.126953,-0.184082,-7.125,32.6875,-0.25,2.68666,-1.35684,-2.75007
1505,-1,-3,-2,1,-2,-1,-2,2,0.938477,0.126953,-0.184082,-7.125,32.6875,-0.25,2.68666,-1.35684,-2.75007
1505,0,0,-2,0,0,1,-1,0,0.938477,0.126953,-0.184082,-7.125,32.6875,-0.25,2.68666,-1.35684,-2.75007
1507,-2,0,3,1,-1,-1,-1,-1,0.935547,0.117676,-0.174805,-5.875,31.6875,0.8125,2.65989,-1.36689,-2.72481
1507,-2,-4,-8,-1,0,-1,0,0,0.935547,0.117676,-0.174805,-5.875,31.6875,0.8125,2.65989,-1.36689,-2.72481
1519,1,1,-1,-2,0,1,0,-1,0.935547,0.117676,-0.174805,-5.875,31.6875,0.8125,2.65989,-1.36689,-2.72481
1519,-1,-1,-2,-1,0,0,-2,1,0.935547,0.117676,-0.174805,-5.875,31.6875,0.8125,2.65989,-1.36689,-2.72481
1529,-1,0,1,-2,-1,0,0,-1,0.924805,0.118652,-0.169922,-5.0625,31.5,1.9375,2.63204,-1.37611,-2.69831
1529,-1,-1,2,-1,0,-1,-1,-2,0.924805,0.118652,-0.169922,-5.0625,31.5,1.9375,2.63204,-1.37611,-2.69831
1543,-2,-2,0,0,1,0,-1,-2,0.924805,0.118652,-0.169922,-5.0625,31.5,1.9375,2.63204,-1.37611,-2.69831
1543,-1,-2,-1,-1,-1,-1,3,-2,0.924805,0.118652,-0.169922,-5.0625,31.5,1.9375,2.63204,-1.37611,-2.69831
1545,0,2,-1,-1,-2,-2,0,-1,0.92334,0.121094,-0.161621,-3,31.0625,2.1875,2.60364,-1.38533,-2.67049
1545,0,-2,-1,-1,-2,-3,-1,-1,0.92334,0.121094,-0.161621,-3,31.0625,2.1875,2.60364,-1.38533,-2.67049
1565,0,0,-2,-2,-2,-1,0,-1,0.92334,0.121094,-0.161621,-3,31.0625,2.1875,2.60364,-1.38533,-2.67049
1565,-1,-1,0,1,0,0,2,-2,0.92334,0.121094,-0.161621,-3,31.0625,2.1875,2.60364,-1.38533,-2.67049
1567,0,-2,-4,-1,-1,0,-2,-1,0.945312,0.12207,-0.149902,-0.5,31.1875,2,2.57272,-1.39465,-2.63936
1567,0,0,0,-1,-1,-2,-2,0,0.945312,0.12207,-0.149902,-0.5,31.1875,2,2.57272,-1.39465,-2.63936
1580,-1,-2,-1,0,0,-1,2,1,0.945312,0.12207,-0.149902,-0.5,31.1875,2,2.57272,-1.39465,-2.63936
1580,-1,0,-2,-2,-3,-2,-2,-1,0.945312,0.12207,-0.149902,-0.5,31.1875,2,2.57272,-1.39465,-2.63936
1588,0,-2,-2,0,0,-1,-2,-1,0.965332,0.12207,-0.131348,-2.875,31.3125,1.75,2.5353,-1.40335,-2.60255
1588,0,0,-1,-2,-2,-1,-2,-2,0.965332,0.12207,-0.131348,-2.875,31.3125,1.75,2.5353,-1.40335,-2.60255
1604,-2,0,-3,0,-1,0,-3,0,0.965332,0.12207,-0.131348,-2.875,31.3125,1.75,2.5353,-1.40335,-2.60255
1604,-2,-1,-1,-1,-1,-3,0,0,0.965332,0.12207,-0.131348,-2.875,31.3125,1.75,2.5353,-1.40335,-2.60255
1605,-2,0,-2,-1,-1,-2,-1,-1,0.96875,0.117188,-0.119141,-7.3125,31.375,2.5,2.49437,-1.41264,-2.56375
1605,0,0,0,-1,-2,-1,1,0,0.96875,0.117188,-0.119141,-7.3125,31.375,2.5,2.49437,-1.41264,-2.56375
1626,-1,-1,0,-1,0,-2,-2,-3,0.96875,0.117188,-0.119141,-7.3125,31.375,2.5,2.49437,-1.41264,-2.56375
1626,0,-2,-1,-1,0,-1,-2,1,0.96875,0.117188,-0.119141,-7.3125,31.375,2.5,2.49437,-1.41264,-2.56375
1627,-2,0,0,-1,1,-2,1,-2,0.960449,0.116699,-0.109375,-9.8125,31.1875,3.375,2.44995,-1.42174,-2.52225
1627,-2,-1,0,-1,1,-1,0,-1,0.960449,0.116699,-0.109375,-9.8125,31.1875,3.375,2.44995,-1.42174,-2.52225
1640,1,0,-1,-2,-1,0,-1,-2,0.960449,0.116699,-0.109375,-9.8125,31.1875,3.375,2.44995,-1.42174,-2.52225
1640,-1,1,-1,-1,0,0,3,1,0.960449,0.116699,-0.109375,-9.8125,31.1875,3.375,2.44995,-1.42174,-2.52225
1653,-1,-2,-2,0,-1,-2,-9,2,0.955566,0.126465,-0.101562,-10.125,31.4375,4.125,2.39993,-1.43042,-2.4754
1653,-1,-1,-1,0,-1,0,-1,-1,0.955566,0.126465,-0.101562,-10.125,31.4375,4.125,2.39993,-1.43042,-2.4754
1664,0,-2,1,-1,0,0,-3,0,0.955566,0.126465,-0.101562,-10.125,31.4375,4.125,2.39993,-1.43042,-2.4754
1664,0,-3,0,-1,-1,1,1,-2,0.955566,0.126465,-0.101562,-10.125,31.4375,4.125,2.39993,-1.43042,-2.4754
1665,-1,-2,-1,0,-1,-1,2,0,0.94873,0.128418,-0.0800781,-10,31.9375,5.1875,2.3436,-1.43886,-2.42219
1665,-2,-1,-1,-1,-1,-1,0,-1,0.94873,0.128418,-0.0800781,-10,31.9375,5.1875,2.3436,-1.43886,-2.42219
1686,-2,-2,-3,-2,-2,-1,-2,1,0.94873,0.128418,-0.0800781,-10,31.9375,5.1875,2.3436,-1.43886,-2.42219
1686,-1,1,-1,1,-1,0,-3,-2,0.94873,0.128418,-0.0800781,-10,31.9375,5.1875,2.3436,-1.43886,-2.42219
1687,-1,1,-1,-2,0,0,1,0,0.950684,0.124512,-0.0649414,-10.1875,31.375,6.0625,2.28141,-1.44751,-2.36317
1687,1,-1,-2,0,0,0,-3,-1,0.950684,0.124512,-0.0649414,-10.1875,31.375,6.0625,2.28141,-1.44751,-2.36317
1700,-2,-1,0,0,1,-2,0,-2,0.950684,0.124512,-0.0649414,-10.1875,31.375,6.0625,2.28141,-1.44751,-2.36317
1700,-2,0,-1,-1,-1,-1,-3,0,0.950684,0.124512,-0.0649414,-10.1875,31.375,6.0625,2.28141,-1.44751,-2.36317
1708,-1,-1,-3,-1,-1,-1,-1,-2,0.960938,0.102539,-0.0541992,-9,30.5625,6.25,2.21665,-1.45624,-2.30113
1708,-1,-1,1,-1,-1,-1,-1,-2,0.960938,0.102539,-0.0541992,-9,30.5625,6.25,2.21665,-1.45624,-2.30113
1724,1,-1,0,-1,-1,-1,1,-1,0.960938,0.102539,-0.0541992,-9,30.5625,6.25,2.21665,-1.45624,-2.30113
1724,-2,-1,-1,0,-1,-2,-2,0,0.960938,0.102539,-0.0541992,-9,30.5625,6.25,2.21665,-1.45624,-2.30113
1725,0,-2,-2,0,-1,-2,-1,0,0.978027,0.103516,-0.0522461,-9.375,30.1875,6.5625,2.14382,-1.4636,-2.23125
1725,-3,-1,-1,-1,0,-3,0,-1,0.978027,0.103516,-0.0522461,-9.375,30.1875,6.5625,2.14382,-1.4636,-2.23125
1746,-1,1,-1,-1,-1,-3,-1,-1,0.978027,0.103516,-0.0522461,-9.375,30.1875,6.5625,2.14382,-1.4636,-2.23125
1746,-1,-3,-2,-1,-1,-1,-2,-1,0.978027,0.103516,-0.0522461,-9.375,30.1875,6.5625,2.14382,-1.4636,-2.23125
1747,-1,1,0,-2,-1,1,0,0,0.977539,0.108887,-0.043457,-9.8125,30.8125,6.9375,2.06046,-1.47093,-2.15088
1747,-2,-1,-2,-1,-1,1,0,-1,0.977539,0.108887,-0.043457,-9.8125,30.8125,6.9375,2.06046,-1.47093,-2.15088
1760,0,-2,0,-3,-1,-1,-2,-2,0.977539,0.108887,-0.043457,-9.8125,30.8125,6.9375,2.06046,-1.47093,-2.15088
1760,0,-1,0,-1,-1,-1,-1,1,0.977539,0.108887,-0.043457,-9.8125,30.8125,6.9375,2.06046,-1.47093,-2.15088
1769,-3,-2,-1,-2,0,-1,-1,-1,0.982422,0.110352,-0.0375977,-11.3125,31.625,7.5,1.96128,-1.47671,-2.05519
1769,0,-2,-3,-1,-2,-1,-2,-2,0.982422,0.110352,-0.0375977,-11.3125,31.625,7.5,1.96128,-1.47671,-2.05519
1783,-3,-1,0,0,-2,-1,-2,-1,0.982422,0.110352,-0.0375977,-11.3125,31.625,7.5,1.96128,-1.47671,-2.05519
1783,-1,0,-1,0,-2,0,0,-2,0.982422,0.110352,-0.0375977,-11.3125,31.625,7.5,1.96128,-1.47671,-2.05519
1784,0,0,-3,-1,-2,-2,0,-1,0.989746,0.11377,-0.0268555,-13.3125,32.75,8.375,1.84652,-1.48281,-1.94464
1784,0,-1,-1,-1,1,-1,-2,-2,0.989746,0.11377,-0.0268555,-13.3125,32.75,8.375,1.84652,-1.48281,-1.94464
1806,-2,-3,0,-1,0,-1,4,-1,0.989746,0.11377,-0.0268555,-13.3125,32.75,8.375,1.84652,-1.48281,-1.94464
1806,0,-2,-1,-1,-2,-2,-4,0,0.989746,0.11377,-0.0268555,-13.3125,32.75,8.375,1.84652,-1.48281,-1.94464
1807,-1,-3,0,0,-1,-2,-1,-2,0.993652,0.104492,-0.0166016,-13.5,33.375,8.875,1.71668,-1.48873,-1.81899
1807,0,-1,0,0,-1,-1,-1,0,0.993652,0.104492,-0.0166016,-13.5,33.375,8.875,1.71668,-1.48873,-1.81899
1829,-1,-1,-1,0,-2,0,1,0,0.993652,0.104492,-0.0166016,-13.5,33.375,8.875,1.71668,-1.48873,-1.81899
1829,-3,-2,0,-2,-2,-2,-1,-2,0.993652,0.104492,-0.0166016,-13.5,33.375,8.875,1.71668,-1.48873,-1.81899
1830,0,-2,-1,-2,-2,-1,1,-2,0.996582,0.0869141,0.00976562,-14.625,32.875,8.75,1.56838,-1.49148,-1.67538
1830,0,0,-3,-1,-1,0,0,0,0.996582,0.0869141,0.00976562,-14.625,32.875,8.75,1.56838,-1.49148,-1.67538
1843,-1,-2,0,0,-1,-1,-1,-1,0.996582,0.0869141,0.00976562,-14.625,32.875,8.75,1.56838,-1.49148,-1.67538
1843,1,1,0,0,-1,-2,-1,-1,0.996582,0.0869141,0.00976562,-14.625,32.875,8.75,1.56838,-1.49148,-1.67538
1845,-2,-2,-2,-1,-1,0,1,-1,1.01074,0.0693359,0.0214844,-17,32.5,8.75,1.41201,-1.49429,-1.52445
1845,-3,-2,-1,0,-1,0,-1,-2,1.01074,0.0693359,0.0214844,-17,32.5,8.75,1.41201,-1.49429,-1.52445
1866,-1,0,-2,-2,0,-2,-3,3,1.01074,0.0693359,0.0214844,-17,32.5,8.75,1.41201,-1.49429,-1.52445
1866,1,0,-1,-1,0,-1,0,-1,1.01074,0.0693359,0.0214844,-17,32.5,8.75,1.41201,-1.49429,-1.52445
1868,-2,0,-1,-2,-1,-3,0,-1,1.00391,0.0644531,0.0322266,-18.0625,32.125,8.3125,1.24988,-1.49431,-1.3682
1868,0,-1,0,-1,-1,-1,0,-1,1.00391,0.0644531,0.0322266,-18.0625,32.125,8.3125,1.24988,-1.49431,-1.3682
1879,-2,0,-2,-1,-1,-1,-3,-1,1.00391,0.0644531,0.0322266,-18.0625,32.125,8.3125,1.24988,-1.49431,-1.3682
1879,-2,0,-2,-2,-1,-1,0,-1,1.00391,0.0644531,0.0322266,-18.0625,32.125,8.3125,1.24988,-1.49431,-1.3682
1888,0,-1,-1,1,0,0,-1,-2,1.00342,0.0551758,0.0537109,-17.8125,31.6875,8.1875,1.09039,-1.49256,-1.2145
1888,0,-1,1,-1,1,-2,-1,0,1.00342,0.0551758,0.0537109,-17.8125,31.6875,8.1875,1.09039,-1.49256,-1.2145
1903,0,-1,-2,-1,-1,0,1,-1,1.00342,0.0551758,0.0537109,-17.8125,31.6875,8.1875,1.09039,-1.49256,-1.2145
1903,0,0,-2,-2,-1,0,-3,-1,1.00342,0.0551758,0.0537109,-17.8125,31.6875,8.1875,1.09039,-1.49256,-1.2145
1905,0,-1,0,-1,-2,-1,-1,-1,0.998535,0.0507812,0.0644531,-18.4375,31.1875,8,0.942159,-1.48917,-1.07224
1905,0,0,-1,0,-1,-2,-1,-2,0.998535,0.0507812,0.0644531,-18.4375,31.1875,8,0.942159,-1.48917,-1.07224
1934,-1,0,-1,-1,-2,0,0,-2,0.998535,0.0507812,0.0644531,-18.4375,31.1875,8,0.942159,-1.48917,-1.07224
1934,-2,0,-1,-1,0,-2,0,-1,0.998535,0.0507812,0.0644531,-18.4375,31.1875,8,0.942159,-1.48917,-1.07224
1935,0,-3,0,0,-1,0,-1,1,0.987793,0.0332031,0.0864258,-19.625,29.8125,7.9375,0.80688,-1.48598,-0.943645
1935,-2,-3,-1,0,-1,-1,-2,-2,0.987793,0.0332031,0.0864258,-19.625,29.8125,7.9375,0.80688,-1.48598,-0.943645
1939,0,-1,2,-1,0,-2,-1,1,0.987793,0.0332031,0.0864258,-19.625,29.8125,7.9375,0.80688,-1.48598,-0.943645
1939,-1,-1,-1,-1,-2,0,-1,-3,0.987793,0.0332031,0.0864258,-19.625,29.8125,7.9375,0.80688,-1.48598,-0.943645
1956,0,-1,-1,-2,-1,0,0,-1,0.999512,0.0205078,0.102051,-20.375,27.875,7.5,0.688821,-1.47979,-0.832199
1956,-1,1,-2,-1,-1,0,0,0,0.999512,0.0205078,0.102051,-20.375,27.875,7.5,0.688821,-1.47979,-0.832199
1963,-1,0,0,-1,-3,-1,-6,0,0.999512,0.0205078,0.102051,-20.375,27.875,7.5,0.688821,-1.47979,-0.832199
1963,2,-1,-1,0,-1,0,-1,-1,0.999512,0.0205078,0.102051,-20.375,27.875,7.5,0.688821,-1.47979,-0.832199
1964,-1,-3,-2,0,0,-1,-1,0,1.00781,0.0112305,0.108887,-21.3125,26.375,7.0625,0.588344,-1.47331,-0.738865
1964,-1,0,-1,-2,-2,-1,-2,0,1.00781,0.0112305,0.108887,-21.3125,26.375,7.0625,0.588344,-1.47331,-0.738865
1986,0,-2,-1,1,0,-1,2,-2,1.00781,0.0112305,0.108887,-21.3125,26.375,7.0625,0.588344,-1.47331,-0.738865
1986,-2,-1,1,-1,-1,-1,-2,-1,1.00781,0.0112305,0.108887,-21.3125,26.375,7.0625,0.588344,-1.47331,-0.738865
1988,0,1,-1,-2,-1,0,-2,0,1.00977,0.012207,0.132324,-19.875,23.375,7.5625,0.503829,-1.46844,-0.661099
1988,0,-2,-1,-1,-1,-2,1,-1,1.00977,0.012207,0.132324,-19.875,23.375,7.5625,0.503829,-1.46844,-0.661099
1999,0,-2,-1,-2,-2,0,1,-2,1.00977,0.012207,0.132324,-19.875,23.375,7.5625,0.503829,-1.46844,-0.661099
1999,-1,-2,-2,-1,-1,-1,-1,0,1.00977,0.012207,0.132324,-19.875,23.375,7.5625,0.503829,-1.46844,-0.661099
2009,-1,1,-1,-1,-1,-1,0,-1,1,0.00830078,0.125977,-19.0625,20.375,8.625,0.430004,-1.46253,-0.593623
2009,-2,0,-1,-1,-1,-1,-2,1,1,0.00830078,0.125977,-19.0625,20.375,8.625,0.430004,-1.46253,-0.593623
2023,-2,0,-1,-1,-1,-2,-2,-3,1,0.00830078,0.125977,-19.0625,20.375,8.625,0.430004,-1.46253,-0.593623
2023,-1,1,-1,-1,-1,-1,0,0,1,0.00830078,0.125977,-19.0625,20.375,8.625,0.430004,-1.46253,-0.593623
2026,-1,1,-2,0,-1,-1,-1,-1,0.983887,0.015625,0.124023,-17.625,17.9375,9.6875,0.367024,-1.45829,-0.536544
2026,0,0,-1,0,0,-1,-2,0,0.983887,0.015625,0.124023,-17.625,17.9375,9.6875,0.367024,-1.45829,-0.536544
2046,-1,-2,-2,-1,0,0,0,0,0.983887,0.015625,0.124023,-17.625,17.9375,9.6875,0.367024,-1.45829,-0.536544
2046,-1,-2,-1,-3,0,-2,-1,-1,0.983887,0.015625,0.124023,-17.625,17.9375,9.6875,0.367024,-1.45829,-0.536544
2047,-1,1,0,0,0,-1,-2,0,0.969727,0.0219727,0.129883,-15.375,15.6875,10.5625,0.312038,-1.45395,-0.486695
2047,-1,-1,-1,-1,0,1,-1,0,0.969727,0.0219727,0.129883,-15.375,15.6875,10.5625,0.312038,-1.45395,-0.486695
2059,-2,-1,-3,-1,-2,-1,-1,0,0.969727,0.0219727,0.129883,-15.375,15.6875,10.5625,0.312038,-1.45395,-0.486695
2059,-2,-2,-1,0,-1,0,0,0,0.969727,0.0219727,0.129883,-15.375,15.6875,10.5625,0.312038,-1.45395,-0.486695
2069,-1,-2,-1,-1,-2,-2,-1,0,0.976562,0.0107422,0.132812,-14.5,13.4375,10.875,0.259607,-1.44974,-0.438907
2069,0,-2,-1,-2,-3,-2,-1,-1,0.976562,0.0107422,0.132812,-14.5,13.4375,10.875,0.259607,-1.44974,-0.438907
2084,-1,-1,0,-2,-3,0,-1,-2,0.976562,0.0107422,0.132812,-14.5,13.4375,10.875,0.259607,-1.44974,-0.438907
2084,0,0,-2,-2,-1,-1,-2,1,0.976562,0.0107422,0.132812,-14.5,13.4375,10.875,0.259607,-1.44974,-0.438907
2085,-1,-3,-1,0,0,0,2,-3,0.97998,0.0078125,0.132812,-13.5,12.0625,11.4375,0.211788,-1.44643,-0.395535
2085,-1,-3,-3,-1,0,-4,-11,2,0.97998,0.0078125,0.132812,-13.5,12.0625,11.4375,0.211788,-1.44643,-0.395535
2105,0,0,0,0,-2,0,-2,-3,0.97998,0.0078125,0.132812,-13.5,12.0625,11.4375,0.211788,-1.44643,-0.395535
2105,-1,-1,-1,-1,-1,-2,-2,-2,0.97998,0.0078125,0.132812,-13.5,12.0625,11.4375,0.211788,-1.44643,-0.395535
2107,0,-2,-3,-1,0,0,-1,-3,0.990234,0.00976562,0.13623,-10.375,10.5,11.625,0.168491,-1.44317,-0.35554
2107,-2,-1,1,-1,1,0,2,-2,0.990234,0.00976562,0.13623,-10.375,10.5,11.625,0.168491,-1.44317,-0.35554
2119,1,-1,-2,-2,-1,-1,-1,0,0.990234,0.00976562,0.13623,-10.375,10.5,11.625,0.168491,-1.44317,-0.35554
2119,1,-1,1,-2,-1,0,-1,2,0.990234,0.00976562,0.13623,-10.375,10.5,11.625,0.168491,-1.44317,-0.35554
2129,-1,-2,-1,-3,-1,-1,-1,-1,1.0127,0.000488281,0.158203,-9.1875,8.1875,11.8125,0.126259,-1.4406,-0.31642
2129,-3,-1,-2,-2,-2,-1,1,-4,1.0127,0.000488281,0.158203,-9.1875,8.1875,11.8125,0.126259,-1.4406,-0.31642
2143,-1,-1,-2,-2,0,-2,-2,1,1.0127,0.000488281,0.158203,-9.1875,8.1875,11.8125,0.126259,-1.4406,-0.31642
2143,-1,0,-1,0,-1,0,2,-1,1.0127,0.000488281,0.158203,-9.1875,8.1875,11.8125,0.126259,-1.4406,-0.31642
2150,-1,-1,1,0,-1,-2,-3,-1,1.03467,-0.00634766,0.177246,-9.9375,5.25,11.875,0.08631,-1.43847,-0.279633
2150,0,0,0,0,-3,1,1,-1,1.03467,-0.00634766,0.177246,-9.9375,5.25,11.875,0.08631,-1.43847,-0.279633
2165,0,-1,-1,-1,0,-1,0,0,1.03467,-0.00634766,0.177246,-9.9375,5.25,11.875,0.08631,-1.43847,-0.279633
2165,-1,-1,-1,0,-1,-1,0,-1,1.03467,-0.00634766,0.177246,-9.9375,5.25,11.875,0.08631,-1.43847,-0.279633
2168,0,0,0,-2,0,-1,-1,0,1.04102,-0.0268555,0.1875,-10.125,1.8125,12.3125,0.0434126,-1.43691,-0.240031
2168,-1,1,0,-2,1,-1,0,-1,1.04102,-0.0268555,0.1875,-10.125,1.8125,12.3125,0.0434126,-1.43691,-0.240031
2180,-2,0,0,0,0,0,-1,0,1.04102,-0.0268555,0.1875,-10.125,1.8125,12.3125,0.0434126,-1.43691,-0.240031
2180,-1,-2,-1,-1,-1,1,-2,-1,1.04102,-0.0268555,0.1875,-10.125,1.8125,12.3125,0.0434126,-1.43691,-0.240031
2188,-1,-1,-1,-1,-1,-1,-1,-1,1.02295,-0.0361328,0.184082,-7.625,-1.625,13.375,-0.000322346,-1.43648,-0.198649
2188,-1,-3,0,-1,0,0,0,0,1.02295,-0.0361328,0.184082,-7.625,-1.625,13.375,-0.000322346,-1.43648,-0.198649
2202,-2,-3,-1,-2,0,-2,0,0,1.02295,-0.0361328,0.184082,-7.625,-1.625,13.375,-0.000322346,-1.43648,-0.198649
2202,-2,-2,-1,-2,-2,0,-1,-1,1.02295,-0.0361328,0.184082,-7.625,-1.625,13.375,-0.000322346,-1.43648,-0.198649
2210,-2,-2,-1,-2,-1,-1,0,-2,0.982422,-0.0327148,0.148926,-4.4375,-4,14.8125,-0.0451697,-1.43716,-0.155094
2210,-1,-1,-2,0,-3,-3,-1,1,0.982422,-0.0327148,0.148926,-4.4375,-4,14.8125,-0.0451697,-1.43716,-0.155094
2226,-1,0,-1,-1,0,-3,-1,0,0.982422,-0.0327148,0.148926,-4.4375,-4,14.8125,-0.0451697,-1.43716,-0.155094
2226,-1,-1,-1,-2,-2,0,-1,-2,0.982422,-0.0327148,0.148926,-4.4375,-4,14.8125,-0.0451697,-1.43716,-0.155094
2232,0,0,-1,-2,-1,-1,-2,2,0.932617,-0.0209961,0.126465,0.4375,-4.1875,16.5625,-0.090685,-1.43784,-0.108909
2232,-2,-1,0,-1,-2,0,0,-2,0.932617,-0.0209961,0.126465,0.4375,-4.1875,16.5625,-0.090685,-1.43784,-0.108909
2239,0,0,1,-1,-2,-2,-2,-1,0.932617,-0.0209961,0.126465,0.4375,-4.1875,16.5625,-0.090685,-1.43784,-0.108909
2239,-1,0,0,0,-2,1,-1,0,0.932617,-0.0209961,0.126465,0.4375,-4.1875,16.5625,-0.090685,-1.43784,-0.108909
2248,0,-3,-1,1,-1,-1,0,-1,0.896484,-0.0229492,0.131836,8.4375,-4.5,18.3125,-0.138027,-1.43883,-0.0582617
2248,0,-1,-1,0,-2,0,2,-2,0.896484,-0.0229492,0.131836,8.4375,-4.5,18.3125,-0.138027,-1.43883,-0.0582617
2263,-2,-4,-2,-1,-1,-1,-7,1,0.896484,-0.0229492,0.131836,8.4375,-4.5,18.3125,-0.138027,-1.43883,-0.0582617
2263,-1,-3,-2,0,-2,-2,-1,-3,0.896484,-0.0229492,0.131836,8.4375,-4.5,18.3125,-0.138027,-1.43883,-0.0582617
2270,-3,-1,0,1,-1,-1,-1,-1,0.892578,-0.0493164,0.139648,12.875,-5.5,19.3125,-0.190649,-1.4386,-0.000709089
2270,0,-1,-1,-1,-1,0,-2,-1,0.892578,-0.0493164,0.139648,12.875,-5.5,19.3125,-0.190649,-1.4386,-0.000709089
2286,0,1,-1,-1,-1,0,2,-2,0.892578,-0.0493164,0.139648,12.875,-5.5,19.3125,-0.190649,-1.4386,-0.000709089
2286,-1,-1,0,0,1,-2,-1,0,0.892578,-0.0493164,0.139648,12.875,-5.5,19.3125,-0.190649,-1.4386,-0.000709089
2287,0,-1,-2,-1,-2,-2,-1,0,0.898926,-0.0688477,0.155762,17.0625,-6.875,20.25,-0.245792,-1.43849,0.0607314
2287,0,0,-2,-1,0,-1,0,-1,0.898926,-0.0688477,0.155762,17.0625,-6.875,20.25,-0.245792,-1.43849,0.0607314
2300,-1,-1,1,-2,-2,0,1,-1,0.898926,-0.0688477,0.155762,17.0625,-6.875,20.25,-0.245792,-1.43849,0.0607314
2300,0,-1,-1,-1,-2,-1,-2,-2,0.898926,-0.0688477,0.155762,17.0625,-6.875,20.25,-0.245792,-1.43849,0.0607314
2309,-1,-2,-2,0,0,0,-2,-3,0.911133,-0.0737305,0.168945,21.875,-8.75,21.1875,-0.301776,-1.43785,0.124885
2309,0,-2,-2,-1,0,0,-3,0,0.911133,-0.0737305,0.168945,21.875,-8.75,21.1875,-0.301776,-1.43785,0.124885
2323,-1,0,0,-1,-1,-1,-2,-2,0.911133,-0.0737305,0.168945,21.875,-8.75,21.1875,-0.301776,-1.43785,0.124885
2323,-2,0,0,-1,0,-1,0,0,0.911133,-0.0737305,0.168945,21.875,-8.75,21.1875,-0.301776,-1.43785,0.124885
2330,1,1,-3,0,-1,-1,0,0,0.927246,-0.0737305,0.171875,24.875,-11.1875,21.875,-0.358657,-1.43752,0.191052
2330,-1,1,-1,-2,-1,0,0,-1,0.927246,-0.0737305,0.171875,24.875,-11.1875,21.875,-0.358657,-1.43752,0.191052
2353,-1,-2,-2,0,0,0,1,-1,0.927246,-0.0737305,0.171875,24.875,-11.1875,21.875,-0.358657,-1.43752,0.191052
2353,-1,-1,-1,-1,-2,-2,1,0,0.927246,-0.0737305,0.171875,24.875,-11.1875,21.875,-0.358657,-1.43752,0.191052
2354,0,-1,-1,-3,-2,-1,-1,0,0.947266,-0.0922852,0.178711,24.25,-13.8125,21.125,-0.41631,-1.43715,0.257772
2354,0,-2,-1,-1,0,-3,-2,-1,0.947266,-0.0922852,0.178711,24.25,-13.8125,21.125,-0.41631,-1.43715,0.257772
2368,-1,0,0,-1,0,0,0,0,0.947266,-0.0922852,0.178711,24.25,-13.8125,21.125,-0.41631,-1.43715,0.257772
2368,-2,0,-2,-1,0,-2,-2,-2,0.947266,-0.0922852,0.178711,24.25,-13.8125,21.125,-0.41631,-1.43715,0.257772
2369,0,-3,0,-2,-1,0,0,0,0.958496,-0.123047,0.18457,24.1875,-16.8125,19.625,-0.478083,-1.43723,0.328481
2369,1,-1,-1,0,-2,-2,-1,-1,0.958496,-0.123047,0.18457,24.1875,-16.8125,19.625,-0.478083,-1.43723,0.328481
2382,-2,-1,-2,-1,-1,-2,-1,-1,0.958496,-0.123047,0.18457,24.1875,-16.8125,19.625,-0.478083,-1.43723,0.328481
2382,-1,-1,-2,-1,-2,0,0,0,0.958496,-0.123047,0.18457,24.1875,-16.8125,19.625,-0.478083,-1.43723,0.328481
2389,-2,-1,0,-1,-1,1,4,-1,0.97998,-0.149902,0.164551,25.9375,-19.6875,17.375,-0.542727,-1.43836,0.402646
2389,-2,-2,-2,-2,-1,0,-6,0,0.97998,-0.149902,0.164551,25.9375,-19.6875,17.375,-0.542727,-1.43836,0.402646
2406,1,-1,0,0,0,-1,-2,-2,0.97998,-0.149902,0.164551,25.9375,-19.6875,17.375,-0.542727,-1.43836,0.402646
2406,-1,-2,-3,-4,0,0,-1,0,0.97998,-0.149902,0.164551,25.9375,-19.6875,17.375,-0.542727,-1.43836,0.402646
2407,-1,0,-1,-1,0,-1,1,-1,1.00928,-0.150879,0.157227,27.3125,-22,14.9375,-0.604967,-1.44059,0.474889
2407,-1,-1,-1,-1,-1,-1,1,-2,1.00928,-0.150879,0.157227,27.3125,-22,14.9375,-0.604967,-1.44059,0.474889
2429,-1,0,-2,0,-3,0,0,0,1.00928,-0.150879,0.157227,27.3125,-22,14.9375,-0.604967,-1.44059,0.474889
2429,1,0,-1,0,0,-3,-1,-1,1.00928,-0.150879,0.157227,27.3125,-22,14.9375,-0.604967,-1.44059,0.474889
2430,1,0,1,-1,0,-1,-2,-1,1.02783,-0.147461,0.155273,28.25,-23.6875,12.6875,-0.663875,-1.44189,0.544364
2430,-2,-1,1,0,-1,0,-1,-1,1.02783,-0.147461,0.155273,28.25,-23.6875,12.6875,-0.663875,-1.44189,0.544364
2442,-2,-2,-1,-3,0,-1,-1,-2,1.02783,-0.147461,0.155273,28.25,-23.6875,12.6875,-0.663875,-1.44189,0.544364
2442,-1,-2,-1,-2,-1,0,1,0,1.02783,-0.147461,0.155273,28.25,-23.6875,12.6875,-0.663875,-1.44189,0.544364
2450,-1,-1,-1,0,0,-1,-3,0,1.03613,-0.15332,0.149902,28.75,-25.6875,10.9375,-0.725067,-1.44448,0.616121
2450,-1,-1,-1,-1,-2,-2,-1,-2,1.03613,-0.15332,0.149902,28.75,-25.6875,10.9375,-0.725067,-1.44448,0.616121
2465,0,-2,1,-1,-2,-3,0,-1,1.03613,-0.15332,0.149902,28.75,-25.6875,10.9375,-0.725067,-1.44448,0.616121
2465,-1,-1,-2,1,-3,-2,-1,0,1.03613,-0.15332,0.149902,28.75,-25.6875,10.9375,-0.725067,-1.44448,0.616121
2467,-1,0,-1,-2,-3,0,-2,0,1.04688,-0.161621,0.145996,29.9375,-27.4375,9.8125,-0.78934,-1.44677,0.691332
2467,-1,-3,-2,-1,0,-2,0,0,1.04688,-0.161621,0.145996,29.9375,-27.4375,9.8125,-0.78934,-1.44677,0.691332
2489,1,0,-1,-2,-1,-1,0,0,1.04688,-0.161621,0.145996,29.9375,-27.4375,9.8125,-0.78934,-1.44677,0.691332
2489,0,-1,0,-1,-1,-1,-1,-1,1.04688,-0.161621,0.145996,29.9375,-27.4375,9.8125,-0.78934,-1.44677,0.691332
2490,0,0,-1,-2,-1,-1,-2,-2,1.05664,-0.166016,0.118652,30.0625,-27.5625,8.3125,-0.857105,-1.44955,0.770085
2490,-1,0,-2,-2,-2,-2,0,-3,1.05664,-0.166016,0.118652,30.0625,-27.5625,8.3125,-0.857105,-1.44955,0.770085
2511,-1,-1,-1,0,0,-1,0,0,1.05664,-0.166016,0.118652,30.0625,-27.5625,8.3125,-0.857105,-1.44955,0.770085
2511,1,0,0,0,-2,-1,-1,-2,1.05664,-0.166016,0.118652,30.0625,-27.5625,8.3125,-0.857105,-1.44955,0.770085
2512,0,-1,-1,-2,0,-1,0,0,1.06104,-0.164551,0.0947266,29.8125,-25.75,6.75,-0.921848,-1.45206,0.845731
2512,-1,-3,0,0,-1,-1,-1,-1,1.06104,-0.164551,0.0947266,29.8125,-25.75,6.75,-0.921848,-1.45206,0.845731
2526,0,0,-1,-1,-1,-2,-1,-2,1.06104,-0.164551,0.0947266,29.8125,-25.75,6.75,-0.921848,-1.45206,0.845731
2526,-2,-1,-3,0,0,-2,-1,-1,1.06104,-0.164551,0.0947266,29.8125,-25.75,6.75,-0.921848,-1.45206,0.845731
2527,-1,0,-3,-1,-2,0,0,1,1.06836,-0.164062,0.0683594,30.4375,-22.3125,5.25,-0.980622,-1.45335,0.915517
2527,-1,-1,-3,-1,0,0,2,-2,1.06836,-0.164062,0.0683594,30.4375,-22.3125,5.25,-0.980622,-1.45335,0.915517
2548,-2,-2,-1,-1,0,-1,-1,0,1.06836,-0.164062,0.0683594,30.4375,-22.3125,5.25,-0.980622,-1.45335,0.915517
2548,-1,0,-1,-2,0,-1,-1,-2,1.06836,-0.164062,0.0683594,30.4375,-22.3125,5.25,-0.980622,-1.45335,0.915517
2549,0,1,-1,-5,-1,-1,-2,-2,1.06885,-0.168945,0.043457,30.25,-17.375,3.375,-1.0303,-1.45487,0.976082
2549,0,-1,0,-2,-1,0,-2,0,1.06885,-0.168945,0.043457,30.25,-17.375,3.375,-1.0303,-1.45487,0.976082
2562,-1,-2,-2,-1,-2,-1,-1,0,1.06885,-0.168945,0.043457,30.25,-17.375,3.375,-1.0303,-1.45487,0.976082
2562,-1,-1,-1,1,-1,0,1,-1,1.06885,-0.168945,0.043457,30.25,-17.375,3.375,-1.0303,-1.45487,0.976082
2578,-1,-1,-2,2,-1,-1,-3,0,1.06836,-0.172363,0.0268555,30.8125,-11.375,1.6875,-1.0644,-1.45583,1.02108
2578,0,1,-3,0,-1,2,2,0,1.06836,-0.172363,0.0268555,30.8125,-11.375,1.6875,-1.0644,-1.45583,1.02108
2585,0,-1,-2,0,0,-1,0,-1,1.06836,-0.172363,0.0268555,30.8125,-11.375,1.6875,-1.0644,-1.45583,1.02108
2585,-2,-2,0,-1,-3,-2,-1,-2,1.06836,-0.172363,0.0268555,30.8125,-11.375,1.6875,-1.0644,-1.45583,1.02108
2586,-1,-1,-1,-1,-1,-2,-3,-2,1.0752,-0.165527,0.0141602,30.8125,-4.3125,-0.9375,-1.07804,-1.4557,1.04544
2586,0,-1,0,-1,-1,-2,-1,0,1.0752,-0.165527,0.0141602,30.8125,-4.3125,-0.9375,-1.07804,-1.4557,1.04544
2608,-1,0,0,0,-1,0,-3,-1,1.0752,-0.165527,0.0141602,30.8125,-4.3125,-0.9375,-1.07804,-1.4557,1.04544
2608,1,-1,-1,0,0,-1,0,-1,1.0752,-0.165527,0.0141602,30.8125,-4.3125,-0.9375,-1.07804,-1.4557,1.04544
2609,-1,-2,0,-1,-2,0,0,-2,1.07471,-0.152344,0.0117188,26,3.0625,-3.5625,-1.0694,-1.45622,1.0457
2609,-1,-2,-1,1,-1,-2,-3,-1,1.07471,-0.152344,0.0117188,26,3.0625,-3.5625,-1.0694,-1.45622,1.0457
2622,-1,-2,-1,-2,0,0,2,-1,1.07471,-0.152344,0.0117188,26,3.0625,-3.5625,-1.0694,-1.45622,1.0457
2622,-1,1,-2,-2,-1,-2,-2,0,1.07471,-0.152344,0.0117188,26,3.0625,-3.5625,-1.0694,-1.45622,1.0457
2637,-2,-1,0,-1,-2,-1,0,-2,1.06396,-0.149902,0.00927734,17.4375,9.875,-6,-1.04224,-1.45638,1.02433
2637,-2,-1,0,-1,0,-1,-1,0,1.06396,-0.149902,0.00927734,17.4375,9.875,-6,-1.04224,-1.45638,1.02433
2645,1,-1,-1,-1,-2,0,-3,0,1.06396,-0.149902,0.00927734,17.4375,9.875,-6,-1.04224,-1.45638,1.02433
2645,-1,-2,-2,-2,0,0,0,0,1.06396,-0.149902,0.00927734,17.4375,9.875,-6,-1.04224,-1.45638,1.02433
2648,0,0,-1,0,-1,-2,-2,0,1.05566,-0.152832,0.0112305,7.5,16,-7.75,-1.00175,-1.45493,0.986008
2648,-2,0,-1,-2,-1,-1,0,-1,1.05566,-0.152832,0.0112305,7.5,16,-7.75,-1.00175,-1.45493,0.986008
2668,-2,0,2,0,-1,-1,0,-2,1.05566,-0.152832,0.0112305,7.5,16,-7.75,-1.00175,-1.45493,0.986008
2668,-1,0,-2,0,-1,-2,-4,-1,1.05566,-0.152832,0.0112305,7.5,16,-7.75,-1.00175,-1.45493,0.986008
2670,0,-1,-1,-2,-2,-2,0,0,1.02832,-0.167969,0.0229492,-1.0625,21.4375,-9.75,-0.949358,-1.4525,0.932671
2670,-1,-1,0,-1,-1,-1,0,-1,1.02832,-0.167969,0.0229492,-1.0625,21.4375,-9.75,-0.949358,-1.4525,0.932671
2682,0,-2,-3,-1,0,1,-1,0,1.02832,-0.167969,0.0229492,-1.0625,21.4375,-9.75,-0.949358,-1.4525,0.932671
2682,-1,-2,-1,-2,-2,0,0,-1,1.02832,-0.167969,0.0229492,-1.0625,21.4375,-9.75,-0.949358,-1.4525,0.932671
2691,0,-2,-1,1,-1,-2,-1,0,1.00342,-0.17041,0.0405273,-8.1875,25.875,-12.1875,-0.885931,-1.44907,0.865702
2691,0,-2,-1,-1,0,0,-2,-1,1.00342,-0.17041,0.0405273,-8.1875,25.875,-12.1875,-0.885931,-1.44907,0.865702
2706,-2,-1,-1,-1,-1,1,1,-1,1.00342,-0.17041,0.0405273,-8.1875,25.875,-12.1875,-0.885931,-1.44907,0.865702
2706,-1,-1,-1,0,-1,1,-1,-2,1.00342,-0.17041,0.0405273,-8.1875,25.875,-12.1875,-0.885931,-1.44907,0.865702
2707,-1,-2,-2,-2,-1,0,-3,0,0.984375,-0.180664,0.0625,-15,28.5625,-14.4375,-0.819948,-1.44617,0.793731
2707,-1,-1,-1,-1,-2,-2,-1,-2,0.984375,-0.180664,0.0625,-15,28.5625,-14.4375,-0.819948,-1.44617,0.793731
2728,-1,-1,-2,-1,0,-1,-1,-1,0.984375,-0.180664,0.0625,-15,28.5625,-14.4375,-0.819948,-1.44617,0.793731
2728,-2,0,-1,-2,1,-2,-2,0,0.984375,-0.180664,0.0625,-15,28.5625,-14.4375,-0.819948,-1.44617,0.793731
2730,-1,-2,-2,0,-1,-2,-1,-2,0.980469,-0.201172,0.0703125,-21.125,30,-16.875,-0.754618,-1.44072,0.720191
2730,0,0,0,0,1,0,-1,-1,0.980469,-0.201172,0.0703125,-21.125,30,-16.875,-0.754618,-1.44072,0.720191
2741,0,-2,-1,-1,0,-1,-2,-1,0.980469,-0.201172,0.0703125,-21.125,30,-16.875,-0.754618,-1.44072,0.720191
2741,0,-1,0,1,-1,-1,-4,-2,0.980469,-0.201172,0.0703125,-21.125,30,-16.875,-0.754618,-1.44072,0.720191
2757,0,-1,0,-1,0,-2,2,0,0.985352,-0.213867,0.0844727,-22.5625,30.4375,-20.375,-0.689651,-1.43555,0.646308
2757,0,-2,-2,0,-1,-1,-2,0,0.985352,-0.213867,0.0844727,-22.5625,30.4375,-20.375,-0.689651,-1.43555,0.646308
2766,0,-1,-1,-1,-2,-2,-1,-2,0.985352,-0.213867,0.0844727,-22.5625,30.4375,-20.375,-0.689651,-1.43555,0.646308
2766,1,-2,0,-1,0,0,0,0,0.985352,-0.213867,0.0844727,-22.5625,30.4375,-20.375,-0.689651,-1.43555,0.646308
2767,-1,-2,-1,0,-1,1,-1,1,0.995605,-0.210449,0.107422,-24.125,30.0625,-24,-0.62345,-1.43091,0.570649
2767,0,-1,-1,-2,-2,-1,-1,-1,0.995605,-0.210449,0.107422,-24.125,30.0625,-24,-0.62345,-1.43091,0.570649
2789,1,0,-3,-1,-1,-1,-2,-1,0.995605,-0.210449,0.107422,-24.125,30.0625,-24,-0.62345,-1.43091,0.570649
2789,1,-1,-2,-1,-1,-2,0,-2,0.995605,-0.210449,0.107422,-24.125,30.0625,-24,-0.62345,-1.43091,0.570649
2790,-2,0,0,-1,1,1,-3,-2,1.04346,-0.213867,0.111328,-28.4375,26.8125,-26.3125,-0.56406,-1.42686,0.500252
2790,-1,-1,1,-1,0,0,-3,-3,1.04346,-0.213867,0.111328,-28.4375,26.8125,-26.3125,-0.56406,-1.42686,0.500252
2802,-2,-2,-1,1,-1,-1,-1,-2,1.04346,-0.213867,0.111328,-28.4375,26.8125,-26.3125,-0.56406,-1.42686,0.500252
2802,-1,-2,0,-2,-1,1,0,0,1.04346,-0.213867,0.111328,-28.4375,26.8125,-26.3125,-0.56406,-1.42686,0.500252
2811,-2,-2,-2,0,-3,0,-2,-1,1.06836,-0.182129,0.102051,-38.4375,23.375,-26.75,-0.5122,-1.4236,0.433942
2811,-2,0,1,-2,1,0,2,-1,1.06836,-0.182129,0.102051,-38.4375,23.375,-26.75,-0.5122,-1.4236,0.433942
2826,1,0,-1,-1,0,-2,-12,0,1.06836,-0.182129,0.102051,-38.4375,23.375,-26.75,-0.5122,-1.4236,0.433942
2826,-2,-1,0,-1,-1,0,-1,-1,1.06836,-0.182129,0.102051,-38.4375,23.375,-26.75,-0.5122,-1.4236,0.433942
2827,-1,-2,-1,-1,1,-1,0,0,1.03906,-0.127441,0.101562,-46.9375,22,-23.5625,-0.46786,-1.42096,0.37218
2827,0,0,-3,1,-1,0,0,0,1.03906,-0.127441,0.101562,-46.9375,22,-23.5625,-0.46786,-1.42096,0.37218
2849,-2,-2,-1,-1,-1,0,4,-1,1.03906,-0.127441,0.101562,-46.9375,22,-23.5625,-0.46786,-1.42096,0.37218
2849,-1,-2,-1,-1,-1,-1,-2,0,1.03906,-0.127441,0.101562,-46.9375,22,-23.5625,-0.46786,-1.42096,0.37218
2850,1,-1,-1,-4,1,-1,-2,-3,1.00537,-0.104492,0.113281,-49.9375,18.3125,-17.875,-0.437065,-1.41777,0.323284
2850,-2,-1,-1,-3,0,-1,-1,-1,1.00537,-0.104492,0.113281,-49.9375,18.3125,-17.875,-0.437065,-1.41777,0.323284
2862,-1,1,-1,0,-2,-1,1,0,1.00537,-0.104492,0.113281,-49.9375,18.3125,-17.875,-0.437065,-1.41777,0.323284
2862,0,-1,-2,0,-1,-1,-2,-2,1.00537,-0.104492,0.113281,-49.9375,18.3125,-17.875,-0.437065,-1.41777,0.323284
2878,-2,1,-2,-1,-1,0,0,-1,0.973633,-0.106934,0.141113,-48.8125,13.375,-11.125,-0.425339,-1.41472,0.294105
2878,-1,-3,-1,-1,-1,-2,-2,-2,0.973633,-0.106934,0.141113,-48.8125,13.375,-11.125,-0.425339,-1.41472,0.294105
2886,-3,-5,-3,-2,0,-2,0,-2,0.973633,-0.106934,0.141113,-48.8125,13.375,-11.125,-0.425339,-1.41472,0.294105
2886,-1,1,-2,0,1,-1,1,-1,0.973633,-0.106934,0.141113,-48.8125,13.375,-11.125,-0.425339,-1.41472,0.294105
2887,0,0,0,1,-4,-2,-2,-1,0.913086,-0.103516,0.155762,-39,8.125,-6.1875,-0.423658,-1.41231,0.278487
2887,0,0,-1,-1,-1,-2,-2,-1,0.913086,-0.103516,0.155762,-39,8.125,-6.1875,-0.423658,-1.41231,0.278487
2908,0,0,-1,0,0,-2,-1,-3,0.913086,-0.103516,0.155762,-39,8.125,-6.1875,-0.423658,-1.41231,0.278487
2908,0,2,0,-1,-2,-1,1,3,0.913086,-0.103516,0.155762,-39,8.125,-6.1875,-0.423658,-1.41231,0.278487
2909,-3,-9,-2,-1,0,-2,-1,-2,0.893066,-0.117676,0.172363,-21.0625,2.5625,-4.125,-0.426293,-1.4106,0.273548
2909,0,1,-1,-1,-3,-2,-3,-2,0.893066,-0.117676,0.172363,-21.0625,2.5625,-4.125,-0.426293,-1.4106,0.273548
2922,-1,-4,-2,-1,-1,0,0,0,0.893066,-0.117676,0.172363,-21.0625,2.5625,-4.125,-0.426293,-1.4106,0.273548
2922,0,1,-1,-3,0,-1,-2,-2,0.893066,-0.117676,0.172363,-21.0625,2.5625,-4.125,-0.426293,-1.4106,0.273548
2931,1,-3,0,-1,-1,0,0,1,0.90332,-0.116211,0.182129,-0.6875,-2.375,-3.9375,-0.425361,-1.41016,0.272209
2931,-3,8,-1,-3,-3,-2,0,-3,0.90332,-0.116211,0.182129,-0.6875,-2.375,-3.9375,-0.425361,-1.41016,0.272209
2945,1,15,1,0,-1,-1,0,0,0.90332,-0.116211,0.182129,-0.6875,-2.375,-3.9375,-0.425361,-1.41016,0.272209
2945,-5,-28,-4,0,-2,-2,-2,-3,0.90332,-0.116211,0.182129,-0.6875,-2.375,-3.9375,-0.425361,-1.41016,0.272209
2947,-1,5,0,0,0,-1,0,0,0.92334,-0.0981445,0.169434,18.6875,-6.625,-3.5,-0.421321,-1.41161,0.274687
2947,-2,-5,-3,-1,1,-1,0,-1,0.92334,-0.0981445,0.169434,18.6875,-6.625,-3.5,-0.421321,-1.41161,0.274687
2969,1,8,-1,0,0,0,0,0,0.92334,-0.0981445,0.169434,18.6875,-6.625,-3.5,-0.421321,-1.41161,0.274687
2969,2,6,2,-1,-2,-1,-1,0,0.92334,-0.0981445,0.169434,18.6875,-6.625,-3.5,-0.421321,-1.41161,0.274687
2970,0,-3,-2,-1,-1,-1,0,-1,0.937012,-0.0698242,0.154785,32.5,-9.5,-3.6875,-0.411406,-1.41462,0.276159
2970,-1,-4,0,1,-2,1,-1,1,0.937012,-0.0698242,0.154785,32.5,-9.5,-3.6875,-0.411406,-1.41462,0.276159
2982,0,-3,0,-1,-2,-1,-1,-2,0.937012,-0.0698242,0.154785,32.5,-9.5,-3.6875,-0.411406,-1.41462,0.276159
2982,-1,-2,0,-1,-1,0,0,0,0.937012,-0.0698242,0.154785,32.5,-9.5,-3.6875,-0.411406,-1.41462,0.276159
2990,-2,-4,0,-1,-2,-1,-1,-4,0.95752,-0.0288086,0.134277,35.8125,-11.375,-2.8125,-0.398846,-1.4188,0.276211
2990,1,3,3,-1,0,-2,-1,-1,0.95752,-0.0288086,0.134277,35.8125,-11.375,-2.8125,-0.398846,-1.4188,0.276211
3006,-1,-8,0,0,-1,0,-2,-1,0.95752,-0.0288086,0.134277,35.8125,-11.375,-2.8125,-0.398846,-1.4188,0.276211
3006,-1,5,-1,-2,0,-2,0,-1,0.95752,-0.0288086,0.134277,35.8125,-11.375,-2.8125,-0.398846,-1.4188,0.276211
3007,1,3,-1,-1,0,-1,0,0,0.973633,0.00878906,0.133301,32.875,-13.1875,-1.25,-0.386598,-1.42362,0.275696
3007,-1,0,-3,0,0,-1,0,0,0.973633,0.00878906,0.133301,32.875,-13.1875,-1.25,-0.386598,-1.42362,0.275696
3029,-2,-8,-3,-2,-2,0,1,1,0.973633,0.00878906,0.133301,32.875,-13.1875,-1.25,-0.386598,-1.42362,0.275696
3029,-1,2,-2,0,1,-2,-1,-1,0.973633,0.00878906,0.133301,32.875,-13.1875,-1.25,-0.386598,-1.42362,0.275696
3030,1,2,0,-1,0,-2,-2,0,0.984375,0.0317383,0.129883,23.875,-14.75,-0.1875,-0.377717,-1.42923,0.275322
3030,2,-2,0,0,0,0,-2,-1,0.984375,0.0317383,0.129883,23.875,-14.75,-0.1875,-0.377717,-1.42923,0.275322
3043,-3,-9,-2,-1,0,-1,0,-1,0.984375,0.0317383,0.129883,23.875,-14.75,-0.1875,-0.377717,-1.42923,0.275322
3043,0,6,0,-1,0,1,-1,-1,0.984375,0.0317383,0.129883,23.875,-14.75,-0.1875,-0.377717,-1.42923,0.275322
3051,-2,-2,-2,-1,-3,-2,0,0,0.997559,0.0253906,0.125977,15.6875,-15.75,-1.5,-0.37104,-1.43576,0.27433
3051,-1,-2,0,-1,-1,0,0,-1,0.997559,0.0253906,0.125977,15.6875,-15.75,-1.5,-0.37104,-1.43576,0.27433
3066,-1,11,-1,-1,-1,-1,1,0,0.997559,0.0253906,0.125977,15.6875,-15.75,-1.5,-0.37104,-1.43576,0.27433
3066,-2,-15,-1,-1,-2,-3,-11,0,0.997559,0.0253906,0.125977,15.6875,-15.75,-1.5,-0.37104,-1.43576,0.27433
3067,0,-3,0,0,0,0,-1,-1,0.997559,0.00976562,0.133789,12.3125,-16.125,-3.25,-0.362682,-1.44103,0.270548
3067,-1,-5,-2,-1,-2,-2,0,2,0.997559,0.00976562,0.133789,12.3125,-16.125,-3.25,-0.362682,-1.44103,0.270548
3088,0,3,-2,-1,0,-2,-2,-3,0.997559,0.00976562,0.133789,12.3125,-16.125,-3.25,-0.362682,-1.44103,0.270548
3088,1,12,1,1,0,0,2,-2,0.997559,0.00976562,0.133789,12.3125,-16.125,-3.25,-0.362682,-1.44103,0.270548
3090,-4,-11,-5,-3,-2,-1,-1,-2,0.99707,0.015625,0.10498,13.6875,-15.25,-5.3125,-0.34908,-1.44726,0.261822
3090,-1,0,-1,-1,0,-1,-2,-1,0.99707,0.015625,0.10498,13.6875,-15.25,-5.3125,-0.34908,-1.44726,0.261822
3102,-1,-6,1,-1,-1,0,0,-2,0.99707,0.015625,0.10498,13.6875,-15.25,-5.3125,-0.34908,-1.44726,0.261822
3102,2,8,1,-1,0,1,-1,-1,0.99707,0.015625,0.10498,13.6875,-15.25,-5.3125,-0.34908,-1.44726,0.261822
3111,-2,-5,-2,0,0,-3,-3,-2,0.990723,0.0302734,0.081543,16.125,-12.9375,-6.75,-0.326729,-1.4541,0.24506
3111,-3,-6,-4,-2,-1,0,1,-3,0.990723,0.0302734,0.081543,16.125,-12.9375,-6.75,-0.326729,-1.4541,0.24506
3125,-1,4,3,-1,-2,-3,-1,0,0.990723,0.0302734,0.081543,16.125,-12.9375,-6.75,-0.326729,-1.4541,0.24506
3125,-1,-7,-4,-1,0,-2,1,-2,0.990723,0.0302734,0.081543,16.125,-12.9375,-6.75,-0.326729,-1.4541,0.24506
3132,1,5,0,-1,-1,0,0,0,0.996094,0.0473633,0.0581055,16.25,-10,-8.25,-0.292762,-1.46042,0.21679
3132,-1,-2,-1,0,-1,-3,0,-2,0.996094,0.0473633,0.0581055,16.25,-10,-8.25,-0.292762,-1.46042,0.21679
3148,-1,-3,-2,-2,-1,-2,-2,-1,0.996094,0.0473633,0.0581055,16.25,-10,-8.25,-0.292762,-1.46042,0.21679
3148,-1,-1,3,-1,-2,-2,-1,0,0.996094,0.0473633,0.0581055,16.25,-10,-8.25,-0.292762,-1.46042,0.21679
3149,0,-2,0,-1,0,-2,-1,-1,0.993652,0.0678711,0.046875,13.1875,-6.4375,-8.875,-0.249663,-1.46532,0.178288
3149,0,2,-1,-1,-1,-2,1,2,0.993652,0.0678711,0.046875,13.1875,-6.4375,-8.875,-0.249663,-1.46532,0.178288
3162,0,-3,0,0,-1,1,-2,-1,0.993652,0.0678711,0.046875,13.1875,-6.4375,-8.875,-0.249663,-1.46532,0.178288
3162,-2,-4,-3,0,-2,-1,1,-1,0.993652,0.0678711,0.046875,13.1875,-6.4375,-8.875,-0.249663,-1.46532,0.178288
3170,-1,1,-1,0,-1,-1,0,1,0.993652,0.0864258,0.0380859,8.3125,-2.9375,-8.75,-0.198495,-1.46872,0.130002
3170,0,1,-2,0,-1,-1,-2,-2,0.993652,0.0864258,0.0380859,8.3125,-2.9375,-8.75,-0.198495,-1.46872,0.130002
3186,0,-1,-2,-2,-1,0,-1,-2,0.993652,0.0864258,0.0380859,8.3125,-2.9375,-8.75,-0.198495,-1.46872,0.130002
3186,-2,-4,-4,-1,-1,-1,0,-2,0.993652,0.0864258,0.0380859,8.3125,-2.9375,-8.75,-0.198495,-1.46872,0.130002
3191,1,2,0,0,-3,-1,0,-1,0.993652,0.103027,0.0292969,3,1.125,-9.25,-0.140725,-1.47037,0.073314
3191,0,-5,-1,-1,-1,0,-3,-2,0.993652,0.103027,0.0292969,3,1.125,-9.25,-0.140725,-1.47037,0.073314
3208,-2,-4,-2,-1,1,-2,1,0,0.993652,0.103027,0.0292969,3,1.125,-9.25,-0.140725,-1.47037,0.073314
3208,1,2,-4,-1,0,-1,0,0,0.993652,0.103027,0.0292969,3,1.125,-9.25,-0.140725,-1.47037,0.073314
3210,0,1,-1,-1,-1,-2,1,-1,0.990723,0.10498,0.0356445,-1,4.8125,-9.5,-0.0797999,-1.47075,0.0119629
3210,0,-3,-2,0,-2,0,0,-1,0.990723,0.10498,0.0356445,-1,4.8125,-9.5,-0.0797999,-1.47075,0.0119629
3222,2,2,-3,0,-2,0,-2,-2,0.990723,0.10498,0.0356445,-1,4.8125,-9.5,-0.0797999,-1.47075,0.0119629
3222,-5,-11,1,0,-1,0,-1,-2,0.990723,0.10498,0.0356445,-1,4.8125,-9.5,-0.0797999,-1.47075,0.0119629
3231,-1,1,-5,-3,-2,-2,-1,-1,0.999512,0.104004,0.0537109,-5.75,7.9375,-9.75,-0.0212359,-1.46907,-0.048566
3231,1,0,1,-1,0,0,-2,0,0.999512,0.104004,0.0537109,-5.75,7.9375,-9.75,-0.0212359,-1.46907,-0.048566
3245,-1,-2,-2,-1,-1,0,-1,1,0.999512,0.104004,0.0537109,-5.75,7.9375,-9.75,-0.0212359,-1.46907,-0.048566
3245,-1,2,1,0,-1,-1,-2,1,0.999512,0.104004,0.0537109,-5.75,7.9375,-9.75,-0.0212359,-1.46907,-0.048566
3247,-1,-1,-2,1,0,-1,-1,-2,1.00195,0.0976562,0.0610352,-9.25,10.0625,-9.6875,0.0302216,-1.4673,-0.103361
3247,-2,-2,0,-1,0,0,-2,-1,1.00195,0.0976562,0.0610352,-9.25,10.0625,-9.6875,0.0302216,-1.4673,-0.103361
3268,-2,1,-1,-1,-1,-2,-1,0,1.00195,0.0976562,0.0610352,-9.25,10.0625,-9.6875,0.0302216,-1.4673,-0.103361
3268,-1,-3,-1,-1,-2,0,0,-2,1.00195,0.0976562,0.0610352,-9.25,10.0625,-9.6875,0.0302216,-1.4673,-0.103361
3275,0,-1,1,-1,1,2,0,-1,1.00342,0.104004,0.0639648,-11.9375,11.375,-8.8125,0.0764631,-1.46388,-0.153748
3275,2,1,-3,-2,-2,-2,-4,-1,1.00342,0.104004,0.0639648,-11.9375,11.375,-8.8125,0.0764631,-1.46388,-0.153748
3291,1,-4,0,-1,0,-1,1,0,1.00342,0.104004,0.0639648,-11.9375,11.375,-8.8125,0.0764631,-1.46388,-0.153748
3291,-2,-1,-1,0,-1,0,0,-1,1.00342,0.104004,0.0639648,-11.9375,11.375,-8.8125,0.0764631,-1.46388,-0.153748
3292,-2,-1,0,0,-1,0,-3,-3,0.998047,0.107422,0.0791016,-11.25,12.0625,-8.5,0.117593,-1.46018,-0.198885
3292,-1,-2,1,0,-2,-1,1,0,0.998047,0.107422,0.0791016,-11.25,12.0625,-8.5,0.117593,-1.46018,-0.198885
3306,-2,-3,-5,0,-1,-2,-2,0,0.998047,0.107422,0.0791016,-11.25,12.0625,-8.5,0.117593,-1.46018,-0.198885
3306,0,2,-1,-1,-1,-2,1,0,0.998047,0.107422,0.0791016,-11.25,12.0625,-8.5,0.117593,-1.46018,-0.198885
3308,1,0,0,-1,-2,0,0,0,0.971191,0.105469,0.100098,-10.5,11.4375,-7.625,0.151695,-1.4555,-0.236518
3308,-2,-2,-2,-1,0,0,0,-1,0.971191,0.105469,0.100098,-10.5,11.4375,-7.625,0.151695,-1.4555,-0.236518
3328,-2,0,1,-1,-2,0,0,-3,0.971191,0.105469,0.100098,-10.5,11.4375,-7.625,0.151695,-1.4555,-0.236518
3328,0,-5,-1,-2,-2,-1,-1,-1,0.971191,0.105469,0.100098,-10.5,11.4375,-7.625,0.151695,-1.4555,-0.236518
3330,-1,0,1,1,0,-2,-1,-1,0.941406,0.105957,0.115723,-8.375,10,-6.5625,0.180937,-1.45146,-0.268646
3330,0,-6,-6,-3,-1,-3,-1,-2,0.941406,0.105957,0.115723,-8.375,10,-6.5625,0.180937,-1.45146,-0.268646
3350,0,3,-1,0,-1,-1,-1,-2,0.941406,0.105957,0.115723,-8.375,10,-6.5625,0.180937,-1.45146,-0.268646
3350,1,2,-2,0,1,0,1,1,0.941406,0.105957,0.115723,-8.375,10,-6.5625,0.180937,-1.45146,-0.268646
3351,0,-1,2,-1,1,1,0,1,0.917969,0.105469,0.134277,-3.8125,7.375,-5.5625,0.20627,-1.44788,-0.295399
3351,-1,-2,-2,0,-2,-1,1,0,0.917969,0.105469,0.134277,-3.8125,7.375,-5.5625,0.20627,-1.44788,-0.295399
3365,0,-5,-2,0,0,0,-1,-1,0.917969,0.105469,0.134277,-3.8125,7.375,-5.5625,0.20627,-1.44788,-0.295399
3365,-1,4,-3,-1,-3,-2,-2,-3,0.917969,0.105469,0.134277,-3.8125,7.375,-5.5625,0.20627,-1.44788,-0.295399
3367,-2,-1,-1,-1,0,-2,-1,-1,0.883301,0.107422,0.150391,-1.25,4.6875,-4.25,0.22889,-1.44425,-0.318353
3367,-2,3,-2,0,0,-1,-1,-3,0.883301,0.107422,0.150391,-1.25,4.6875,-4.25,0.22889,-1.44425,-0.318353
3388,-1,-1,0,-1,-2,-1,-2,1,0.883301,0.107422,0.150391,-1.25,4.6875,-4.25,0.22889,-1.44425,-0.318353
3388,1,-2,-4,1,-1,0,-2,0,0.883301,0.107422,0.150391,-1.25,4.6875,-4.25,0.22889,-1.44425,-0.318353
3389,-1,0,-2,0,-2,1,0,0,0.851562,0.101562,0.161621,-0.1875,1,-3.0625,0.247518,-1.44174,-0.336972
3389,-1,-3,2,-1,0,0,0,-2,0.851562,0.101562,0.161621,-0.1875,1,-3.0625,0.247518,-1.44174,-0.336972
3410,0,-2,0,-2,-1,-1,0,-1,0.851562,0.101562,0.161621,-0.1875,1,-3.0625,0.247518,-1.44174,-0.336972
3410,-1,1,1,-1,0,-1,0,0,0.851562,0.101562,0.161621,-0.1875,1,-3.0625,0.247518,-1.44174,-0.336972
3412,-2,-2,-2,-2,-2,0,0,-2,0.836914,0.101074,0.161621,-0.5625,-1.9375,-1.9375,0.26389,-1.44048,-0.353524
3412,-1,2,-1,-1,-1,-1,-1,1,0.836914,0.101074,0.161621,-0.5625,-1.9375,-1.9375,0.26389,-1.44048,-0.353524
3426,1,-2,1,0,0,-1,-1,-1,0.836914,0.101074,0.161621,-0.5625,-1.9375,-1.9375,0.26389,-1.44048,-0.353524
3426,-2,-2,-1,-1,0,-2,-1,-2,0.836914,0.101074,0.161621,-0.5625,-1.9375,-1.9375,0.26389,-1.44048,-0.353524
3427,0,-2,-3,-2,-2,1,0,1,0.825684,0.0874023,0.158691,1.75,-4.5625,-1,0.277624,-1.44014,-0.366557
3427,0,0,2,0,-1,-1,-1,-1,0.825684,0.0874023,0.158691,1.75,-4.5625,-1,0.277624,-1.44014,-0.366557
3448,-1,0,-1,0,0,-2,-2,0,0.825684,0.0874023,0.158691,1.75,-4.5625,-1,0.277624,-1.44014,-0.366557
3448,-1,-2,-1,-1,-1,-1,-2,-1,0.825684,0.0874023,0.158691,1.75,-4.5625,-1,0.277624,-1.44014,-0.366557
3450,-2,-1,-1,-2,-3,-2,-1,-2,0.834961,0.0893555,0.163574,4.25,-6.4375,-0.625,0.292623,-1.44112,-0.380136
3450,-1,0,-1,-1,0,-1,0,-1,0.834961,0.0893555,0.163574,4.25,-6.4375,-0.625,0.292623,-1.44112,-0.380136
3470,-1,-1,-3,0,0,1,-2,-1,0.834961,0.0893555,0.163574,4.25,-6.4375,-0.625,0.292623,-1.44112,-0.380136
3470,-1,0,-1,-3,0,0,1,-1,0.834961,0.0893555,0.163574,4.25,-6.4375,-0.625,0.292623,-1.44112,-0.380136
3473,0,-1,-2,0,1,0,1,-2,0.855957,0.0864258,0.164062,5.25,-8,-0.8125,0.309163,-1.44159,-0.394828
3473,0,1,-1,-2,-2,0,0,-1,0.855957,0.0864258,0.164062,5.25,-8,-0.8125,0.309163,-1.44159,-0.394828
3485,-1,0,-1,-1,0,-1,-1,-2,0.855957,0.0864258,0.164062,5.25,-8,-0.8125,0.309163,-1.44159,-0.394828
3485,0,0,2,0,-1,0,0,-1,0.855957,0.0864258,0.164062,5.25,-8,-0.8125,0.309163,-1.44159,-0.394828
3492,0,0,-2,-2,-1,-2,-2,0,0.880371,0.0830078,0.152344,3.0625,-8.75,-0.9375,0.326336,-1.44258,-0.410934
3492,0,-1,1,-1,0,-1,-1,-3,0.880371,0.0830078,0.152344,3.0625,-8.75,-0.9375,0.326336,-1.44258,-0.410934
3508,0,0,-1,-3,-2,0,2,0,0.880371,0.0830078,0.152344,3.0625,-8.75,-0.9375,0.326336,-1.44258,-0.410934
3508,0,-1,-2,-1,0,-1,-1,-2,0.880371,0.0830078,0.152344,3.0625,-8.75,-0.9375,0.326336,-1.44258,-0.410934
3510,-1,-1,-2,-1,-3,-2,-1,-1,0.90625,0.0805664,0.15625,0.25,-9.1875,-1.0625,0.342052,-1.44399,-0.42655
3510,-1,-2,-1,0,0,-2,0,-2,0.90625,0.0805664,0.15625,0.25,-9.1875,-1.0625,0.342052,-1.44399,-0.42655
3530,-1,-4,0,-2,-2,-1,0,0,0.90625,0.0805664,0.15625,0.25,-9.1875,-1.0625,0.342052,-1.44399,-0.42655
3530,0,0,-1,1,-2,-1,-2,-1,0.90625,0.0805664,0.15625,0.25,-9.1875,-1.0625,0.342052,-1.44399,-0.42655
3533,-2,-2,-1,1,0,0,-2,-1,0.936523,0.0693359,0.15625,-3.6875,-9.75,-0.6875,0.353088,-1.44601,-0.438987
3533,-1,-1,1,-1,-2,-1,-3,-1,0.936523,0.0693359,0.15625,-3.6875,-9.75,-0.6875,0.353088,-1.44601,-0.438987
3545,-3,1,0,-1,-1,-2,-2,-2,0.936523,0.0693359,0.15625,-3.6875,-9.75,-0.6875,0.353088,-1.44601,-0.438987
3545,-1,-1,-2,-1,0,-1,-3,-2,0.936523,0.0693359,0.15625,-3.6875,-9.75,-0.6875,0.353088,-1.44601,-0.438987
3553,-1,0,-2,0,0,-1,-1,-1,0.946289,0.0639648,0.154297,-7.8125,-9.375,0,0.36136,-1.44795,-0.450025
3553,0,0,-2,-1,0,0,-2,0,0.946289,0.0639648,0.154297,-7.8125,-9.375,0,0.36136,-1.44795,-0.450025
3568,-1,-1,0,-1,-3,-2,0,-1,0.946289,0.0639648,0.154297,-7.8125,-9.375,0,0.36136,-1.44795,-0.450025
3568,0,0,-2,-1,-1,1,-1,1,0.946289,0.0639648,0.154297,-7.8125,-9.375,0,0.36136,-1.44795,-0.450025
3569,-1,-1,-2,-2,-1,0,0,-1,0.973633,0.0571289,0.136719,-8.375,-8.5625,-0.3125,0.368576,-1.45003,-0.460185
3569,-1,0,-2,-1,-1,-1,-1,0,0.973633,0.0571289,0.136719,-8.375,-8.5625,-0.3125,0.368576,-1.45003,-0.460185
3591,-1,-1,0,-2,-2,1,-3,0,0.973633,0.0571289,0.136719,-8.375,-8.5625,-0.3125,0.368576,-1.45003,-0.460185
3591,-1,-3,1,-3,-1,-2,-1,-1,0.973633,0.0571289,0.136719,-8.375,-8.5625,-0.3125,0.368576,-1.45003,-0.460185
3597,-3,-2,0,-1,-1,-2,-1,2,0.99707,0.0522461,0.132324,-9.6875,-6.3125,-0.8125,0.373674,-1.45137,-0.468734
3597,0,-1,-1,-1,-1,-2,0,-1,0.99707,0.0522461,0.132324,-9.6875,-6.3125,-0.8125,0.373674,-1.45137,-0.468734
3605,-2,0,-3,0,0,0,-1,1,0.99707,0.0522461,0.132324,-9.6875,-6.3125,-0.8125,0.373674,-1.45137,-0.468734
3605,-2,-1,-1,0,-3,0,-1,-1,0.99707,0.0522461,0.132324,-9.6875,-6.3125,-0.8125,0.373674,-1.45137,-0.468734
3619,1,-3,-1,-2,0,-1,-1,-1,1.01367,0.0483398,0.11377,-11.4375,-2.9375,-1.4375,0.377257,-1.45187,-0.476285
3619,-1,-2,-1,0,-1,-2,-1,-1,1.01367,0.0483398,0.11377,-11.4375,-2.9375,-1.4375,0.377257,-1.45187,-0.476285
3628,-1,-1,-2,-1,-1,-1,-1,-2,1.01367,0.0483398,0.11377,-11.4375,-2.9375,-1.4375,0.377257,-1.45187,-0.476285
3628,0,-1,-2,-1,0,0,0,-1,1.01367,0.0483398,0.11377,-11.4375,-2.9375,-1.4375,0.377257,-1.45187,-0.476285
3630,-1,-1,0,0,-1,-1,0,-1,1.01807,0.0405273,0.0957031,-12.9375,0.9375,-1.375,0.375959,-1.45153,-0.479471
3630,-3,0,-4,1,-2,0,-2,-1,1.01807,0.0405273,0.0957031,-12.9375,0.9375,-1.375,0.375959,-1.45153,-0.479471
3650,0,-1,-2,-1,1,-1,0,0,1.01807,0.0405273,0.0957031,-12.9375,0.9375,-1.375,0.375959,-1.45153,-0.479471
3650,0,-1,-1,-1,0,-2,0,0,1.01807,0.0405273,0.0957031,-12.9375,0.9375,-1.375,0.375959,-1.45153,-0.479471
3658,-2,0,-1,0,-1,0,-1,-1,0.994629,0.0410156,0.0883789,-15.1875,6.25,-0.875,0.368115,-1.45018,-0.476938
3658,-1,-1,0,-1,0,1,-1,0,0.994629,0.0410156,0.0883789,-15.1875,6.25,-0.875,0.368115,-1.45018,-0.476938
3664,0,0,-1,-1,0,-2,0,-2,0.994629,0.0410156,0.0883789,-15.1875,6.25,-0.875,0.368115,-1.45018,-0.476938
3664,0,-1,-1,0,0,-2,0,-2,0.994629,0.0410156,0.0883789,-15.1875,6.25,-0.875,0.368115,-1.45018,-0.476938
3673,0,-1,0,-2,-1,-2,-1,-1,0.969727,0.0444336,0.0874023,-16.4375,11.5,0.4375,0.351843,-1.44764,-0.466364
3673,0,-1,0,-1,-1,-1,-1,0,0.969727,0.0444336,0.0874023,-16.4375,11.5,0.4375,0.351843,-1.44764,-0.466364
3688,-2,-1,1,0,-1,-1,-2,0,0.969727,0.0444336,0.0874023,-16.4375,11.5,0.4375,0.351843,-1.44764,-0.466364
3688,-2,-1,2,-1,-1,0,-1,-1,0.969727,0.0444336,0.0874023,-16.4375,11.5,0.4375,0.351843,-1.44764,-0.466364
3690,-2,-1,2,1,-2,-1,-1,-2,0.95166,0.03125,0.105957,-16.8125,15.9375,1.5625,0.326179,-1.44237,-0.446303
3690,0,-2,0,0,-1,-1,0,2,0.95166,0.03125,0.105957,-16.8125,15.9375,1.5625,0.326179,-1.44237,-0.446303
3710,0,-2,-3,-1,-2,-1,0,0,0.95166,0.03125,0.105957,-16.8125,15.9375,1.5625,0.326179,-1.44237,-0.446303
3710,-2,-1,-4,-3,-1,-1,0,1,0.95166,0.03125,0.105957,-16.8125,15.9375,1.5625,0.326179,-1.44237,-0.446303
3712,0,0,-3,-2,-2,0,-1,0,0.955566,0.00439453,0.132812,-15.625,18.9375,1.9375,0.294209,-1.43656,-0.419764
3712,-2,0,-2,-2,-2,-1,-2,-2,0.955566,0.00439453,0.132812,-15.625,18.9375,1.9375,0.294209,-1.43656,-0.419764
3724,-1,-1,-1,-1,-1,-1,-3,-2,0.955566,0.00439453,0.132812,-15.625,18.9375,1.9375,0.294209,-1.43656,-0.419764
3724,-2,0,-2,-1,-1,-1,-2,1,0.955566,0.00439453,0.132812,-15.625,18.9375,1.9375,0.294209,-1.43656,-0.419764
3733,-1,-2,-2,-2,-1,-1,-1,-2,0.959961,-0.0175781,0.15625,-12.9375,20.375,2.5625,0.25874,-1.42956,-0.38863
3733,-1,2,-2,-3,-2,-1,-2,-1,0.959961,-0.0175781,0.15625,-12.9375,20.375,2.5625,0.25874,-1.42956,-0.38863
3748,-1,-2,-2,-2,-1,1,0,0,0.959961,-0.0175781,0.15625,-12.9375,20.375,2.5625,0.25874,-1.42956,-0.38863
3748,-1,-2,-1,0,0,-1,0,-1,0.959961,-0.0175781,0.15625,-12.9375,20.375,2.5625,0.25874,-1.42956,-0.38863
3749,-2,-2,0,-2,-1,-1,0,-1,0.97168,-0.0180664,0.164062,-11.8125,20.9375,3.0625,0.225906,-1.42241,-0.359826
3749,-1,-2,0,0,-1,0,-1,0,0.97168,-0.0180664,0.164062,-11.8125,20.9375,3.0625,0.225906,-1.42241,-0.359826
3771,0,-1,-1,0,-3,-1,-1,-2,0.97168,-0.0180664,0.164062,-11.8125,20.9375,3.0625,0.225906,-1.42241,-0.359826
3771,0,-1,1,0,-1,-1,-2,-1,0.97168,-0.0180664,0.164062,-11.8125,20.9375,3.0625,0.225906,-1.42241,-0.359826
3772,0,-1,-1,0,0,0,0,0,0.979004,-0.0136719,0.182129,-10.8125,20.625,4.3125,0.195063,-1.41527,-0.332684
3772,0,0,0,1,0,-2,-1,0,0.979004,-0.0136719,0.182129,-10.8125,20.625,4.3125,0.195063,-1.41527,-0.332684
3785,0,-1,-2,-1,0,-1,-2,-1,0.979004,-0.0136719,0.182129,-10.8125,20.625,4.3125,0.195063,-1.41527,-0.332684
3785,-1,0,-1,-1,0,0,-1,0,0.979004,-0.0136719,0.182129,-10.8125,20.625,4.3125,0.195063,-1.41527,-0.332684
3794,0,0,-3,1,-1,-2,1,-1,0.987793,-0.0136719,0.187988,-9.5625,19.3125,5.8125,0.164683,-1.40836,-0.305451
3794,-1,-1,-1,-1,0,2,0,-1,0.987793,-0.0136719,0.187988,-9.5625,19.3125,5.8125,0.164683,-1.40836,-0.305451
3807,-3,0,-1,-2,-1,-2,0,-1,0.987793,-0.0136719,0.187988,-9.5625,19.3125,5.8125,0.164683,-1.40836,-0.305451
3807,-1,1,0,-3,-2,-2,-1,-1,0.987793,-0.0136719,0.187988,-9.5625,19.3125,5.8125,0.164683,-1.40836,-0.305451
3810,-1,-2,0,-3,-1,-1,1,-1,0.992676,-0.0219727,0.187988,-6.9375,17.375,7.375,0.134712,-1.40266,-0.277717
3810,0,-1,0,0,-2,0,-2,-1,0.992676,-0.0219727,0.187988,-6.9375,17.375,7.375,0.134712,-1.40266,-0.277717
3831,0,-1,-1,-1,-1,0,-1,-2,0.992676,-0.0219727,0.187988,-6.9375,17.375,7.375,0.134712,-1.40266,-0.277717
3831,-1,-2,0,-2,-3,-1,-1,2,0.992676,-0.0219727,0.187988,-6.9375,17.375,7.375,0.134712,-1.40266,-0.277717
3832,1,1,1,-1,1,0,-2,0,0.999023,-0.0249023,0.1875,-3.0625,15.5,8.3125,0.106211,-1.39734,-0.250019
3832,-1,-2,-1,-2,-2,0,1,-2,0.999023,-0.0249023,0.1875,-3.0625,15.5,8.3125,0.106211,-1.39734,-0.250019
3844,0,-1,0,-2,-1,-1,-2,0,0.999023,-0.0249023,0.1875,-3.0625,15.5,8.3125,0.106211,-1.39734,-0.250019
3844,-1,-2,-2,-1,-1,-1,-2,-2,0.999023,-0.0249023,0.1875,-3.0625,15.5,8.3125,0.106211,-1.39734,-0.250019
3853,0,-1,0,-1,-1,-2,-2,-1,1.00293,-0.0244141,0.20166,1.6875,13.9375,9.6875,0.0800667,-1.39207,-0.222995
3853,0,-2,-2,-2,1,-2,-1,-2,1.00293,-0.0244141,0.20166,1.6875,13.9375,9.6875,0.0800667,-1.39207,-0.222995
3876,-1,0,-1,1,0,-1,0,0,1.00293,-0.0244141,0.20166,1.6875,13.9375,9.6875,0.0800667,-1.39207,-0.222995
3876,0,-1,-1,-2,-2,1,1,-2,1.00293,-0.0244141,0.20166,1.6875,13.9375,9.6875,0.0800667,-1.39207,-0.222995
3878,1,2,-1,-2,-1,-2,-1,0,1.0127,-0.027832,0.193848,8.9375,12,11.25,0.0545,-1.38818,-0.194009
3878,-1,0,-2,-2,0,-1,-1,-3,1.0127,-0.027832,0.193848,8.9375,12,11.25,0.0545,-1.38818,-0.194009
3899,-1,0,-1,0,0,0,-1,-1,1.0127,-0.027832,0.193848,8.9375,12,11.25,0.0545,-1.38818,-0.194009
3899,-1,0,-3,1,-1,-2,0,-1,1.0127,-0.027832,0.193848,8.9375,12,11.25,0.0545,-1.38818,-0.194009
3900,-1,-3,-3,0,-2,-1,-1,1,1.01318,-0.0234375,0.180176,14.9375,10.5,12.25,0.0326533,-1.38498,-0.166626
3900,-1,-1,0,-1,-1,-2,-3,0,1.01318,-0.0234375,0.180176,14.9375,10.5,12.25,0.0326533,-1.38498,-0.166626
3904,-1,-2,1,-2,-1,-1,-1,-1,1.01318,-0.0234375,0.180176,14.9375,10.5,12.25,0.0326533,-1.38498,-0.166626
3904,0,-2,1,0,0,0,-1,-1,1.01318,-0.0234375,0.180176,14.9375,10.5,12.25,0.0326533,-1.38498,-0.166626
3920,-3,-3,0,1,-2,-2,-1,-3,1.00391,-0.00830078,0.17041,18.875,10.5,13.125,0.0129843,-1.3815,-0.139883
3920,0,-1,-1,0,0,-1,0,0,1.00391,-0.00830078,0.17041,18.875,10.5,13.125,0.0129843,-1.3815,-0.139883
3928,-1,-1,-1,-1,1,-1,-2,-1,1.00391,-0.00830078,0.17041,18.875,10.5,13.125,0.0129843,-1.3815,-0.139883
3928,0,0,0,0,-1,-1,-1,-2,1.00391,-0.00830078,0.17041,18.875,10.5,13.125,0.0129843,-1.3815,-0.139883
3929,-2,-1,-2,-1,-1,0,0,0,0.997559,-0.00830078,0.155762,24,11.125,14.875,-0.00634333,-1.37897,-0.111766
3929,0,-1,0,-2,-2,0,0,-1,0.997559,-0.00830078,0.155762,24,11.125,14.875,-0.00634333,-1.37897,-0.111766
3951,-1,-1,1,-1,-3,-2,0,-1,0.997559,-0.00830078,0.155762,24,11.125,14.875,-0.00634333,-1.37897,-0.111766
3951,-1,-1,0,-2,0,-2,-1,-1,0.997559,-0.00830078,0.155762,24,11.125,14.875,-0.00634333,-1.37897,-0.111766
3952,0,0,0,0,-1,-2,-1,-2,0.992676,-0.00488281,0.129395,30.8125,12.875,16.1875,-0.0240932,-1.376,-0.0826479
3952,-1,-1,-2,-1,-2,-1,0,-2,0.992676,-0.00488281,0.129395,30.8125,12.875,16.1875,-0.0240932,-1.376,-0.0826479
3964,1,1,-4,-1,-1,0,-2,0,0.992676,-0.00488281,0.129395,30.8125,12.875,16.1875,-0.0240932,-1.376,-0.0826479
3964,-2,-1,-2,-1,-1,-3,1,-1,0.992676,-0.00488281,0.129395,30.8125,12.875,16.1875,-0.0240932,-1.376,-0.0826479
3973,-3,0,-1,-2,-1,1,-1,1,0.990234,-0.00244141,0.121094,34.8125,14.8125,15.6875,-0.0383174,-1.37235,-0.0557459
3973,-1,-3,-2,-1,-2,-1,-2,-1,0.990234,-0.00244141,0.121094,34.8125,14.8125,15.6875,-0.0383174,-1.37235,-0.0557459
3988,-1,-1,-1,1,-2,-1,-1,-1,0.990234,-0.00244141,0.121094,34.8125,14.8125,15.6875,-0.0383174,-1.37235,-0.0557459
3988,0,0,-1,-1,-1,0,-1,-2,0.990234,-0.00244141,0.121094,34.8125,14.8125,15.6875,-0.0383174,-1.37235,-0.0557459
3990,-1,0,-2,-1,-1,-1,0,-1,0.983398,0.00830078,0.137695,37,16.5625,16.5625,-0.0505023,-1.36802,-0.0300479
3990,-1,0,-2,-1,-2,-1,0,-1,0.983398,0.00830078,0.137695,37,16.5625,16.5625,-0.0505023,-1.36802,-0.0300479
4011,0,-1,-2,-2,-1,-1,0,0,0.983398,0.00830078,0.137695,37,16.5625,16.5625,-0.0505023,-1.36802,-0.0300479
4011,1,-2,0,-2,-1,-2,-1,-1,0.983398,0.00830078,0.137695,37,16.5625,16.5625,-0.0505023,-1.36802,-0.0300479
4012,-2,0,-2,-1,0,0,-1,-3,0.983887,0.00341797,0.138184,41.875,17.5,17.8125,-0.0626065,-1.36294,-0.0026583
4012,-1,1,0,1,-1,-1,0,-1,0.983887,0.00341797,0.138184,41.875,17.5,17.8125,-0.0626065,-1.36294,-0.0026583
4025,-2,-7,-1,0,-1,-1,4,-2,0.983887,0.00341797,0.138184,41.875,17.5,17.8125,-0.0626065,-1.36294,-0.0026583
4025,-2,0,-1,0,-3,-2,-12,-1,0.983887,0.00341797,0.138184,41.875,17.5,17.8125,-0.0626065,-1.36294,-0.0026583
4033,-1,-7,-2,-2,-2,-2,-2,-2,0.974121,-0.00439453,0.14209,42.375,17.8125,17.25,-0.0733735,-1.35833,0.0234424
4033,0,-1,0,-1,0,-1,-2,1,0.974121,-0.00439453,0.14209,42.375,17.8125,17.25,-0.0733735,-1.35833,0.0234424
4048,1,2,0,2,1,-1,-2,0,0.974121,-0.00439453,0.14209,42.375,17.8125,17.25,-0.0733735,-1.35833,0.0234424
4048,0,0,-2,-1,0,1,2,1,0.974121,-0.00439453,0.14209,42.375,17.8125,17.25,-0.0733735,-1.35833,0.0234424
4055,2,7,-1,-1,0,-1,-1,-1,0.967285,0.00146484,0.159668,38.6875,16.875,15.5,-0.0807135,-1.35324,0.0449333
4055,-5,-8,-2,-1,-1,-2,-1,-1,0.967285,0.00146484,0.159668,38.6875,16.875,15.5,-0.0807135,-1.35324,0.0449333
4070,-5,-9,-2,-1,-2,-2,-1,-1,0.967285,0.00146484,0.159668,38.6875,16.875,15.5,-0.0807135,-1.35324,0.0449333
4070,-3,-1,-1,0,0,0,1,-1,0.967285,0.00146484,0.159668,38.6875,16.875,15.5,-0.0807135,-1.35324,0.0449333
4072,2,-2,1,-1,-2,-1,0,3,0.958496,-0.00683594,0.17627,31.5625,14.75,14.0625,-0.0888629,-1.3486,0.0646293
4072,1,5,-1,1,1,0,0,0,0.958496,-0.00683594,0.17627,31.5625,14.75,14.0625,-0.0888629,-1.3486,0.0646293
4085,4,8,1,0,-1,-1,-2,1,0.958496,-0.00683594,0.17627,31.5625,14.75,14.0625,-0.0888629,-1.3486,0.0646293
4085,0,1,-1,0,-1,0,0,0,0.958496,-0.00683594,0.17627,31.5625,14.75,14.0625,-0.0888629,-1.3486,0.0646293
4093,-5,-4,-2,-2,-2,-1,-2,-4,0.946289,-0.019043,0.18457,22.875,12.0625,12.1875,-0.0975347,-1.34473,0.0817227
4093,-2,-4,-1,-1,-2,0,0,-2,0.946289,-0.019043,0.18457,22.875,12.0625,12.1875,-0.0975347,-1.34473,0.0817227
4108,-1,1,-1,-3,-1,0,-2,1,0.946289,-0.019043,0.18457,22.875,12.0625,12.1875,-0.0975347,-1.34473,0.0817227
4108,-2,-5,-4,0,-1,0,-1,-2,0.946289,-0.019043,0.18457,22.875,12.0625,12.1875,-0.0975347,-1.34473,0.0817227
4115,2,-2,-2,1,-1,-2,-1,-2,0.930664,-0.0180664,0.195312,13.875,8.625,10.375,-0.106682,-1.34162,0.0960832
4115,1,-1,-1,-1,-1,-1,-1,0,0.930664,-0.0180664,0.195312,13.875,8.625,10.375,-0.106682,-1.34162,0.0960832
4131,-2,-1,0,-1,-2,0,-1,-2,0.930664,-0.0180664,0.195312,13.875,8.625,10.375,-0.106682,-1.34162,0.0960832
4131,-1,2,-1,-2,-3,-1,1,0,0.930664,-0.0180664,0.195312,13.875,8.625,10.375,-0.106682,-1.34162,0.0960832
4133,-2,1,0,-1,-1,-1,-2,-1,0.921387,-0.0146484,0.208984,5.4375,4.4375,7.3125,-0.113907,-1.34035,0.105563
4133,0,-2,-1,-2,-1,-1,0,-1,0.921387,-0.0146484,0.208984,5.4375,4.4375,7.3125,-0.113907,-1.34035,0.105563
4153,0,3,-1,1,-1,-1,0,-1,0.921387,-0.0146484,0.208984,5.4375,4.4375,7.3125,-0.113907,-1.34035,0.105563
4153,0,-3,-1,-1,0,-1,1,-2,0.921387,-0.0146484,0.208984,5.4375,4.4375,7.3125,-0.113907,-1.34035,0.105563
4154,-2,-3,-2,0,-2,-2,0,1,0.915039,-0.0209961,0.203613,-2.125,0.3125,4.5625,-0.120878,-1.33994,0.112015
4154,-1,2,-1,0,0,-2,-2,0,0.915039,-0.0209961,0.203613,-2.125,0.3125,4.5625,-0.120878,-1.33994,0.112015
4176,0,-1,-1,-1,-2,-2,-3,-1,0.915039,-0.0209961,0.203613,-2.125,0.3125,4.5625,-0.120878,-1.33994,0.112015
4176,0,-2,0,-1,0,0,0,-1,0.915039,-0.0209961,0.203613,-2.125,0.3125,4.5625,-0.120878,-1.33994,0.112015
4177,0,0,-1,-1,-2,0,-1,-2,0.925293,-0.0288086,0.200195,-5.625,-4,3,-0.128289,-1.34151,0.117602
4177,-1,-1,-2,0,-2,1,0,1,0.925293,-0.0288086,0.200195,-5.625,-4,3,-0.128289,-1.34151,0.117602
4190,-1,-2,0,-2,-2,-1,-2,-2,0.925293,-0.0288086,0.200195,-5.625,-4,3,-0.128289,-1.34151,0.117602
4190,-1,-1,0,-1,-2,-2,0,-1,0.925293,-0.0288086,0.200195,-5.625,-4,3,-0.128289,-1.34151,0.117602
4193,0,2,1,-1,1,-1,0,-1,0.928711,-0.0249023,0.192871,-5.3125,-7.9375,2.125,-0.134735,-1.34466,0.122313
4193,0,1,-1,0,-2,-1,-3,0,0.928711,-0.0249023,0.192871,-5.3125,-7.9375,2.125,-0.134735,-1.34466,0.122313
4205,-4,-8,-2,0,-1,-1,-2,-1,0.928711,-0.0249023,0.192871,-5.3125,-7.9375,2.125,-0.134735,-1.34466,0.122313
4205,-2,-1,-1,0,-1,-1,-1,0,0.928711,-0.0249023,0.192871,-5.3125,-7.9375,2.125,-0.134735,-1.34466,0.122313
4214,0,-1,0,-2,1,0,-1,0,0.931641,-0.0229492,0.187988,-6.375,-10.875,1.375,-0.141304,-1.34872,0.126802
4214,1,0,-1,-1,-1,0,-1,-3,0.931641,-0.0229492,0.187988,-6.375,-10.875,1.375,-0.141304,-1.34872,0.126802
4229,-1,1,-2,-1,-1,0,0,-2,0.931641,-0.0229492,0.187988,-6.375,-10.875,1.375,-0.141304,-1.34872,0.126802
4229,1,-1,-1,0,-2,0,-2,-1,0.931641,-0.0229492,0.187988,-6.375,-10.875,1.375,-0.141304,-1.34872,0.126802
4230,0,-1,0,-1,0,0,0,-1,0.939453,-0.027832,0.189453,-5.4375,-13.4375,1.8125,-0.148414,-1.35359,0.13218
4230,1,1,-1,-3,-2,-2,1,0,0.939453,-0.027832,0.189453,-5.4375,-13.4375,1.8125,-0.148414,-1.35359,0.13218
4251,-1,-1,-3,-1,0,-2,1,0,0.939453,-0.027832,0.189453,-5.4375,-13.4375,1.8125,-0.148414,-1.35359,0.13218
4251,0,-2,-1,-1,0,-2,2,-1,0.939453,-0.027832,0.189453,-5.4375,-13.4375,1.8125,-0.148414,-1.35359,0.13218
4252,-2,-2,-1,-1,-2,0,0,-1,0.953125,-0.0380859,0.185059,-0.75,-16.0625,3.125,-0.158836,-1.35927,0.142607
4252,0,0,-1,-1,-1,-2,-1,-2,0.953125,-0.0380859,0.185059,-0.75,-16.0625,3.125,-0.158836,-1.35927,0.142607
4274,-1,0,-2,-1,-1,0,-1,-1,0.953125,-0.0380859,0.185059,-0.75,-16.0625,3.125,-0.158836,-1.35927,0.142607
4274,-2,-1,-1,0,-1,-1,3,-6,0.953125,-0.0380859,0.185059,-0.75,-16.0625,3.125,-0.158836,-1.35927,0.142607
4275,0,-1,-3,-1,-1,-1,-8,3,0.968262,-0.050293,0.181152,4.5625,-17.875,3.75,-0.170301,-1.36566,0.155811
4275,-2,-2,-1,-1,-1,1,-2,0,0.968262,-0.050293,0.181152,4.5625,-17.875,3.75,-0.170301,-1.36566,0.155811
4288,-1,-1,-1,-2,0,0,0,-1,0.968262,-0.050293,0.181152,4.5625,-17.875,3.75,-0.170301,-1.36566,0.155811
4288,-1,0,1,-1,0,0,0,-2,0.968262,-0.050293,0.181152,4.5625,-17.875,3.75,-0.170301,-1.36566,0.155811
4294,0,0,1,0,-1,-1,3,-3,0.979004,-0.0527344,0.167969,11.875,-19,5.25,-0.183384,-1.3723,0.173236
4294,-1,-2,0,-1,-1,-1,-1,-2,0.979004,-0.0527344,0.167969,11.875,-19,5.25,-0.183384,-1.3723,0.173236
4311,0,2,-1,-2,1,-1,-2,-1,0.979004,-0.0527344,0.167969,11.875,-19,5.25,-0.183384,-1.3723,0.173236
4311,-1,1,0,-2,0,-1,-3,1,0.979004,-0.0527344,0.167969,11.875,-19,5.25,-0.183384,-1.3723,0.173236
4312,-3,0,-1,-1,-1,-2,1,0,0.98584,-0.0512695,0.157715,25.625,-19.625,8,-0.197132,-1.37916,0.196352
4312,-1,-1,0,-1,-2,-2,1,-1,0.98584,-0.0512695,0.157715,25.625,-19.625,8,-0.197132,-1.37916,0.196352
4333,0,-2,-1,1,-1,-1,1,-1,0.98584,-0.0512695,0.157715,25.625,-19.625,8,-0.197132,-1.37916,0.196352
4333,1,-2,-3,0,-1,-1,-3,0,0.98584,-0.0512695,0.157715,25.625,-19.625,8,-0.197132,-1.37916,0.196352
4335,0,-1,-1,-1,-2,-2,-4,-1,0.987793,-0.043457,0.132812,36,-19.375,9.75,-0.211638,-1.38652,0.223864
4335,-2,-1,-1,-1,-1,-2,0,-1,0.987793,-0.043457,0.132812,36,-19.375,9.75,-0.211638,-1.38652,0.223864
4347,-1,-2,-1,-2,-1,-1,0,-1,0.987793,-0.043457,0.132812,36,-19.375,9.75,-0.211638,-1.38652,0.223864
4347,-1,-1,-1,-2,-1,0,-1,0,0.987793,-0.043457,0.132812,36,-19.375,9.75,-0.211638,-1.38652,0.223864
4356,0,-3,-1,0,-3,0,0,-1,0.995605,-0.0351562,0.125,40.75,-18.0625,9.875,-0.223915,-1.39298,0.250783
4356,-2,0,0,-1,-1,-2,-1,0,0.995605,-0.0351562,0.125,40.75,-18.0625,9.875,-0.223915,-1.39298,0.250783
4371,-2,0,-2,-1,-1,-1,-1,0,0.995605,-0.0351562,0.125,40.75,-18.0625,9.875,-0.223915,-1.39298,0.250783
4371,-1,-1,-1,0,-1,-2,0,-1,0.995605,-0.0351562,0.125,40.75,-18.0625,9.875,-0.223915,-1.39298,0.250783
4372,-1,-2,-3,-1,2,0,1,-1,1.00098,-0.0341797,0.139648,39.5,-17.0625,9.625,-0.236159,-1.39821,0.277213
4372,0,-1,-1,0,-2,0,-1,-2,1.00098,-0.0341797,0.139648,39.5,-17.0625,9.625,-0.236159,-1.39821,0.277213
4394,-1,1,-1,-1,-1,-1,-1,0,1.00098,-0.0341797,0.139648,39.5,-17.0625,9.625,-0.236159,-1.39821,0.277213
4394,-2,0,0,-1,-2,-1,-2,-3,1.00098,-0.0341797,0.139648,39.5,-17.0625,9.625,-0.236159,-1.39821,0.277213
4395,-1,0,0,-1,-1,0,0,-1,1.00391,-0.03125,0.144043,30.875,-16,8.6875,-0.249462,-1.40386,0.301791
4395,-1,-2,-2,0,0,0,-1,-2,1.00391,-0.03125,0.144043,30.875,-16,8.6875,-0.249462,-1.40386,0.301791
4407,0,-1,-1,-2,0,-1,-1,0,1.00391,-0.03125,0.144043,30.875,-16,8.6875,-0.249462,-1.40386,0.301791
4407,0,-1,0,0,-1,0,-2,-1,1.00391,-0.03125,0.144043,30.875,-16,8.6875,-0.249462,-1.40386,0.301791
4416,-2,0,-1,-1,-1,-1,-1,-1,0.989258,-0.0307617,0.143555,18.125,-14.6875,7.8125,-0.265825,-1.40835,0.324808
4416,-1,-2,0,-2,0,-1,-1,-1,0.989258,-0.0307617,0.143555,18.125,-14.6875,7.8125,-0.265825,-1.40835,0.324808
4431,-1,-2,-1,-1,-1,-1,-1,-2,0.989258,-0.0307617,0.143555,18.125,-14.6875,7.8125,-0.265825,-1.40835,0.324808
4431,-1,-1,-3,-2,0,-1,-1,0,0.989258,-0.0307617,0.143555,18.125,-14.6875,7.8125,-0.265825,-1.40835,0.324808
4432,-3,0,-2,0,-1,0,-1,-1,0.97998,-0.0273438,0.144531,5,-13.125,5.875,-0.28187,-1.41242,0.342918
4432,0,-1,-2,0,-1,-2,-1,0,0.97998,-0.0273438,0.144531,5,-13.125,5.875,-0.28187,-1.41242,0.342918
4454,1,-3,0,0,0,-2,-1,-1,0.97998,-0.0273438,0.144531,5,-13.125,5.875,-0.28187,-1.41242,0.342918
4454,-2,-2,1,-1,-1,-2,-1,1,0.97998,-0.0273438,0.144531,5,-13.125,5.875,-0.28187,-1.41242,0.342918
4455,-1,0,-1,-1,0,-1,-3,-2,0.973145,-0.0302734,0.147949,-8.8125,-11.1875,3.625,-0.297251,-1.41571,0.355347
4455,0,0,-1,0,-2,0,0,-1,0.973145,-0.0302734,0.147949,-8.8125,-11.1875,3.625,-0.297251,-1.41571,0.355347
4467,0,-1,0,1,0,-1,0,-2,0.973145,-0.0302734,0.147949,-8.8125,-11.1875,3.625,-0.297251,-1.41571,0.355347
4467,-1,-1,-1,-1,-1,0,-1,-2,0.973145,-0.0302734,0.147949,-8.8125,-11.1875,3.625,-0.297251,-1.41571,0.355347
4475,-1,-2,-1,-1,-2,-2,-2,-1,0.96582,-0.0507812,0.154785,-18.25,-10.125,2.5,-0.315593,-1.4188,0.367549
4475,-1,0,-1,-1,0,0,0,-1,0.96582,-0.0507812,0.154785,-18.25,-10.125,2.5,-0.315593,-1.4188,0.367549
4491,-1,-1,-2,0,0,-1,-2,0,0.96582,-0.0507812,0.154785,-18.25,-10.125,2.5,-0.315593,-1.4188,0.367549
4491,-3,-1,0,-1,0,0,-1,0,0.96582,-0.0507812,0.154785,-18.25,-10.125,2.5,-0.315593,-1.4188,0.367549
4492,-3,-1,0,-2,1,-2,0,-2,0.964844,-0.0703125,0.166016,-19.0625,-9.625,2.0625,-0.335968,-1.42051,0.381323
4492,0,-1,-2,-2,1,-2,-1,-3,0.964844,-0.0703125,0.166016,-19.0625,-9.625,2.0625,-0.335968,-1.42051,0.381323
4513,1,-2,-2,-1,-4,0,-1,0,0.964844,-0.0703125,0.166016,-19.0625,-9.625,2.0625,-0.335968,-1.42051,0.381323
4513,0,-1,-1,-2,-1,-1,2,-2,0.964844,-0.0703125,0.166016,-19.0625,-9.625,2.0625,-0.335968,-1.42051,0.381323
4515,1,-2,-1,-1,-3,-1,-6,0,0.96875,-0.0703125,0.171387,-16.1875,-9.6875,1.0625,-0.352706,-1.42249,0.392515
4515,-3,-1,-1,0,-1,0,-3,0,0.96875,-0.0703125,0.171387,-16.1875,-9.6875,1.0625,-0.352706,-1.42249,0.392515
4527,1,0,1,-1,-1,-1,-1,-1,0.96875,-0.0703125,0.171387,-16.1875,-9.6875,1.0625,-0.352706,-1.42249,0.392515
4527,-1,0,-1,0,0,-1,-2,1,0.96875,-0.0703125,0.171387,-16.1875,-9.6875,1.0625,-0.352706,-1.42249,0.392515
4536,0,-1,1,-3,-2,1,2,0,0.972168,-0.0571289,0.172852,-13.625,-9.3125,1.0625,-0.365848,-1.42461,0.401074
4536,0,-1,-1,0,-2,1,-3,-1,0.972168,-0.0571289,0.172852,-13.625,-9.3125,1.0625,-0.365848,-1.42461,0.401074
4550,-1,0,0,-3,-2,-2,-1,-1,0.972168,-0.0571289,0.172852,-13.625,-9.3125,1.0625,-0.365848,-1.42461,0.401074
4550,0,0,-1,-1,-2,0,0,-1,0.972168,-0.0571289,0.172852,-13.625,-9.3125,1.0625,-0.365848,-1.42461,0.401074
4552,0,-1,0,1,-1,-1,2,-1,0.974121,-0.0507812,0.162109,-9.9375,-9.0625,2.125,-0.380218,-1.42644,0.412234
4552,0,-2,0,0,-1,-2,-2,0,0.974121,-0.0507812,0.162109,-9.9375,-9.0625,2.125,-0.380218,-1.42644,0.412234
4574,-2,-1,0,0,0,1,-1,3,0.974121,-0.0507812,0.162109,-9.9375,-9.0625,2.125,-0.380218,-1.42644,0.412234
4574,0,-1,-2,0,0,-1,0,-1,0.974121,-0.0507812,0.162109,-9.9375,-9.0625,2.125,-0.380218,-1.42644,0.412234
4575,0,-1,-2,-1,-1,-1,-2,0,0.977051,-0.0581055,0.154297,-7.25,-8.25,3,-0.395396,-1.42818,0.42499
4575,-1,-1,-2,-1,0,-1,-1,-2,0.977051,-0.0581055,0.154297,-7.25,-8.25,3,-0.395396,-1.42818,0.42499
4588,0,-1,-2,-1,0,0,-1,-2,0.977051,-0.0581055,0.154297,-7.25,-8.25,3,-0.395396,-1.42818,0.42499
4588,-1,-1,-1,-1,-1,-1,-1,-1,0.977051,-0.0581055,0.154297,-7.25,-8.25,3,-0.395396,-1.42818,0.42499
4602,-1,-1,-1,-2,2,-2,-2,-1,0.981934,-0.0717773,0.143066,-4.375,-6.9375,3.5625,-0.413334,-1.42929,0.441538
4602,0,0,0,-2,-1,-1,-1,1,0.981934,-0.0717773,0.143066,-4.375,-6.9375,3.5625,-0.413334,-1.42929,0.441538
4611,-1,-1,1,-1,-1,-1,-1,-2,0.981934,-0.0717773,0.143066,-4.375,-6.9375,3.5625,-0.413334,-1.42929,0.441538
4611,-2,-2,-2,0,-3,-1,-2,0,0.981934,-0.0717773,0.143066,-4.375,-6.9375,3.5625,-0.413334,-1.42929,0.441538
4612,1,-2,-1,0,-2,-1,0,5,0.978516,-0.0654297,0.143066,-0.625,-5.1875,4.125,-0.427951,-1.43013,0.456077
4612,-3,-3,-1,1,-1,0,2,-6,0.978516,-0.0654297,0.143066,-0.625,-5.1875,4.125,-0.427951,-1.43013,0.456077
4634,2,0,-2,-1,-1,-2,-9,0,0.978516,-0.0654297,0.143066,-0.625,-5.1875,4.125,-0.427951,-1.43013,0.456077
4634,0,1,-1,-1,-1,-1,-1,0,0.978516,-0.0654297,0.143066,-0.625,-5.1875,4.125,-0.427951,-1.43013,0.456077
4635,-1,0,-1,-2,-1,1,0,-3,0.980957,-0.0561523,0.135254,1.5625,-3.375,4.4375,-0.440139,-1.43036,0.469043
4635,-1,-1,-1,-1,-1,-1,0,3,0.980957,-0.0561523,0.135254,1.5625,-3.375,4.4375,-0.440139,-1.43036,0.469043
4648,1,-2,0,-1,0,-1,2,-2,0.980957,-0.0561523,0.135254,1.5625,-3.375,4.4375,-0.440139,-1.43036,0.469043
4648,-1,-4,-1,0,0,-1,-1,-3,0.980957,-0.0561523,0.135254,1.5625,-3.375,4.4375,-0.440139,-1.43036,0.469043
4654,-1,-1,0,-2,-2,0,-2,1,0.979004,-0.0473633,0.138672,-0.375,-1.25,4.375,-0.447952,-1.42952,0.476846
4654,0,1,-1,-2,-1,-1,-1,-1,0.979004,-0.0473633,0.138672,-0.375,-1.25,4.375,-0.447952,-1.42952,0.476846
4670,-2,0,-3,-1,-1,0,1,-4,0.979004,-0.0473633,0.138672,-0.375,-1.25,4.375,-0.447952,-1.42952,0.476846
4670,1,-1,-2,-1,-1,0,-3,0,0.979004,-0.0473633,0.138672,-0.375,-1.25,4.375,-0.447952,-1.42952,0.476846
4673,1,-1,-2,0,1,-2,0,-2,0.978027,-0.0517578,0.141602,-3.3125,0.5,4.6875,-0.456255,-1.42886,0.48421
4673,0,0,-3,0,-2,-1,-3,-1,0.978027,-0.0517578,0.141602,-3.3125,0.5,4.6875,-0.456255,-1.42886,0.48421
4694,0,-2,-2,0,-1,-1,-1,-1,0.978027,-0.0517578,0.141602,-3.3125,0.5,4.6875,-0.456255,-1.42886,0.48421
4694,1,-1,-2,0,-1,0,0,1,0.978027,-0.0517578,0.141602,-3.3125,0.5,4.6875,-0.456255,-1.42886,0.48421
4695,-2,-2,-2,-1,-1,0,0,-1,0.978516,-0.0551758,0.138672,-4.75,2.1875,5,-0.463754,-1.42666,0.490055
4695,-3,-2,-2,-2,0,-1,-2,-3,0.978516,-0.0551758,0.138672,-4.75,2.1875,5,-0.463754,-1.42666,0.490055
4707,-1,-1,-1,-2,0,-1,-1,0,0.978516,-0.0551758,0.138672,-4.75,2.1875,5,-0.463754,-1.42666,0.490055
4707,-2,-1,-2,-1,-1,-1,-1,-1,0.978516,-0.0551758,0.138672,-4.75,2.1875,5,-0.463754,-1.42666,0.490055
4714,-2,0,-1,-1,-2,-2,0,-4,0.973145,-0.0620117,0.134766,-5.9375,3.875,4.625,-0.470736,-1.42485,0.495141
4714,0,0,1,-1,-3,-1,-2,1,0.973145,-0.0620117,0.134766,-5.9375,3.875,4.625,-0.470736,-1.42485,0.495141
4739,-2,-2,-1,-1,-3,0,-1,0,0.973145,-0.0620117,0.134766,-5.9375,3.875,4.625,-0.470736,-1.42485,0.495141
4739,-1,0,-1,-1,-1,0,-1,-2,0.973145,-0.0620117,0.134766,-5.9375,3.875,4.625,-0.470736,-1.42485,0.495141
4740,-1,-1,-2,-1,-1,-1,-1,-1,0.971191,-0.0634766,0.13916,-5.3125,5.1875,5,-0.476512,-1.42281,0.499112
4740,0,-2,-3,-1,0,-1,-1,-3,0.971191,-0.0634766,0.13916,-5.3125,5.1875,5,-0.476512,-1.42281,0.499112
4753,-2,-1,-1,1,-1,-1,0,2,0.971191,-0.0634766,0.13916,-5.3125,5.1875,5,-0.476512,-1.42281,0.499112
4753,-1,0,-1,-2,0,-1,-1,0,0.971191,-0.0634766,0.13916,-5.3125,5.1875,5,-0.476512,-1.42281,0.499112
4755,0,-1,-2,1,0,-1,-1,0,0.961426,-0.0698242,0.134766,-1.1875,6.5625,6.4375,-0.482982,-1.41884,0.505225
4755,1,0,-2,0,-1,1,0,1,0.961426,-0.0698242,0.134766,-1.1875,6.5625,6.4375,-0.482982,-1.41884,0.505225
4767,-1,1,-2,0,1,-1,-2,-2,0.961426,-0.0698242,0.134766,-1.1875,6.5625,6.4375,-0.482982,-1.41884,0.505225
4767,0,0,0,-1,-1,0,-2,-1,0.961426,-0.0698242,0.134766,-1.1875,6.5625,6.4375,-0.482982,-1.41884,0.505225
4775,-2,-2,-1,0,0,-3,-1,0,0.970215,-0.0849609,0.147949,10.4375,7,8.8125,-0.490261,-1.41545,0.51633
4775,-2,-1,0,-2,-1,-3,-1,-1,0.970215,-0.0849609,0.147949,10.4375,7,8.8125,-0.490261,-1.41545,0.51633
4790,-2,2,-1,-3,-1,-1,0,-1,0.970215,-0.0849609,0.147949,10.4375,7,8.8125,-0.490261,-1.41545,0.51633
4790,-1,-1,-1,-1,0,-2,-1,0,0.970215,-0.0849609,0.147949,10.4375,7,8.8125,-0.490261,-1.41545,0.51633
4792,-2,0,-1,0,-1,0,0,-2,0.984375,-0.09375,0.146973,26.6875,6.1875,11.125,-0.497931,-1.41104,0.533438
4792,-1,-1,-2,-1,-1,-1,0,-1,0.984375,-0.09375,0.146973,26.6875,6.1875,11.125,-0.497931,-1.41104,0.533438
4813,-2,-1,-1,1,-2,-1,-1,0,0.984375,-0.09375,0.146973,26.6875,6.1875,11.125,-0.497931,-1.41104,0.533438
4813,1,0,-1,-1,-2,-1,-1,0,0.984375,-0.09375,0.146973,26.6875,6.1875,11.125,-0.497931,-1.41104,0.533438
4814,1,-1,0,-1,-2,-1,-2,-1,0.999512,-0.0751953,0.145508,39.6875,5,11.9375,-0.500812,-1.40734,0.550441
4814,-1,-1,-1,-2,-1,0,0,0,0.999512,-0.0751953,0.145508,39.6875,5,11.9375,-0.500812,-1.40734,0.550441
4827,0,-2,-1,-3,-1,-1,1,-1,0.999512,-0.0751953,0.145508,39.6875,5,11.9375,-0.500812,-1.40734,0.550441
4827,-1,0,-4,1,0,-2,-1,-2,0.999512,-0.0751953,0.145508,39.6875,5,11.9375,-0.500812,-1.40734,0.550441
4836,-1,-2,1,-3,-1,-1,-1,-2,1.00635,-0.0600586,0.128418,44.375,4.3125,12.375,-0.502162,-1.40452,0.567475
4836,-2,-2,-1,-2,-1,-1,-2,-2,1.00635,-0.0600586,0.128418,44.375,4.3125,12.375,-0.502162,-1.40452,0.567475
4850,-1,0,0,0,-1,-1,1,-2,1.00635,-0.0600586,0.128418,44.375,4.3125,12.375,-0.502162,-1.40452,0.567475
4850,-1,-2,0,0,-1,-2,0,-2,1.00635,-0.0600586,0.128418,44.375,4.3125,12.375,-0.502162,-1.40452,0.567475
4852,1,0,-1,-1,-1,-1,-1,-1,0.993164,-0.0429688,0.114258,40.0625,4.0625,12.4375,-0.50422,-1.40291,0.583963
4852,-1,0,-1,-1,1,-2,0,0,0.993164,-0.0429688,0.114258,40.0625,4.0625,12.4375,-0.50422,-1.40291,0.583963
4873,-1,-1,-2,-1,-1,-1,-1,-2,0.993164,-0.0429688,0.114258,40.0625,4.0625,12.4375,-0.50422,-1.40291,0.583963
4873,0,-1,0,0,0,0,0,-1,0.993164,-0.0429688,0.114258,40.0625,4.0625,12.4375,-0.50422,-1.40291,0.583963
4875,1,-1,-2,1,-3,-1,-2,-1,0.970703,-0.0405273,0.11084,29.5625,4.625,12.125,-0.507253,-1.39985,0.597529
4875,-1,0,-2,-1,-3,0,-2,0,0.970703,-0.0405273,0.11084,29.5625,4.625,12.125,-0.507253,-1.39985,0.597529
4887,-1,-1,-1,0,-1,0,-1,1,0.970703,-0.0405273,0.11084,29.5625,4.625,12.125,-0.507253,-1.39985,0.597529
4887,-1,-1,0,-1,0,-2,-1,0,0.970703,-0.0405273,0.11084,29.5625,4.625,12.125,-0.507253,-1.39985,0.597529
4896,-4,0,0,-1,-2,-2,0,-1,0.954102,-0.0546875,0.120117,18.125,5.25,11.125,-0.513865,-1.39726,0.610661
4896,-2,-1,-2,-1,0,-2,0,-2,0.954102,-0.0546875,0.120117,18.125,5.25,11.125,-0.513865,-1.39726,0.610661
4918,0,-2,-1,-1,-1,-2,0,-2,0.954102,-0.0546875,0.120117,18.125,5.25,11.125,-0.513865,-1.39726,0.610661
4918,-1,0,-2,-1,0,-1,1,-1,0.954102,-0.0546875,0.120117,18.125,5.25,11.125,-0.513865,-1.39726,0.610661
4919,0,-2,0,-2,-2,0,-1,0,0.9375,-0.0756836,0.130859,9.9375,4.6875,8.8125,-0.520877,-1.39503,0.621444
4919,0,1,-1,-1,0,-1,-2,-1,0.9375,-0.0756836,0.130859,9.9375,4.6875,8.8125,-0.520877,-1.39503,0.621444
4932,-1,1,-2,0,-1,0,-1,0,0.9375,-0.0756836,0.130859,9.9375,4.6875,8.8125,-0.520877,-1.39503,0.621444
4932,-1,-1,-1,0,-2,-1,-1,-1,0.9375,-0.0756836,0.130859,9.9375,4.6875,8.8125,-0.520877,-1.39503,0.621444
4941,-3,0,-3,-2,-2,-2,0,-2,0.935547,-0.081543,0.15332,2.375,3.0625,5.875,-0.526292,-1.39282,0.627809
4941,0,-2,-2,0,-2,-1,0,0,0.935547,-0.081543,0.15332,2.375,3.0625,5.875,-0.526292,-1.39282,0.627809
4946,-2,-3,0,-2,-1,-1,1,0,0.935547,-0.081543,0.15332,2.375,3.0625,5.875,-0.526292,-1.39282,0.627809
4946,-3,0,0,-1,-2,-1,-3,-1,0.935547,-0.081543,0.15332,2.375,3.0625,5.875,-0.526292,-1.39282,0.627809
4955,-1,-1,0,1,-1,0,0,-1,0.927246,-0.0761719,0.160156,-5.1875,0.8125,3.8125,-0.531658,-1.39179,0.63154
4955,1,0,0,-1,-1,-1,0,-1,0.927246,-0.0761719,0.160156,-5.1875,0.8125,3.8125,-0.531658,-1.39179,0.63154
4970,-1,-1,-2,0,-2,-1,-1,-2,0.927246,-0.0761719,0.160156,-5.1875,0.8125,3.8125,-0.531658,-1.39179,0.63154
4970,0,-2,-2,0,-3,0,-2,-1,0.927246,-0.0761719,0.160156,-5.1875,0.8125,3.8125,-0.531658,-1.39179,0.63154
4984,-1,-1,-3,-1,-1,-2,-2,-1,0.934082,-0.0708008,0.161133,-11.875,-2.0625,3.1875,-0.540054,-1.3916,0.63594
4984,-3,-2,0,-2,-2,-1,-2,-2,0.934082,-0.0708008,0.161133,-11.875,-2.0625,3.1875,-0.540054,-1.3916,0.63594
4993,0,1,-2,-1,0,-1,-1,-1,0.934082,-0.0708008,0.161133,-11.875,-2.0625,3.1875,-0.540054,-1.3916,0.63594
4993,-2,-2,-2,-2,-1,0,-1,1,0.934082,-0.0708008,0.161133,-11.875,-2.0625,3.1875,-0.540054,-1.3916,0.63594
4995,-1,0,-2,0,0,-1,-1,-2,0.933594,-0.0771484,0.160156,-16.375,-4.375,2.875,-0.552066,-1.39237,0.642412
4995,-1,1,0,-1,-1,0,1,1,0.933594,-0.0771484,0.160156,-16.375,-4.375,2.875,-0.552066,-1.39237,0.642412
5007,-1,-1,-2,-1,-2,0,-2,-1,0.933594,-0.0771484,0.160156,-16.375,-4.375,2.875,-0.552066,-1.39237,0.642412
5007,0,-2,0,-1,-1,0,0,0,0.933594,-0.0771484,0.160156,-16.375,-4.375,2.875,-0.552066,-1.39237,0.642412
5016,-1,-1,0,-1,0,0,-1,-1,0.942383,-0.101562,0.168945,-17.375,-6.9375,2,-0.568039,-1.39333,0.652484
5016,-2,0,0,-1,0,0,0,0,0.942383,-0.101562,0.168945,-17.375,-6.9375,2,-0.568039,-1.39333,0.652484
5031,0,-1,-1,0,-1,-2,-1,-1,0.942383,-0.101562,0.168945,-17.375,-6.9375,2,-0.568039,-1.39333,0.652484
5031,0,-1,0,-2,-2,-2,-2,-1,0.942383,-0.101562,0.168945,-17.375,-6.9375,2,-0.568039,-1.39333,0.652484
5036,0,-2,-2,-1,-2,0,-2,0,0.958984,-0.117676,0.168457,-13.625,-9.5625,2.4375,-0.58718,-1.39454,0.667087
5036,1,-1,-1,0,-2,-1,-1,-2,0.958984,-0.117676,0.168457,-13.625,-9.5625,2.4375,-0.58718,-1.39454,0.667087
5053,-1,-3,-1,-2,-1,0,-2,-1,0.958984,-0.117676,0.168457,-13.625,-9.5625,2.4375,-0.58718,-1.39454,0.667087
5053,0,-1,-2,0,0,-1,0,-1,0.958984,-0.117676,0.168457,-13.625,-9.5625,2.4375,-0.58718,-1.39454,0.667087
5055,-1,-2,0,-1,0,-2,-1,0,0.972656,-0.121094,0.169434,-2.9375,-12.5625,4.125,-0.609483,-1.39678,0.688802
5055,0,-2,-1,-1,0,-1,-3,-1,0.972656,-0.121094,0.169434,-2.9375,-12.5625,4.125,-0.609483,-1.39678,0.688802
5067,-1,1,-1,-1,-1,-1,-1,-1,0.972656,-0.121094,0.169434,-2.9375,-12.5625,4.125,-0.609483,-1.39678,0.688802
5067,-1,-2,-1,-2,0,-2,0,-1,0.972656,-0.121094,0.169434,-2.9375,-12.5625,4.125,-0.609483,-1.39678,0.688802
5075,-2,0,0,-1,-2,1,1,-2,0.986816,-0.117676,0.152832,7.125,-14.9375,4.9375,-0.632751,-1.39928,0.714824
5075,-1,0,-2,-2,0,-2,-2,1,0.986816,-0.117676,0.152832,7.125,-14.9375,4.9375,-0.632751,-1.39928,0.714824
5090,-1,-2,-1,0,-2,-1,0,0,0.986816,-0.117676,0.152832,7.125,-14.9375,4.9375,-0.632751,-1.39928,0.714824
5090,0,-1,-1,1,-1,1,0,-1,0.986816,-0.117676,0.152832,7.125,-14.9375,4.9375,-0.632751,-1.39928,0.714824
5097,-1,1,-1,-1,-2,-2,-3,1,1.00439,-0.115723,0.140625,14.5625,-16.25,6.75,-0.659372,-1.40207,0.746983
5097,-1,-2,1,-1,-1,-1,-2,-2,1.00439,-0.115723,0.140625,14.5625,-16.25,6.75,-0.659372,-1.40207,0.746983
5113,-1,-2,1,-2,-2,-1,-2,-2,1.00439,-0.115723,0.140625,14.5625,-16.25,6.75,-0.659372,-1.40207,0.746983
5113,-1,1,-1,0,-1,-1,-2,-2,1.00439,-0.115723,0.140625,14.5625,-16.25,6.75,-0.659372,-1.40207,0.746983
5115,0,-1,0,-1,-1,-1,-1,-2,1.02148,-0.124023,0.123047,25.625,-16.9375,9.875,-0.690503,-1.40435,0.787634
5115,0,0,9,0,-1,0,1,-2,1.02148,-0.124023,0.123047,25.625,-16.9375,9.875,-0.690503,-1.40435,0.787634
5127,0,0,-5,1,-1,-1,0,0,1.02148,-0.124023,0.123047,25.625,-16.9375,9.875,-0.690503,-1.40435,0.787634
5127,0,1,6,-4,-1,0,-1,0,1.02148,-0.124023,0.123047,25.625,-16.9375,9.875,-0.690503,-1.40435,0.787634
5136,-1,-4,-9,1,1,-2,1,0,1.04492,-0.127441,0.0898438,39.625,-16.375,12.125,-0.723536,-1.40626,0.834953
5136,-3,-3,4,-2,-2,-2,-2,-1,1.04492,-0.127441,0.0898438,39.625,-16.375,12.125,-0.723536,-1.40626,0.834953
5149,-2,-2,-10,-2,-1,-2,-2,-1,1.04492,-0.127441,0.0898438,39.625,-16.375,12.125,-0.723536,-1.40626,0.834953
5149,-1,-1,-2,-3,-2,-1,-1,-2,1.04492,-0.127441,0.0898438,39.625,-16.375,12.125,-0.723536,-1.40626,0.834953
5158,0,1,-3,-3,0,-1,0,0,1.05908,-0.12207,0.0859375,50.125,-15.625,12.5625,-0.752394,-1.40792,0.881844
5158,0,2,0,1,0,0,0,1,1.05908,-0.12207,0.0859375,50.125,-15.625,12.5625,-0.752394,-1.40792,0.881844
5173,0,0,5,0,-1,-1,0,-1,1.05908,-0.12207,0.0859375,50.125,-15.625,12.5625,-0.752394,-1.40792,0.881844
5173,-2,-1,-2,-2,0,-1,-1,-1,1.05908,-0.12207,0.0859375,50.125,-15.625,12.5625,-0.752394,-1.40792,0.881844
5174,-2,-1,1,-3,-1,-1,-2,-1,1.05127,-0.119629,0.0825195,54.625,-14.9375,11.8125,-0.778358,-1.41013,0.927385
5174,0,-1,-8,-1,1,-1,0,-2,1.05127,-0.119629,0.0825195,54.625,-14.9375,11.8125,-0.778358,-1.41013,0.927385
5196,-2,1,8,0,-1,0,-1,-1,1.05127,-0.119629,0.0825195,54.625,-14.9375,11.8125,-0.778358,-1.41013,0.927385
5196,0,-2,-14,1,0,-1,0,-1,1.05127,-0.119629,0.0825195,54.625,-14.9375,11.8125,-0.778358,-1.41013,0.927385
5197,1,-3,2,-1,-1,-2,-2,-1,1.0498,-0.113281,0.0917969,54.25,-13.875,9.9375,-0.797521,-1.41131,0.965875
5197,-1,-2,-7,-2,-2,-2,-1,-2,1.0498,-0.113281,0.0917969,54.25,-13.875,9.9375,-0.797521,-1.41131,0.965875
5219,1,-1,-1,-1,-1,0,0,1,1.0498,-0.113281,0.0917969,54.25,-13.875,9.9375,-0.797521,-1.41131,0.965875
5219,-1,0,3,-1,-1,-1,0,0,1.0498,-0.113281,0.0917969,54.25,-13.875,9.9375,-0.797521,-1.41131,0.965875
5221,1,-1,0,-1,-1,-1,0,-1,1.03174,-0.114746,0.108398,46.875,-12.75,7.9375,-0.812389,-1.41256,0.997603
5221,0,1,-3,-1,-1,0,0,-1,1.03174,-0.114746,0.108398,46.875,-12.75,7.9375,-0.812389,-1.41256,0.997603
5233,-2,-1,-1,-1,0,-1,0,-3,1.03174,-0.114746,0.108398,46.875,-12.75,7.9375,-0.812389,-1.41256,0.997603
5233,-1,0,-1,1,1,-2,-1,0,1.03174,-0.114746,0.108398,46.875,-12.75,7.9375,-0.812389,-1.41256,0.997603
5235,-2,-1,-2,0,-2,-2,0,-1,1.0166,-0.117676,0.124512,36.4375,-12.1875,4.5,-0.824322,-1.41413,1.02267
5235,-2,-1,0,0,-3,1,-1,-1,1.0166,-0.117676,0.124512,36.4375,-12.1875,4.5,-0.824322,-1.41413,1.02267
5264,0,-3,-2,-1,-1,-1,-1,-1,1.0166,-0.117676,0.124512,36.4375,-12.1875,4.5,-0.824322,-1.41413,1.02267
5264,1,-2,-1,-1,-1,0,0,-1,1.0166,-0.117676,0.124512,36.4375,-12.1875,4.5,-0.824322,-1.41413,1.02267
5265,-4,-2,0,0,0,-1,-2,0,0.995605,-0.12207,0.135254,24.4375,-11.9375,-0.3125,-0.831998,-1.41593,1.03907
5265,-2,-1,-2,0,-1,-1,-1,0,0.995605,-0.12207,0.135254,24.4375,-11.9375,-0.3125,-0.831998,-1.41593,1.03907
5270,-1,1,-3,-2,-3,-1,-1,-1,0.995605,-0.12207,0.135254,24.4375,-11.9375,-0.3125,-0.831998,-1.41593,1.03907
5270,-1,-2,0,0,-2,-1,0,0,0.995605,-0.12207,0.135254,24.4375,-11.9375,-0.3125,-0.831998,-1.41593,1.03907
5285,-1,1,1,0,-1,-1,-2,-1,0.981445,-0.123535,0.137695,13,-12.1875,-5.125,-0.837801,-1.41973,1.04969
5285,0,-3,-1,0,0,-1,0,-1,0.981445,-0.123535,0.137695,13,-12.1875,-5.125,-0.837801,-1.41973,1.04969
5294,0,-1,-2,0,1,0,-1,0,0.981445,-0.123535,0.137695,13,-12.1875,-5.125,-0.837801,-1.41973,1.04969
5294,-2,0,-2,-2,-1,-2,-2,1,0.981445,-0.123535,0.137695,13,-12.1875,-5.125,-0.837801,-1.41973,1.04969
5295,-2,-1,1,-1,-3,-2,1,0,0.975098,-0.125977,0.132324,3.625,-12.0625,-9.8125,-0.838868,-1.42398,1.05201
5295,0,-2,-3,0,-1,1,-5,-1,0.975098,-0.125977,0.132324,3.625,-12.0625,-9.8125,-0.838868,-1.42398,1.05201
5316,-1,-3,0,-2,-1,-1,-4,-4,0.975098,-0.125977,0.132324,3.625,-12.0625,-9.8125,-0.838868,-1.42398,1.05201
5316,0,-2,-1,1,1,0,2,-1,0.975098,-0.125977,0.132324,3.625,-12.0625,-9.8125,-0.838868,-1.42398,1.05201
5317,1,-1,-3,-1,-1,-2,0,-1,0.969238,-0.132324,0.124512,-3.75,-11.0625,-14.25,-0.836792,-1.4293,1.04868
5317,-1,0,-2,0,-1,-2,0,-3,0.969238,-0.132324,0.124512,-3.75,-11.0625,-14.25,-0.836792,-1.4293,1.04868
5329,-1,-1,1,-1,0,0,-1,0,0.969238,-0.132324,0.124512,-3.75,-11.0625,-14.25,-0.836792,-1.4293,1.04868
5329,-1,-2,-1,-1,-1,-1,-2,-1,0.969238,-0.132324,0.124512,-3.75,-11.0625,-14.25,-0.836792,-1.4293,1.04868
5339,-1,-1,-1,-1,-3,0,-1,-1,0.963867,-0.123535,0.109375,-10.5625,-8.875,-18.375,-0.825925,-1.43502,1.03391
5339,-1,-2,1,-2,-1,0,1,0,0.963867,-0.123535,0.109375,-10.5625,-8.875,-18.375,-0.825925,-1.43502,1.03391
5354,-1,-1,-1,-2,-1,-2,-1,-1,0.963867,-0.123535,0.109375,-10.5625,-8.875,-18.375,-0.825925,-1.43502,1.03391
5354,-2,-1,0,-1,-1,0,-1,0,0.963867,-0.123535,0.109375,-10.5625,-8.875,-18.375,-0.825925,-1.43502,1.03391
5355,1,-2,-2,0,-1,0,0,-1,0.976562,-0.119629,0.101562,-14.6875,-5.5625,-22.0625,-0.804035,-1.44112,1.00667
5355,0,-2,-3,-1,-1,-2,0,-1,0.976562,-0.119629,0.101562,-14.6875,-5.5625,-22.0625,-0.804035,-1.44112,1.00667
5378,0,2,2,0,0,-2,1,0,0.976562,-0.119629,0.101562,-14.6875,-5.5625,-22.0625,-0.804035,-1.44112,1.00667
5378,-1,-2,0,-1,-1,-2,1,-1,0.976562,-0.119629,0.101562,-14.6875,-5.5625,-22.0625,-0.804035,-1.44112,1.00667
5378,0,-1,-1,-2,0,0,-2,-1,1.01709,-0.13623,0.112305,-16.75,-2.1875,-25.375,-0.767845,-1.44725,0.964335
5378,-2,0,-2,-1,1,0,-1,0,1.01709,-0.13623,0.112305,-16.75,-2.1875,-25.375,-0.767845,-1.44725,0.964335
5389,-2,-1,-3,0,-2,0,0,0,1.01709,-0.13623,0.112305,-16.75,-2.1875,-25.375,-0.767845,-1.44725,0.964335
5389,0,0,-1,-2,0,-2,-2,-1,1.01709,-0.13623,0.112305,-16.75,-2.1875,-25.375,-0.767845,-1.44725,0.964335
5398,-1,0,0,-1,0,1,-2,-1,1.05908,-0.14502,0.0976562,-17.375,1.1875,-28.4375,-0.721036,-1.45259,0.910977
5398,0,0,-3,-1,-3,-2,-2,-1,1.05908,-0.14502,0.0976562,-17.375,1.1875,-28.4375,-0.721036,-1.45259,0.910977
5413,-2,-1,-2,-5,-5,0,-1,-1,1.05908,-0.14502,0.0976562,-17.375,1.1875,-28.4375,-0.721036,-1.45259,0.910977
5413,0,0,1,4,2,0,0,-1,1.05908,-0.14502,0.0976562,-17.375,1.1875,-28.4375,-0.721036,-1.45259,0.910977
5414,-1,-2,-2,0,-2,-2,-2,-3,1.07666,-0.12207,0.0742188,-20.8125,5.3125,-30.25,-0.659156,-1.45768,0.841188
5414,-1,0,1,0,-1,-1,-1,-1,1.07666,-0.12207,0.0742188,-20.8125,5.3125,-30.25,-0.659156,-1.45768,0.841188
5436,1,-2,-2,0,-2,-1,1,3,1.07666,-0.12207,0.0742188,-20.8125,5.3125,-30.25,-0.659156,-1.45768,0.841188
5436,-2,0,0,-2,-1,-1,-3,-3,1.07666,-0.12207,0.0742188,-20.8125,5.3125,-30.25,-0.659156,-1.45768,0.841188
5437,-1,1,0,-3,-1,0,0,0,1.05566,-0.0688477,0.0522461,-31,13,-29.3125,-0.578678,-1.46026,0.749174
5437,-2,-1,0,0,1,-1,1,-1,1.05566,-0.0688477,0.0522461,-31,13,-29.3125,-0.578678,-1.46026,0.749174
5449,-1,1,-2,-1,-2,-1,-2,-1,1.05566,-0.0688477,0.0522461,-31,13,-29.3125,-0.578678,-1.46026,0.749174
5449,-2,-1,-2,-2,-1,-2,-2,-1,1.05566,-0.0688477,0.0522461,-31,13,-29.3125,-0.578678,-1.46026,0.749174
5459,-1,0,0,1,1,-1,0,-2,1.02539,-0.0424805,0.0541992,-44.5,17.5625,-25.6875,-0.498813,-1.46111,0.653235
5459,-1,-1,-2,-3,-2,-1,-2,1,1.02539,-0.0424805,0.0541992,-44.5,17.5625,-25.6875,-0.498813,-1.46111,0.653235
5482,-2,-1,1,0,2,0,-1,-3,1.01709,-0.0703125,0.0644531,-54.1875,21.125,-20.3125,-0.440353,-1.45871,0.57532
5482,-1,-1,-1,-1,-2,-1,-1,-2,1.01709,-0.0703125,0.0644531,-54.1875,21.125,-20.3125,-0.440353,-1.45871,0.57532
5483,-3,0,-1,1,-1,0,-1,0,1.01709,-0.0703125,0.0644531,-54.1875,21.125,-20.3125,-0.440353,-1.45871,0.57532
5483,0,-2,-1,0,-1,-1,-1,-1,1.01709,-0.0703125,0.0644531,-54.1875,21.125,-20.3125,-0.440353,-1.45871,0.57532
5495,-1,-2,-1,1,0,0,0,-1,0.987305,-0.0947266,0.0976562,-53.8125,24.5625,-16.25,-0.395104,-1.45205,0.510591
5495,-2,0,-1,-1,-1,-1,0,0,0.987305,-0.0947266,0.0976562,-53.8125,24.5625,-16.25,-0.395104,-1.45205,0.510591
5495,-1,0,-1,-2,0,-3,-1,0,0.987305,-0.0947266,0.0976562,-53.8125,24.5625,-16.25,-0.395104,-1.45205,0.510591
5495,-2,0,-2,1,0,-1,0,0,0.987305,-0.0947266,0.0976562,-53.8125,24.5625,-16.25,-0.395104,-1.45205,0.510591
5518,-1,-1,0,-2,-2,-2,-2,-1,0.948242,-0.0986328,0.133789,-47.625,24.6875,-15,-0.355238,-1.44521,0.453633
5518,-1,0,-2,-2,-3,-2,-1,0,0.948242,-0.0986328,0.133789,-47.625,24.6875,-15,-0.355238,-1.44521,0.453633
5519,-1,-1,0,-1,-2,-2,1,-1,0.948242,-0.0986328,0.133789,-47.625,24.6875,-15,-0.355238,-1.44521,0.453633
5519,0,-2,0,-4,0,-1,-2,-1,0.948242,-0.0986328,0.133789,-47.625,24.6875,-15,-0.355238,-1.44521,0.453633
5541,0,-1,-1,1,2,0,-2,-2,0.916992,-0.116699,0.163086,-37.6875,19.0625,-13.5,-0.32732,-1.43851,0.412028
5541,0,-2,-3,-1,-1,-1,-1,-2,0.916992,-0.116699,0.163086,-37.6875,19.0625,-13.5,-0.32732,-1.43851,0.412028
5542,-2,-2,-1,-1,-1,-1,-1,-1,0.916992,-0.116699,0.163086,-37.6875,19.0625,-13.5,-0.32732,-1.43851,0.412028
5542,-1,0,-1,0,0,-1,0,-2,0.916992,-0.116699,0.163086,-37.6875,19.0625,-13.5,-0.32732,-1.43851,0.412028
5563,-3,0,0,-2,-1,-1,-1,-1,0.942871,-0.137207,0.137207,-24.375,12.6875,-14.125,-0.306756,-1.43453,0.382374
5563,-1,0,1,-1,-1,-1,0,0,0.942871,-0.137207,0.137207,-24.375,12.6875,-14.125,-0.306756,-1.43453,0.382374
5564,0,-1,-1,-1,-1,1,0,-1,0.942871,-0.137207,0.137207,-24.375,12.6875,-14.125,-0.306756,-1.43453,0.382374
5564,-1,0,0,-1,-2,0,-1,-1,0.942871,-0.137207,0.137207,-24.375,12.6875,-14.125,-0.306756,-1.43453,0.382374
5577,-1,1,-2,0,-1,-1,-2,0,0.956543,-0.0957031,0.101074,-7.0625,9.5625,-14.375,-0.278977,-1.43296,0.351655
5577,-1,-1,0,0,-1,-1,-1,-2,0.956543,-0.0957031,0.101074,-7.0625,9.5625,-14.375,-0.278977,-1.43296,0.351655
5578,-2,-1,-1,0,-1,-2,0,-1,0.956543,-0.0957031,0.101074,-7.0625,9.5625,-14.375,-0.278977,-1.43296,0.351655
5578,-1,-2,-1,-2,-1,0,-1,-1,0.956543,-0.0957031,0.101074,-7.0625,9.5625,-14.375,-0.278977,-1.43296,0.351655
5592,0,-1,0,0,-1,-1,-1,-1,0.940918,-0.03125,0.0898438,4.0625,6.8125,-12.875,-0.243715,-1.43307,0.31746
5592,-1,-1,-1,-1,-1,0,-1,0,0.940918,-0.03125,0.0898438,4.0625,6.8125,-12.875,-0.243715,-1.43307,0.31746
5593,-1,-1,-3,1,2,-1,-1,-1,0.940918,-0.03125,0.0898438,4.0625,6.8125,-12.875,-0.243715,-1.43307,0.31746
5593,-1,-1,0,-1,-3,-1,-2,0,0.940918,-0.03125,0.0898438,4.0625,6.8125,-12.875,-0.243715,-1.43307,0.31746
5615,-1,-2,-2,1,-1,-2,-1,-1,0.944824,0.00634766,0.0727539,2.3125,3.25,-8.9375,-0.215388,-1.43378,0.289801
5615,-2,-1,-2,-1,0,-1,0,-1,0.944824,0.00634766,0.0727539,2.3125,3.25,-8.9375,-0.215388,-1.43378,0.289801
5615,-1,-1,-1,0,0,-2,-3,0,0.944824,0.00634766,0.0727539,2.3125,3.25,-8.9375,-0.215388,-1.43378,0.289801
5615,0,1,-1,-1,0,0,0,-2,0.944824,0.00634766,0.0727539,2.3125,3.25,-8.9375,-0.215388,-1.43378,0.289801
5638,0,-3,0,-1,0,-2,-1,-1,0.945312,0.0214844,0.0600586,-3.9375,1.125,-5,-0.197895,-1.43618,0.270873
5638,-1,-1,0,0,-2,-1,-2,0,0.945312,0.0214844,0.0600586,-3.9375,1.125,-5,-0.197895,-1.43618,0.270873
5638,0,-1,-2,-2,-2,-2,0,-2,0.945312,0.0214844,0.0600586,-3.9375,1.125,-5,-0.197895,-1.43618,0.270873
5638,0,-2,-2,1,-1,-2,-2,-1,0.945312,0.0214844,0.0600586,-3.9375,1.125,-5,-0.197895,-1.43618,0.270873
5653,0,0,-1,-2,-1,1,0,-1,0.962402,0.00195312,0.0639648,0.125,-0.3125,-2.75,-0.188399,-1.43715,0.261398
5653,-1,-2,-1,-2,-1,-1,-1,-1,0.962402,0.00195312,0.0639648,0.125,-0.3125,-2.75,-0.188399,-1.43715,0.261398
5653,-1,-3,0,0,-1,-1,-2,0,0.962402,0.00195312,0.0639648,0.125,-0.3125,-2.75,-0.188399,-1.43715,0.261398
5653,0,-1,-1,0,0,0,-2,-1,0.962402,0.00195312,0.0639648,0.125,-0.3125,-2.75,-0.188399,-1.43715,0.261398
5675,-2,0,-2,-1,-2,-2,1,-1,0.967773,-0.00439453,0.0610352,4.9375,-0.375,-1.5625,-0.182068,-1.43918,0.256719
5675,-1,0,-2,-1,0,0,0,-1,0.967773,-0.00439453,0.0610352,4.9375,-0.375,-1.5625,-0.182068,-1.43918,0.256719
5675,-1,-1,-1,0,-1,-1,-2,-1,0.967773,-0.00439453,0.0610352,4.9375,-0.375,-1.5625,-0.182068,-1.43918,0.256719
5675,-1,-2,-1,-3,0,0,0,-2,0.967773,-0.00439453,0.0610352,4.9375,-0.375,-1.5625,-0.182068,-1.43918,0.256719
5690,0,-3,-1,-1,0,-2,-1,0,0.973633,0.00439453,0.0786133,9.0625,-0.75,-0.875,-0.172796,-1.44084,0.250659
5690,1,-1,0,-1,-1,0,-1,-2,0.973633,0.00439453,0.0786133,9.0625,-0.75,-0.875,-0.172796,-1.44084,0.250659
5698,1,0,-2,-2,-1,-2,-1,0,0.973633,0.00439453,0.0786133,9.0625,-0.75,-0.875,-0.172796,-1.44084,0.250659
5698,-1,-1,-1,-1,0,-1,-1,-2,0.973633,0.00439453,0.0786133,9.0625,-0.75,-0.875,-0.172796,-1.44084,0.250659
5713,-1,0,-1,0,0,0,1,-4,0.980957,0.00292969,0.0776367,10.875,-1.8125,-0.9375,-0.164525,-1.44299,0.246207
5713,2,-1,-2,-1,-2,-1,0,-2,0.980957,0.00292969,0.0776367,10.875,-1.8125,-0.9375,-0.164525,-1.44299,0.246207
5714,0,-1,0,-1,-1,-1,-2,-2,0.980957,0.00292969,0.0776367,10.875,-1.8125,-0.9375,-0.164525,-1.44299,0.246207
5714,1,-1,2,0,-1,-2,0,0,0.980957,0.00292969,0.0776367,10.875,-1.8125,-0.9375,-0.164525,-1.44299,0.246207
5735,1,-1,-1,-1,-1,-1,-1,0,0.976562,-0.00195312,0.0976562,13.5625,-2.75,-0.4375,-0.157797,-1.44472,0.244333
5735,-1,-1,0,-1,-2,0,-1,-1,0.976562,-0.00195312,0.0976562,13.5625,-2.75,-0.4375,-0.157797,-1.44472,0.244333
5736,0,1,-1,-1,0,1,-1,-1,0.976562,-0.00195312,0.0976562,13.5625,-2.75,-0.4375,-0.157797,-1.44472,0.244333
5736,0,0,-3,-1,-1,-1,0,-2,0.976562,-0.00195312,0.0976562,13.5625,-2.75,-0.4375,-0.157797,-1.44472,0.244333
5750,-1,-2,-1,-2,1,0,-3,0,0.977051,0.000976562,0.106445,19.375,-4.4375,0,-0.149045,-1.44671,0.242337
5750,1,-2,0,0,-2,0,1,-1,0.977051,0.000976562,0.106445,19.375,-4.4375,0,-0.149045,-1.44671,0.242337
5757,-2,-2,-1,-1,-2,0,0,0,0.977051,0.000976562,0.106445,19.375,-4.4375,0,-0.149045,-1.44671,0.242337
5757,-1,-2,-2,-2,-1,-2,1,-2,0.977051,0.000976562,0.106445,19.375,-4.4375,0,-0.149045,-1.44671,0.242337
5773,-1,-1,-1,0,-1,-2,-1,0,0.972168,0.0209961,0.118652,20.8125,-6.375,0.1875,-0.138082,-1.4486,0.238701
5773,0,1,-1,-1,-1,-3,-2,-1,0.972168,0.0209961,0.118652,20.8125,-6.375,0.1875,-0.138082,-1.4486,0.238701
5773,0,-2,-1,0,-1,-1,-1,-2,0.972168,0.0209961,0.118652,20.8125,-6.375,0.1875,-0.138082,-1.4486,0.238701
5773,0,1,0,-2,-2,1,0,0,0.972168,0.0209961,0.118652,20.8125,-6.375,0.1875,-0.138082,-1.4486,0.238701
5795,-2,-3,-1,-1,-2,0,-1,-2,0.961426,0.0390625,0.127441,17.75,-9.375,-0.5,-0.123071,-1.45219,0.230043
5795,-1,0,-1,0,0,-1,-1,-2,0.961426,0.0390625,0.127441,17.75,-9.375,-0.5,-0.123071,-1.45219,0.230043
5795,0,2,-1,-1,0,-2,-3,-1,0.961426,0.0390625,0.127441,17.75,-9.375,-0.5,-0.123071,-1.45219,0.230043
5795,-1,0,-2,1,0,-1,-1,-1,0.961426,0.0390625,0.127441,17.75,-9.375,-0.5,-0.123071,-1.45219,0.230043
5818,0,-1,-2,-1,-1,-2,-1,-2,0.954102,0.0400391,0.123535,10.25,-11.4375,-1.5625,-0.107312,-1.45578,0.21789
5818,-1,-4,-1,0,-1,0,-2,0,0.954102,0.0400391,0.123535,10.25,-11.4375,-1.5625,-0.107312,-1.45578,0.21789
5818,0,-3,-2,-1,1,-2,-1,0,0.954102,0.0400391,0.123535,10.25,-11.4375,-1.5625,-0.107312,-1.45578,0.21789
5818,-1,0,-1,0,-1,-2,-2,0,0.954102,0.0400391,0.123535,10.25,-11.4375,-1.5625,-0.107312,-1.45578,0.21789
