0,-2,-1,1,-3,-2,1,0,0,0.792969,-0.16748,0.492188,3.375,22.3125,26.4375,-0.287644,-1.00045,-0.361293
0,-1,-1,-2,1,-2,-1,-3,-1,0.792969,-0.16748,0.492188,3.375,22.3125,26.4375,-0.287644,-1.00045,-0.361293
0,0,-1,-2,0,-1,-1,-2,-1,0.792969,-0.16748,0.492188,3.375,22.3125,26.4375,-0.287644,-1.00045,-0.361293
0,0,0,1,0,-2,-2,-2,-1,0.792969,-0.16748,0.492188,3.375,22.3125,26.4375,-0.287644,-1.00045,-0.361293
0,0,-1,0,2,1,-3,0,0,0.792969,-0.16748,0.492188,3.375,22.3125,26.4375,-0.287644,-1.00045,-0.361293
0,-1,-2,1,-2,-1,0,-1,-1,0.792969,-0.16748,0.492188,3.375,22.3125,26.4375,-0.287644,-1.00045,-0.361293
3,0,-1,0,-2,-1,0,0,-2,0.792969,-0.16748,0.492188,3.375,22.3125,26.4375,-0.287644,-1.00045,-0.361293
3,-2,-2,-1,-2,0,1,-1,-2,0.792969,-0.16748,0.492188,3.375,22.3125,26.4375,-0.287644,-1.00045,-0.361293
12,1,1,-1,0,-2,-2,-1,-1,0.792969,-0.16748,0.492188,3.375,22.3125,26.4375,-0.287644,-1.00045,-0.361293
12,-2,-1,1,1,0,-1,-1,0,0.792969,-0.16748,0.492188,3.375,22.3125,26.4375,-0.287644,-1.00045,-0.361293
22,0,1,1,-1,1,-3,-1,-1,0.796875,-0.197754,0.50293,1.5,16.0625,22.9375,-0.308278,-0.983129,-0.33659
22,-1,-2,-2,-3,-3,0,-1,0,0.796875,-0.197754,0.50293,1.5,16.0625,22.9375,-0.308278,-0.983129,-0.33659
26,0,-1,-1,-1,1,-2,0,-1,0.796875,-0.197754,0.50293,1.5,16.0625,22.9375,-0.308278,-0.983129,-0.33659
26,-2,-1,-5,-1,0,0,-1,-1,0.796875,-0.197754,0.50293,1.5,16.0625,22.9375,-0.308278,-0.983129,-0.33659
41,1,0,-1,-1,0,0,1,-1,0.766602,-0.179199,0.492188,-0.875,12.5,19.25,-0.316817,-0.97667,-0.326843
41,4,5,1,0,2,0,1,-1,0.766602,-0.179199,0.492188,-0.875,12.5,19.25,-0.316817,-0.97667,-0.326843
50,-5,-5,-1,-2,-4,-2,-1,-1,0.766602,-0.179199,0.492188,-0.875,12.5,19.25,-0.316817,-0.97667,-0.326843
50,0,-2,-2,0,-2,0,0,-1,0.766602,-0.179199,0.492188,-0.875,12.5,19.25,-0.316817,-0.97667,-0.326843
72,-2,-2,-1,-1,-3,0,-1,0,0.785645,-0.185059,0.501953,1.8125,6.375,16.625,-0.323917,-0.972689,-0.317764
72,-1,-2,0,-1,1,-3,1,-3,0.785645,-0.185059,0.501953,1.8125,6.375,16.625,-0.323917,-0.972689,-0.317764
73,0,1,-1,0,0,-1,-1,-2,0.785645,-0.185059,0.501953,1.8125,6.375,16.625,-0.323917,-0.972689,-0.317764
73,-2,-5,-3,-2,0,-1,0,0,0.785645,-0.185059,0.501953,1.8125,6.375,16.625,-0.323917,-0.972689,-0.317764
120,0,2,-2,-3,-1,0,-3,0,0.793945,-0.154297,0.488281,8.125,-3.625,9.4375,-0.333703,-0.9706,-0.297204
120,-2,-1,-3,-3,-1,0,-1,-1,0.793945,-0.154297,0.488281,8.125,-3.625,9.4375,-0.333703,-0.9706,-0.297204
121,0,1,0,0,-2,-1,0,0,0.793945,-0.154297,0.488281,8.125,-3.625,9.4375,-0.333703,-0.9706,-0.297204
121,-1,0,-1,-2,1,-1,-2,1,0.793945,-0.154297,0.488281,8.125,-3.625,9.4375,-0.333703,-0.9706,-0.297204
124,0,1,0,1,-2,-2,-1,-1,0.793945,-0.154297,0.488281,8.125,-3.625,9.4375,-0.333703,-0.9706,-0.297204
124,0,0,-2,0,-1,-2,-2,-1,0.793945,-0.154297,0.488281,8.125,-3.625,9.4375,-0.333703,-0.9706,-0.297204
125,-2,-3,-3,-1,1,-3,-1,-2,0.793945,-0.154297,0.488281,8.125,-3.625,9.4375,-0.333703,-0.9706,-0.297204
125,1,2,2,-2,-1,-2,1,-1,0.793945,-0.154297,0.488281,8.125,-3.625,9.4375,-0.333703,-0.9706,-0.297204
132,-4,-8,-3,-3,0,-2,-1,-2,0.793945,-0.154297,0.488281,8.125,-3.625,9.4375,-0.333703,-0.9706,-0.297204
132,-2,-3,-1,-2,-2,-2,-2,-2,0.793945,-0.154297,0.488281,8.125,-3.625,9.4375,-0.333703,-0.9706,-0.297204
138,0,0,0,-1,-1,0,-1,0,0.808105,-0.140137,0.490234,8.375,-6,7.1875,-0.3339,-0.972507,-0.292892
138,0,0,-1,0,-2,1,-1,-2,0.808105,-0.140137,0.490234,8.375,-6,7.1875,-0.3339,-0.972507,-0.292892
146,-1,-2,-2,-1,1,-1,0,1,0.808105,-0.140137,0.490234,8.375,-6,7.1875,-0.3339,-0.972507,-0.292892
146,0,1,0,-2,-1,1,-1,-1,0.808105,-0.140137,0.490234,8.375,-6,7.1875,-0.3339,-0.972507,-0.292892
160,-1,0,-2,-1,-2,-1,-2,-1,0.810059,-0.131348,0.493652,6.0625,-7.1875,5.0625,-0.3337,-0.975062,-0.289872
160,-1,1,-2,-2,-1,-2,-1,-1,0.810059,-0.131348,0.493652,6.0625,-7.1875,5.0625,-0.3337,-0.975062,-0.289872
168,-2,1,1,0,-3,-2,-2,0,0.810059,-0.131348,0.493652,6.0625,-7.1875,5.0625,-0.3337,-0.975062,-0.289872
168,-1,0,-1,2,-1,-2,-1,-1,0.810059,-0.131348,0.493652,6.0625,-7.1875,5.0625,-0.3337,-0.975062,-0.289872
192,-1,-1,-2,-1,-2,-2,-1,-1,0.808594,-0.125977,0.494629,3.25,-7.625,2.875,-0.333397,-0.977934,-0.288181
192,0,1,-1,-1,-1,-1,-1,-1,0.808594,-0.125977,0.494629,3.25,-7.625,2.875,-0.333397,-0.977934,-0.288181
193,1,-1,-2,0,0,-1,-1,-1,0.808594,-0.125977,0.494629,3.25,-7.625,2.875,-0.333397,-0.977934,-0.288181
193,-1,1,1,-1,-1,-2,-1,0,0.808594,-0.125977,0.494629,3.25,-7.625,2.875,-0.333397,-0.977934,-0.288181
207,-1,0,-1,-2,0,0,0,0,0.817383,-0.131836,0.494141,0.125,-8.5625,1.375,-0.333873,-0.981391,-0.286914
207,-4,-5,-5,-2,-1,-1,-3,-1,0.817383,-0.131836,0.494141,0.125,-8.5625,1.375,-0.333873,-0.981391,-0.286914
207,3,4,1,-2,-2,1,-1,-1,0.817383,-0.131836,0.494141,0.125,-8.5625,1.375,-0.333873,-0.981391,-0.286914
207,-6,-11,-2,-2,0,-1,-2,-1,0.817383,-0.131836,0.494141,0.125,-8.5625,1.375,-0.333873,-0.981391,-0.286914
228,1,0,-2,0,-3,-2,0,1,0.827637,-0.140137,0.496094,-0.4375,-9.3125,-0.1875,-0.334158,-0.98527,-0.286302
228,0,-1,-1,0,-3,-1,-1,0,0.827637,-0.140137,0.496094,-0.4375,-9.3125,-0.1875,-0.334158,-0.98527,-0.286302
230,1,2,1,1,1,-1,0,0,0.827637,-0.140137,0.496094,-0.4375,-9.3125,-0.1875,-0.334158,-0.98527,-0.286302
230,1,2,-1,0,-3,-2,1,-1,0.827637,-0.140137,0.496094,-0.4375,-9.3125,-0.1875,-0.334158,-0.98527,-0.286302
252,-1,-1,0,-3,-2,-1,0,1,0.838867,-0.138184,0.486816,0.4375,-9.4375,-2.0625,-0.333318,-0.989491,-0.28663
252,-3,-4,0,-2,-2,-2,0,-2,0.838867,-0.138184,0.486816,0.4375,-9.4375,-2.0625,-0.333318,-0.989491,-0.28663
252,-2,-1,-3,1,-5,0,-3,-2,0.838867,-0.138184,0.486816,0.4375,-9.4375,-2.0625,-0.333318,-0.989491,-0.28663
252,1,1,-1,-1,-1,0,-3,0,0.838867,-0.138184,0.486816,0.4375,-9.4375,-2.0625,-0.333318,-0.989491,-0.28663
267,-1,-3,-1,-2,1,0,-3,-3,0.842285,-0.134766,0.491211,-0.6875,-9,-4.3125,-0.33154,-0.993722,-0.288462
267,0,0,0,-1,-1,0,1,-1,0.842285,-0.134766,0.491211,-0.6875,-9,-4.3125,-0.33154,-0.993722,-0.288462
268,-1,-2,-1,-1,3,0,1,-2,0.842285,-0.134766,0.491211,-0.6875,-9,-4.3125,-0.33154,-0.993722,-0.288462
268,0,0,-2,0,0,0,1,1,0.842285,-0.134766,0.491211,-0.6875,-9,-4.3125,-0.33154,-0.993722,-0.288462
289,1,1,1,1,-2,-2,0,-1,0.843262,-0.141113,0.497559,-3.625,-9.125,-6.0625,-0.330113,-0.998039,-0.291306
289,-1,-3,-2,-1,-1,0,-2,1,0.843262,-0.141113,0.497559,-3.625,-9.125,-6.0625,-0.330113,-0.998039,-0.291306
289,0,-1,0,1,-1,-1,0,-1,0.843262,-0.141113,0.497559,-3.625,-9.125,-6.0625,-0.330113,-0.998039,-0.291306
289,-2,-3,-3,-1,-1,1,0,-1,0.843262,-0.141113,0.497559,-3.625,-9.125,-6.0625,-0.330113,-0.998039,-0.291306
312,0,4,-2,-1,0,1,-2,0,0.837891,-0.146484,0.494141,-5.4375,-9.625,-6.875,-0.329109,-1.00231,-0.294327
312,-1,-1,2,-1,-1,-1,-1,-2,0.837891,-0.146484,0.494141,-5.4375,-9.625,-6.875,-0.329109,-1.00231,-0.294327
313,-2,-2,-2,-2,-2,-1,1,0,0.837891,-0.146484,0.494141,-5.4375,-9.625,-6.875,-0.329109,-1.00231,-0.294327
313,2,-1,-3,-1,-3,-1,0,0,0.837891,-0.146484,0.494141,-5.4375,-9.625,-6.875,-0.329109,-1.00231,-0.294327
327,-1,-2,-1,0,-3,-1,-1,0,0.828125,-0.15332,0.499512,-4.9375,-10.0625,-7.3125,-0.327989,-1.0064,-0.297299
327,0,4,0,2,1,-2,-1,1,0.828125,-0.15332,0.499512,-4.9375,-10.0625,-7.3125,-0.327989,-1.0064,-0.297299
328,-4,-5,-4,-4,0,-3,-1,-3,0.828125,-0.15332,0.499512,-4.9375,-10.0625,-7.3125,-0.327989,-1.0064,-0.297299
328,-2,-2,0,-2,2,-2,-1,-2,0.828125,-0.15332,0.499512,-4.9375,-10.0625,-7.3125,-0.327989,-1.0064,-0.297299
349,-2,-2,-3,-2,-1,-3,0,-2,0.82666,-0.151367,0.500488,-3.625,-9.75,-7.75,-0.326247,-1.01048,-0.300648
349,0,-2,-2,0,-2,-1,0,-2,0.82666,-0.151367,0.500488,-3.625,-9.75,-7.75,-0.326247,-1.01048,-0.300648
349,-1,0,-1,-1,0,-1,-2,1,0.82666,-0.151367,0.500488,-3.625,-9.75,-7.75,-0.326247,-1.01048,-0.300648
349,-2,0,0,-1,-1,-1,0,1,0.82666,-0.151367,0.500488,-3.625,-9.75,-7.75,-0.326247,-1.01048,-0.300648
372,-2,-4,-3,-2,-1,2,1,-1,0.833008,-0.146484,0.487793,-3.0625,-8.375,-8.9375,-0.323341,-1.01443,-0.30511
372,-2,0,1,-2,-3,0,-2,0,0.833008,-0.146484,0.487793,-3.0625,-8.375,-8.9375,-0.323341,-1.01443,-0.30511
372,0,-1,0,-1,-2,0,-2,-1,0.833008,-0.146484,0.487793,-3.0625,-8.375,-8.9375,-0.323341,-1.01443,-0.30511
372,0,-1,-1,-1,0,-2,-1,-1,0.833008,-0.146484,0.487793,-3.0625,-8.375,-8.9375,-0.323341,-1.01443,-0.30511
387,-1,1,-1,1,0,-1,-1,0,0.83252,-0.126953,0.484863,-5.9375,-7.125,-10.1875,-0.319667,-1.01819,-0.31144
387,0,-2,-2,0,-1,0,0,-2,0.83252,-0.126953,0.484863,-5.9375,-7.125,-10.1875,-0.319667,-1.01819,-0.31144
387,1,-1,0,2,-1,-1,1,-1,0.83252,-0.126953,0.484863,-5.9375,-7.125,-10.1875,-0.319667,-1.01819,-0.31144
387,0,0,0,-2,-3,1,-1,-2,0.83252,-0.126953,0.484863,-5.9375,-7.125,-10.1875,-0.319667,-1.01819,-0.31144
409,-1,-1,1,-1,-2,-1,0,-2,0.830566,-0.129395,0.480957,-11,-6.125,-10.5,-0.317771,-1.02156,-0.317771
409,-1,1,-2,-5,-1,-2,-1,0,0.830566,-0.129395,0.480957,-11,-6.125,-10.5,-0.317771,-1.02156,-0.317771
409,-3,-1,-2,0,2,-1,-2,0,0.830566,-0.129395,0.480957,-11,-6.125,-10.5,-0.317771,-1.02156,-0.317771
409,-1,2,2,2,1,-1,0,-1,0.830566,-0.129395,0.480957,-11,-6.125,-10.5,-0.317771,-1.02156,-0.317771
432,-1,-3,-4,-2,0,-1,-3,0,0.830078,-0.150879,0.481934,-13.5,-5.375,-9.875,-0.317604,-1.02449,-0.323363
432,-2,-4,-3,0,0,-3,-1,0,0.830078,-0.150879,0.481934,-13.5,-5.375,-9.875,-0.317604,-1.02449,-0.323363
432,0,-1,-1,0,-2,-1,-1,-1,0.830078,-0.150879,0.481934,-13.5,-5.375,-9.875,-0.317604,-1.02449,-0.323363
432,0,0,-1,0,-1,0,-2,0,0.830078,-0.150879,0.481934,-13.5,-5.375,-9.875,-0.317604,-1.02449,-0.323363
446,0,-1,1,-2,0,-2,-1,-2,0.835449,-0.158691,0.483887,-13.1875,-4.125,-8.875,-0.317946,-1.02657,-0.328223
446,-2,-2,-1,-1,1,-3,-2,0,0.835449,-0.158691,0.483887,-13.1875,-4.125,-8.875,-0.317946,-1.02657,-0.328223
447,-1,0,-2,-4,-3,0,0,-1,0.835449,-0.158691,0.483887,-13.1875,-4.125,-8.875,-0.317946,-1.02657,-0.328223
447,-1,-1,-2,0,0,-3,-1,-2,0.835449,-0.158691,0.483887,-13.1875,-4.125,-8.875,-0.317946,-1.02657,-0.328223
469,-2,-2,-1,1,-2,-2,0,-2,0.833496,-0.161133,0.491699,-11.1875,-2.6875,-8.5,-0.317658,-1.02801,-0.333114
469,1,1,0,0,-3,0,-2,-2,0.833496,-0.161133,0.491699,-11.1875,-2.6875,-8.5,-0.317658,-1.02801,-0.333114
469,0,-1,2,1,0,-1,0,0,0.833496,-0.161133,0.491699,-11.1875,-2.6875,-8.5,-0.317658,-1.02801,-0.333114
469,-1,-2,1,-3,0,-1,-2,0,0.833496,-0.161133,0.491699,-11.1875,-2.6875,-8.5,-0.317658,-1.02801,-0.333114
492,-3,-4,-1,-2,2,0,-3,-2,0.835938,-0.177734,0.494141,-8.0625,-2.3125,-7.25,-0.317773,-1.02918,-0.336488
492,-2,-3,2,1,3,-1,0,0,0.835938,-0.177734,0.494141,-8.0625,-2.3125,-7.25,-0.317773,-1.02918,-0.336488
493,1,2,-1,-1,-3,0,-1,-1,0.835938,-0.177734,0.494141,-8.0625,-2.3125,-7.25,-0.317773,-1.02918,-0.336488
493,0,-4,-1,-1,-1,-2,1,0,0.835938,-0.177734,0.494141,-8.0625,-2.3125,-7.25,-0.317773,-1.02918,-0.336488
506,-2,3,0,-1,0,0,2,0,0.84082,-0.181152,0.509766,-4.4375,-1.5,-5.875,-0.317086,-1.02963,-0.339366
506,-1,0,0,0,1,0,-1,-1,0.84082,-0.181152,0.509766,-4.4375,-1.5,-5.875,-0.317086,-1.02963,-0.339366
514,-4,0,-2,-3,-1,0,-1,-2,0.84082,-0.181152,0.509766,-4.4375,-1.5,-5.875,-0.317086,-1.02963,-0.339366
514,0,2,-2,0,0,-1,-1,-2,0.84082,-0.181152,0.509766,-4.4375,-1.5,-5.875,-0.317086,-1.02963,-0.339366
529,1,-1,0,1,-2,-1,-1,1,0.833496,-0.178223,0.512207,-2.4375,-0.125,-4.875,-0.315514,-1.02926,-0.342298
529,-4,-9,-3,-2,-1,-1,-1,-2,0.833496,-0.178223,0.512207,-2.4375,-0.125,-4.875,-0.315514,-1.02926,-0.342298
530,0,0,-1,-1,-2,-2,-2,0,0.833496,-0.178223,0.512207,-2.4375,-0.125,-4.875,-0.315514,-1.02926,-0.342298
530,0,1,1,1,-2,-1,-2,0,0.833496,-0.178223,0.512207,-2.4375,-0.125,-4.875,-0.315514,-1.02926,-0.342298
552,-3,-1,0,-4,-1,-2,-2,-1,0.825195,-0.179199,0.526367,-0.375,1.4375,-4.5,-0.313374,-1.02786,-0.344925
552,1,1,-6,-2,-1,-2,1,-2,0.825195,-0.179199,0.526367,-0.375,1.4375,-4.5,-0.313374,-1.02786,-0.344925
553,-2,-1,0,1,0,-2,0,-1,0.825195,-0.179199,0.526367,-0.375,1.4375,-4.5,-0.313374,-1.02786,-0.344925
553,-1,-1,-1,-1,-1,0,0,-1,0.825195,-0.179199,0.526367,-0.375,1.4375,-4.5,-0.313374,-1.02786,-0.344925
566,1,3,2,4,0,1,0,0,0.817383,-0.171387,0.538574,-2.0625,3.625,-4.25,-0.311044,-1.02582,-0.34857
566,0,1,3,0,-1,-1,-2,-1,0.817383,-0.171387,0.538574,-2.0625,3.625,-4.25,-0.311044,-1.02582,-0.34857
574,-1,1,-5,-5,-2,-1,-1,2,0.817383,-0.171387,0.538574,-2.0625,3.625,-4.25,-0.311044,-1.02582,-0.34857
574,1,0,2,-3,-3,-2,-2,-1,0.817383,-0.171387,0.538574,-2.0625,3.625,-4.25,-0.311044,-1.02582,-0.34857
589,0,0,-6,-8,-2,-4,0,-2,0.807617,-0.175293,0.55957,-4.5625,5.375,-4.1875,-0.309307,-1.02251,-0.352351
589,-2,0,1,2,-2,0,-2,-2,0.807617,-0.175293,0.55957,-4.5625,5.375,-4.1875,-0.309307,-1.02251,-0.352351
590,0,-3,1,1,0,0,1,-3,0.807617,-0.175293,0.55957,-4.5625,5.375,-4.1875,-0.309307,-1.02251,-0.352351
590,0,4,2,1,-1,0,1,0,0.807617,-0.175293,0.55957,-4.5625,5.375,-4.1875,-0.309307,-1.02251,-0.352351
612,-1,-6,-1,0,-1,0,-2,-1,0.821289,-0.165039,0.56543,-6.375,6.875,-4.0625,-0.30744,-1.01868,-0.356853
612,1,-1,-3,-2,-3,-1,-1,0,0.821289,-0.165039,0.56543,-6.375,6.875,-4.0625,-0.30744,-1.01868,-0.356853
613,-1,0,0,1,1,0,0,0,0.821289,-0.165039,0.56543,-6.375,6.875,-4.0625,-0.30744,-1.01868,-0.356853
613,1,5,-1,-3,-1,0,-1,0,0.821289,-0.165039,0.56543,-6.375,6.875,-4.0625,-0.30744,-1.01868,-0.356853
625,0,0,-2,-1,0,-1,-1,-1,0.818848,-0.177734,0.567871,-7.625,10.625,-4.1875,-0.305886,-1.0139,-0.361792
625,-2,-1,-3,-3,1,-1,-1,-1,0.818848,-0.177734,0.567871,-7.625,10.625,-4.1875,-0.305886,-1.0139,-0.361792
634,0,2,5,3,1,-1,-1,0,0.818848,-0.177734,0.567871,-7.625,10.625,-4.1875,-0.305886,-1.0139,-0.361792
634,-2,-1,-3,-4,-2,-1,0,0,0.818848,-0.177734,0.567871,-7.625,10.625,-4.1875,-0.305886,-1.0139,-0.361792
656,0,0,1,2,-4,-2,-1,0,0.822754,-0.158203,0.58252,-9.375,15.875,-3.25,-0.303834,-1.00728,-0.367791
656,0,-1,1,0,-2,1,0,-2,0.822754,-0.158203,0.58252,-9.375,15.875,-3.25,-0.303834,-1.00728,-0.367791
658,1,-2,1,-2,-2,-1,-1,-1,0.822754,-0.158203,0.58252,-9.375,15.875,-3.25,-0.303834,-1.00728,-0.367791
658,-4,-11,-5,1,0,-2,0,-1,0.822754,-0.158203,0.58252,-9.375,15.875,-3.25,-0.303834,-1.00728,-0.367791
672,-1,-1,-3,-3,-2,-2,0,-1,0.814453,-0.155762,0.598145,-12.625,21.0625,-3.8125,-0.301406,-0.998651,-0.375447
672,-1,-7,-7,-2,1,0,1,-1,0.814453,-0.155762,0.598145,-12.625,21.0625,-3.8125,-0.301406,-0.998651,-0.375447
672,-1,-2,4,2,-1,-1,1,-1,0.814453,-0.155762,0.598145,-12.625,21.0625,-3.8125,-0.301406,-0.998651,-0.375447
672,-2,-1,1,-2,-1,-2,-1,-1,0.814453,-0.155762,0.598145,-12.625,21.0625,-3.8125,-0.301406,-0.998651,-0.375447
686,-2,-3,-5,-3,0,-1,-1,1,0.803223,-0.186523,0.639648,-17.125,25.5625,-2.8125,-0.301332,-0.987577,-0.382418
686,1,1,1,2,-1,0,-1,-1,0.803223,-0.186523,0.639648,-17.125,25.5625,-2.8125,-0.301332,-0.987577,-0.382418
694,1,2,-1,-1,0,-1,-1,0,0.803223,-0.186523,0.639648,-17.125,25.5625,-2.8125,-0.301332,-0.987577,-0.382418
694,1,0,0,1,-2,1,-2,-1,0.803223,-0.186523,0.639648,-17.125,25.5625,-2.8125,-0.301332,-0.987577,-0.382418
709,-1,1,4,1,0,2,-2,-1,0.803711,-0.201172,0.660156,-17.6875,30.75,-2.875,-0.301072,-0.974757,-0.390167
709,-1,3,5,0,-1,-2,-2,-1,0.803711,-0.201172,0.660156,-17.6875,30.75,-2.875,-0.301072,-0.974757,-0.390167
709,1,-1,-12,-6,-2,-1,-2,0,0.803711,-0.201172,0.660156,-17.6875,30.75,-2.875,-0.301072,-0.974757,-0.390167
709,-4,0,-4,0,-1,-1,0,-1,0.803711,-0.201172,0.660156,-17.6875,30.75,-2.875,-0.301072,-0.974757,-0.390167
732,1,-3,0,1,2,-1,0,-2,0.805176,-0.213379,0.683105,-15.4375,36,-3.0625,-0.299555,-0.95996,-0.398347
732,1,3,-1,-2,0,-1,1,1,0.805176,-0.213379,0.683105,-15.4375,36,-3.0625,-0.299555,-0.95996,-0.398347
733,-2,-3,-1,1,0,-1,-2,-2,0.805176,-0.213379,0.683105,-15.4375,36,-3.0625,-0.299555,-0.95996,-0.398347
733,1,0,-4,-2,-3,0,-1,0,0.805176,-0.213379,0.683105,-15.4375,36,-3.0625,-0.299555,-0.95996,-0.398347
745,-1,1,-4,-3,-2,-4,-2,0,0.807617,-0.200195,0.703125,-16.5625,40.5625,-2.1875,-0.297816,-0.943739,-0.407302
745,0,-2,-2,-2,-2,0,-2,0,0.807617,-0.200195,0.703125,-16.5625,40.5625,-2.1875,-0.297816,-0.943739,-0.407302
753,-1,1,1,1,1,0,0,-1,0.807617,-0.200195,0.703125,-16.5625,40.5625,-2.1875,-0.297816,-0.943739,-0.407302
753,0,0,-4,0,-3,-1,-1,1,0.807617,-0.200195,0.703125,-16.5625,40.5625,-2.1875,-0.297816,-0.943739,-0.407302
768,3,4,5,2,0,0,-1,-1,0.79834,-0.192871,0.698242,-21.8125,47.5625,-1.625,-0.297311,-0.925533,-0.417163
768,-3,-2,-1,-1,-1,-2,-1,-1,0.79834,-0.192871,0.698242,-21.8125,47.5625,-1.625,-0.297311,-0.925533,-0.417163
768,0,0,-4,-1,-1,1,0,-2,0.79834,-0.192871,0.698242,-21.8125,47.5625,-1.625,-0.297311,-0.925533,-0.417163
768,-1,-3,1,0,-1,-1,0,-2,0.79834,-0.192871,0.698242,-21.8125,47.5625,-1.625,-0.297311,-0.925533,-0.417163
792,-1,-3,-3,-2,-2,1,0,1,0.786133,-0.205078,0.69873,-27.375,54.6875,-0.1875,-0.299018,-0.90513,-0.426708
792,-1,-3,-1,-3,-1,-1,2,-1,0.786133,-0.205078,0.69873,-27.375,54.6875,-0.1875,-0.299018,-0.90513,-0.426708
792,0,-3,-5,-7,-2,-1,1,1,0.786133,-0.205078,0.69873,-27.375,54.6875,-0.1875,-0.299018,-0.90513,-0.426708
792,0,-4,-1,0,0,-1,-1,-3,0.786133,-0.205078,0.69873,-27.375,54.6875,-0.1875,-0.299018,-0.90513,-0.426708
805,-1,1,1,2,0,-1,1,-2,0.780762,-0.228516,0.713867,-28.75,59.5,2.4375,-0.30264,-0.883052,-0.435101
805,-3,-3,-2,-2,0,-2,-2,0,0.780762,-0.228516,0.713867,-28.75,59.5,2.4375,-0.30264,-0.883052,-0.435101
814,-3,-3,2,0,-1,-1,0,-2,0.780762,-0.228516,0.713867,-28.75,59.5,2.4375,-0.30264,-0.883052,-0.435101
814,-2,0,1,-1,0,-1,-1,-1,0.780762,-0.228516,0.713867,-28.75,59.5,2.4375,-0.30264,-0.883052,-0.435101
829,-4,-4,-2,-2,-2,-3,-1,-2,0.770996,-0.245605,0.700195,-24.5,64.3125,4.6875,-0.305992,-0.859642,-0.442464
829,2,3,1,-1,-1,-2,-2,0,0.770996,-0.245605,0.700195,-24.5,64.3125,4.6875,-0.305992,-0.859642,-0.442464
830,-2,-1,1,0,-1,-5,-2,-2,0.770996,-0.245605,0.700195,-24.5,64.3125,4.6875,-0.305992,-0.859642,-0.442464
830,-2,-4,-1,-2,-1,-1,-1,-1,0.770996,-0.245605,0.700195,-24.5,64.3125,4.6875,-0.305992,-0.859642,-0.442464
852,1,1,2,1,-1,1,1,0,0.748047,-0.243164,0.707031,-21.25,69.5,6.1875,-0.307924,-0.834644,-0.450053
852,-2,-1,-1,-1,-3,0,0,-1,0.748047,-0.243164,0.707031,-21.25,69.5,6.1875,-0.307924,-0.834644,-0.450053
853,1,-2,0,-2,0,0,-2,2,0.748047,-0.243164,0.707031,-21.25,69.5,6.1875,-0.307924,-0.834644,-0.450053
853,1,2,0,1,-2,0,1,1,0.748047,-0.243164,0.707031,-21.25,69.5,6.1875,-0.307924,-0.834644,-0.450053
865,-2,-3,-2,-2,0,-2,-1,-1,0.728027,-0.263672,0.714844,-20.875,72.625,8.9375,-0.31137,-0.808279,-0.456019
865,0,0,-1,-1,0,-1,0,-1,0.728027,-0.263672,0.714844,-20.875,72.625,8.9375,-0.31137,-0.808279,-0.456019
873,-1,-1,-1,0,0,0,-1,-1,0.728027,-0.263672,0.714844,-20.875,72.625,8.9375,-0.31137,-0.808279,-0.456019
873,-1,-1,0,0,-1,-1,-2,-1,0.728027,-0.263672,0.714844,-20.875,72.625,8.9375,-0.31137,-0.808279,-0.456019
888,2,1,-2,-1,-1,-2,-3,0,0.711914,-0.283691,0.728516,-18.8125,74.25,11.75,-0.315219,-0.781192,-0.460771
888,-1,-2,-2,-2,-1,-1,0,0,0.711914,-0.283691,0.728516,-18.8125,74.25,11.75,-0.315219,-0.781192,-0.460771
889,-3,-2,0,0,-4,-1,-1,-2,0.711914,-0.283691,0.728516,-18.8125,74.25,11.75,-0.315219,-0.781192,-0.460771
889,0,0,-3,-2,1,-1,-1,-1,0.711914,-0.283691,0.728516,-18.8125,74.25,11.75,-0.315219,-0.781192,-0.460771
912,-1,0,-1,-2,-2,2,0,-3,0.694336,-0.288086,0.709473,-18.375,76.6875,13.6875,-0.319725,-0.753858,-0.464799
912,-1,-5,-2,-2,-1,0,0,-1,0.694336,-0.288086,0.709473,-18.375,76.6875,13.6875,-0.319725,-0.753858,-0.464799
912,0,-1,0,-1,-3,-1,-2,1,0.694336,-0.288086,0.709473,-18.375,76.6875,13.6875,-0.319725,-0.753858,-0.464799
912,0,-2,-1,0,-2,0,-1,-1,0.694336,-0.288086,0.709473,-18.375,76.6875,13.6875,-0.319725,-0.753858,-0.464799
935,0,-4,-1,-1,-1,-1,-2,-1,0.684082,-0.309082,0.709473,-19.8125,78.5625,15.875,-0.325741,-0.726096,-0.467999
935,-1,1,2,0,1,0,-2,-3,0.684082,-0.309082,0.709473,-19.8125,78.5625,15.875,-0.325741,-0.726096,-0.467999
935,-1,0,0,1,0,-1,0,-1,0.684082,-0.309082,0.709473,-19.8125,78.5625,15.875,-0.325741,-0.726096,-0.467999
935,0,1,0,0,-2,-1,0,-1,0.684082,-0.309082,0.709473,-19.8125,78.5625,15.875,-0.325741,-0.726096,-0.467999
949,0,-2,-1,1,1,0,0,0,0.6875,-0.310547,0.698242,-19.125,79.8125,19.9375,-0.332425,-0.698431,-0.469829
949,-1,-1,-1,1,-1,0,-2,0,0.6875,-0.310547,0.698242,-19.125,79.8125,19.9375,-0.332425,-0.698431,-0.469829
949,0,-2,-1,0,-2,-2,-1,0,0.6875,-0.310547,0.698242,-19.125,79.8125,19.9375,-0.332425,-0.698431,-0.469829
949,-2,-2,-2,-3,0,-1,-1,-1,0.6875,-0.310547,0.698242,-19.125,79.8125,19.9375,-0.332425,-0.698431,-0.469829
972,-1,-2,-2,-2,-3,-1,-2,-1,0.682617,-0.312988,0.682129,-17.3125,80.3125,24.875,-0.339762,-0.670748,-0.469829
972,-1,-1,1,-1,-1,-4,-2,1,0.682617,-0.312988,0.682129,-17.3125,80.3125,24.875,-0.339762,-0.670748,-0.469829
973,1,1,0,1,-2,0,-3,7,0.682617,-0.312988,0.682129,-17.3125,80.3125,24.875,-0.339762,-0.670748,-0.469829
973,-6,-2,-2,0,2,-1,4,-5,0.682617,-0.312988,0.682129,-17.3125,80.3125,24.875,-0.339762,-0.670748,-0.469829
994,0,0,-2,-3,-3,0,-7,-16,0.654785,-0.334961,0.680664,-16.5625,81.6875,28.875,-0.348011,-0.6423,-0.468378
994,-1,-1,-3,-1,0,0,0,-2,0.654785,-0.334961,0.680664,-16.5625,81.6875,28.875,-0.348011,-0.6423,-0.468378
995,-3,-2,-1,0,0,-6,-4,-2,0.654785,-0.334961,0.680664,-16.5625,81.6875,28.875,-0.348011,-0.6423,-0.468378
995,1,-3,-1,-2,-4,-2,-4,3,0.654785,-0.334961,0.680664,-16.5625,81.6875,28.875,-0.348011,-0.6423,-0.468378
1009,-1,-3,-1,-1,0,7,6,6,0.623535,-0.350098,0.681641,-14.4375,82.875,33.125,-0.356445,-0.612883,-0.465694
1009,-3,-4,-1,-2,-1,-1,1,-3,0.623535,-0.350098,0.681641,-14.4375,82.875,33.125,-0.356445,-0.612883,-0.465694
1009,0,-3,1,-3,2,0,-2,-6,0.623535,-0.350098,0.681641,-14.4375,82.875,33.125,-0.356445,-0.612883,-0.465694
1009,1,-1,0,-2,-1,-3,-4,4,0.623535,-0.350098,0.681641,-14.4375,82.875,33.125,-0.356445,-0.612883,-0.465694
1040,-4,-4,-1,-1,-1,-5,-1,-8,0.596191,-0.369629,0.674805,-6.625,80.4375,39.0625,-0.363681,-0.583764,-0.460471
1040,4,-2,-1,0,-4,-3,-2,3,0.596191,-0.369629,0.674805,-6.625,80.4375,39.0625,-0.363681,-0.583764,-0.460471
1040,-2,-5,-2,-1,-3,8,6,2,0.596191,-0.369629,0.674805,-6.625,80.4375,39.0625,-0.363681,-0.583764,-0.460471
1040,-2,-5,0,-1,-3,1,1,-2,0.596191,-0.369629,0.674805,-6.625,80.4375,39.0625,-0.363681,-0.583764,-0.460471
1054,0,-1,0,0,1,-1,-1,3,0.57666,-0.373535,0.656738,3.1875,76.6875,44.6875,-0.36897,-0.555542,-0.452806
1054,3,-4,-2,1,-1,-4,1,2,0.57666,-0.373535,0.656738,3.1875,76.6875,44.6875,-0.36897,-0.555542,-0.452806
1055,1,-2,-1,-1,-1,-1,0,-2,0.57666,-0.373535,0.656738,3.1875,76.6875,44.6875,-0.36897,-0.555542,-0.452806
1055,2,-2,-3,-2,0,1,-3,-1,0.57666,-0.373535,0.656738,3.1875,76.6875,44.6875,-0.36897,-0.555542,-0.452806
1069,0,2,-1,-3,0,-3,-1,3,0.548828,-0.365234,0.655273,12.9375,73.8125,50.8125,-0.371795,-0.527465,-0.442827
1069,-3,2,0,-1,-1,-3,-3,-2,0.548828,-0.365234,0.655273,12.9375,73.8125,50.8125,-0.371795,-0.527465,-0.442827
1069,-3,8,0,-1,-3,-5,-2,-4,0.548828,-0.365234,0.655273,12.9375,73.8125,50.8125,-0.371795,-0.527465,-0.442827
1069,0,6,1,-1,2,7,1,-2,0.548828,-0.365234,0.655273,12.9375,73.8125,50.8125,-0.371795,-0.527465,-0.442827
1090,0,2,0,-1,-1,2,3,4,0.503906,-0.373047,0.667969,21.5625,71.0625,57.4375,-0.372609,-0.499031,-0.430432
1090,-3,3,-2,-2,-2,-7,-7,-12,0.503906,-0.373047,0.667969,21.5625,71.0625,57.4375,-0.372609,-0.499031,-0.430432
1100,0,2,0,-1,3,10,5,-3,0.474121,-0.370605,0.669434,32.375,65.5,63.875,-0.370741,-0.47164,-0.414868
1100,-3,1,-3,0,0,0,5,18,0.474121,-0.370605,0.669434,32.375,65.5,63.875,-0.370741,-0.47164,-0.414868
1113,-8,1,-1,-1,-1,-2,-5,-22,0.474121,-0.370605,0.669434,32.375,65.5,63.875,-0.370741,-0.47164,-0.414868
1113,8,17,1,-2,1,1,1,9,0.474121,-0.370605,0.669434,32.375,65.5,63.875,-0.370741,-0.47164,-0.414868
1121,1,7,-1,-1,-3,-5,-4,-1,0.447266,-0.373535,0.672363,40.25,59.8125,70.5,-0.36715,-0.445045,-0.396429
1121,1,-1,-3,1,-2,-4,-3,-3,0.447266,-0.373535,0.672363,40.25,59.8125,70.5,-0.36715,-0.445045,-0.396429
1137,-10,-30,-5,-4,-4,-7,-2,1,0.447266,-0.373535,0.672363,40.25,59.8125,70.5,-0.36715,-0.445045,-0.396429
1137,-1,-3,1,0,0,5,4,0,0.447266,-0.373535,0.672363,40.25,59.8125,70.5,-0.36715,-0.445045,-0.396429
1138,-6,19,0,-1,-3,-4,-4,2,0.435059,-0.392578,0.663574,47.9375,55.875,74.5625,-0.361979,-0.419773,-0.375777
1138,2,18,-2,-1,0,3,-1,-1,0.435059,-0.392578,0.663574,47.9375,55.875,74.5625,-0.361979,-0.419773,-0.375777
1151,-2,2,-2,0,-2,-2,-2,-11,0.435059,-0.392578,0.663574,47.9375,55.875,74.5625,-0.361979,-0.419773,-0.375777
1151,-2,-5,-1,0,-2,-5,-4,-4,0.435059,-0.392578,0.663574,47.9375,55.875,74.5625,-0.361979,-0.419773,-0.375777
1163,-2,-8,-1,0,-2,-7,-6,1,0.425293,-0.391602,0.665527,53,54.3125,75.6875,-0.354779,-0.395195,-0.354779
1163,-2,-8,3,-1,2,6,1,-7,0.425293,-0.391602,0.665527,53,54.3125,75.6875,-0.354779,-0.395195,-0.354779
1174,4,2,-1,-1,-1,1,-1,2,0.425293,-0.391602,0.665527,53,54.3125,75.6875,-0.354779,-0.395195,-0.354779
1174,-2,-24,0,1,1,5,3,6,0.425293,-0.391602,0.665527,53,54.3125,75.6875,-0.354779,-0.395195,-0.354779
1176,3,4,-2,0,-2,0,-3,-17,0.390137,-0.381348,0.660156,56.25,49.9375,78.375,-0.34669,-0.371707,-0.332158
1176,-1,3,-1,0,-6,-9,-5,3,0.390137,-0.381348,0.660156,56.25,49.9375,78.375,-0.34669,-0.371707,-0.332158
1197,2,10,-1,-2,-1,5,2,-3,0.390137,-0.381348,0.660156,56.25,49.9375,78.375,-0.34669,-0.371707,-0.332158
1197,-4,-5,-3,-2,-1,-3,2,41,0.390137,-0.381348,0.660156,56.25,49.9375,78.375,-0.34669,-0.371707,-0.332158
1198,0,62,4,0,1,-3,-5,-25,0.343262,-0.373535,0.67627,59.25,42.875,83,-0.337687,-0.349458,-0.307129
1198,-10,-24,-4,-3,0,-6,0,-13,0.343262,-0.373535,0.67627,59.25,42.875,83,-0.337687,-0.349458,-0.307129
1210,3,-8,-2,-3,0,-1,-2,11,0.343262,-0.373535,0.67627,59.25,42.875,83,-0.337687,-0.349458,-0.307129
1210,-3,-2,-3,-1,-1,2,4,-3,0.343262,-0.373535,0.67627,59.25,42.875,83,-0.337687,-0.349458,-0.307129
1219,1,0,-2,-1,-3,0,1,10,0.308105,-0.348145,0.655273,55.875,33.5,85.25,-0.329814,-0.330017,-0.280367
1219,0,7,0,-1,0,-1,-1,-3,0.308105,-0.348145,0.655273,55.875,33.5,85.25,-0.329814,-0.330017,-0.280367
1234,0,1,3,0,-3,-3,-2,-8,0.308105,-0.348145,0.655273,55.875,33.5,85.25,-0.329814,-0.330017,-0.280367
1234,-4,-2,-4,-3,-1,0,-6,-13,0.308105,-0.348145,0.655273,55.875,33.5,85.25,-0.329814,-0.330017,-0.280367
1241,0,-25,-3,-1,1,2,-1,5,0.305176,-0.336426,0.657227,49.5625,24.625,84,-0.323557,-0.314007,-0.253209
1241,-1,-5,-1,-1,1,-1,1,-10,0.305176,-0.336426,0.657227,49.5625,24.625,84,-0.323557,-0.314007,-0.253209
1257,3,-10,1,1,0,-2,-1,8,0.305176,-0.336426,0.657227,49.5625,24.625,84,-0.323557,-0.314007,-0.253209
1257,0,16,-1,0,-1,0,-3,-13,0.305176,-0.336426,0.657227,49.5625,24.625,84,-0.323557,-0.314007,-0.253209
1258,-3,-24,-3,-3,0,1,2,5,0.285645,-0.311035,0.677734,43.25,16.75,82.0625,-0.318671,-0.300726,-0.225949
1258,0,-11,-2,-2,-2,-3,-2,6,0.285645,-0.311035,0.677734,43.25,16.75,82.0625,-0.318671,-0.300726,-0.225949
1271,2,15,2,-1,-3,-3,1,7,0.285645,-0.311035,0.677734,43.25,16.75,82.0625,-0.318671,-0.300726,-0.225949
1271,-1,3,1,-1,0,-2,-3,-5,0.285645,-0.311035,0.677734,43.25,16.75,82.0625,-0.318671,-0.300726,-0.225949
1280,-2,-15,-1,2,3,3,2,5,0.243652,-0.306152,0.699219,36.1875,9.875,78.9375,-0.315589,-0.289355,-0.19914
1280,0,-3,0,1,1,-2,-2,-2,0.243652,-0.306152,0.699219,36.1875,9.875,78.9375,-0.315589,-0.289355,-0.19914
1294,1,38,-2,-2,0,-2,-1,4,0.243652,-0.306152,0.699219,36.1875,9.875,78.9375,-0.315589,-0.289355,-0.19914
1294,-2,-13,-2,-1,-3,-3,-1,-11,0.243652,-0.306152,0.699219,36.1875,9.875,78.9375,-0.315589,-0.289355,-0.19914
1301,0,-4,0,-1,-4,-5,1,1,0.195801,-0.287109,0.71582,25.875,3.125,74.0625,-0.314928,-0.279614,-0.173501
1301,1,-8,-1,0,-2,-2,-2,-3,0.195801,-0.287109,0.71582,25.875,3.125,74.0625,-0.314928,-0.279614,-0.173501
1317,1,26,-5,0,-2,1,0,1,0.195801,-0.287109,0.71582,25.875,3.125,74.0625,-0.314928,-0.279614,-0.173501
1317,0,40,1,-1,0,0,0,-2,0.195801,-0.287109,0.71582,25.875,3.125,74.0625,-0.314928,-0.279614,-0.173501
1318,1,3,-2,0,0,0,-1,1,0.186523,-0.291504,0.726074,16.8125,-3.4375,68.4375,-0.316921,-0.272664,-0.149072
1318,1,13,0,-3,-4,-1,-2,0,0.186523,-0.291504,0.726074,16.8125,-3.4375,68.4375,-0.316921,-0.272664,-0.149072
1330,-1,-26,1,-1,-1,0,-1,3,0.186523,-0.291504,0.726074,16.8125,-3.4375,68.4375,-0.316921,-0.272664,-0.149072
1330,-8,-18,-5,-1,0,1,-2,-4,0.186523,-0.291504,0.726074,16.8125,-3.4375,68.4375,-0.316921,-0.272664,-0.149072
1340,-1,-7,-2,2,1,-1,0,0,0.197266,-0.294434,0.737793,12.9375,-10.8125,64.5625,-0.319828,-0.26866,-0.125391
1340,3,-6,0,-2,0,-3,-1,-2,0.197266,-0.294434,0.737793,12.9375,-10.8125,64.5625,-0.319828,-0.26866,-0.125391
1353,-5,-12,3,-1,0,-2,-2,-2,0.197266,-0.294434,0.737793,12.9375,-10.8125,64.5625,-0.319828,-0.26866,-0.125391
1353,3,-10,0,-1,-1,0,-1,-1,0.197266,-0.294434,0.737793,12.9375,-10.8125,64.5625,-0.319828,-0.26866,-0.125391
1361,1,2,-3,-5,-2,0,-1,0,0.203125,-0.282227,0.761719,10.125,-16.5,60.9375,-0.323031,-0.267,-0.102343
1361,-4,-18,9,-2,-2,0,-2,1,0.203125,-0.282227,0.761719,10.125,-16.5,60.9375,-0.323031,-0.267,-0.102343
1377,2,7,-1,0,0,-2,0,1,0.203125,-0.282227,0.761719,10.125,-16.5,60.9375,-0.323031,-0.267,-0.102343
1377,0,-17,2,2,0,1,0,1,0.203125,-0.282227,0.761719,10.125,-16.5,60.9375,-0.323031,-0.267,-0.102343
1379,0,17,2,-3,0,0,0,1,0.178711,-0.283203,0.787598,7.9375,-23.5625,55.5625,-0.32643,-0.267388,-0.0804665
1379,-4,-28,-5,-4,-4,-1,-1,0,0.178711,-0.283203,0.787598,7.9375,-23.5625,55.5625,-0.32643,-0.267388,-0.0804665
1399,1,-28,1,1,-1,0,-1,1,0.178711,-0.283203,0.787598,7.9375,-23.5625,55.5625,-0.32643,-0.267388,-0.0804665
1399,-6,-5,10,11,-1,2,0,-1,0.178711,-0.283203,0.787598,7.9375,-23.5625,55.5625,-0.32643,-0.267388,-0.0804665
1400,4,-12,-18,-15,0,-1,0,1,0.197754,-0.253418,0.788086,2.0625,-31.375,47.625,-0.330564,-0.271599,-0.0606109
1400,-6,37,-10,-3,0,-1,1,-2,0.197754,-0.253418,0.788086,2.0625,-31.375,47.625,-0.330564,-0.271599,-0.0606109
1413,0,-5,-2,-1,0,0,1,-1,0.197754,-0.253418,0.788086,2.0625,-31.375,47.625,-0.330564,-0.271599,-0.0606109
1413,2,-6,-5,-1,-3,-1,-1,-3,0.197754,-0.253418,0.788086,2.0625,-31.375,47.625,-0.330564,-0.271599,-0.0606109
1420,-1,-12,10,9,0,0,-1,1,0.250977,-0.241211,0.777832,-2.6875,-37.875,39.8125,-0.335718,-0.2799,-0.0426708
1420,-3,3,-2,-2,-1,-3,-2,0,0.250977,-0.241211,0.777832,-2.6875,-37.875,39.8125,-0.335718,-0.2799,-0.0426708
1438,-2,0,-4,-3,-1,0,-2,1,0.250977,-0.241211,0.777832,-2.6875,-37.875,39.8125,-0.335718,-0.2799,-0.0426708
1438,0,13,6,0,-3,-3,-1,-1,0.250977,-0.241211,0.777832,-2.6875,-37.875,39.8125,-0.335718,-0.2799,-0.0426708
1439,-2,-11,-1,0,-1,0,-2,0,0.268066,-0.219238,0.80957,-10.375,-39.4375,33.4375,-0.342259,-0.289439,-0.0268731
1439,2,3,-4,2,0,1,1,-1,0.268066,-0.219238,0.80957,-10.375,-39.4375,33.4375,-0.342259,-0.289439,-0.0268731
1460,0,4,2,3,-2,-1,0,-1,0.268066,-0.219238,0.80957,-10.375,-39.4375,33.4375,-0.342259,-0.289439,-0.0268731
1460,1,-10,-4,-3,-2,-1,-1,0,0.268066,-0.219238,0.80957,-10.375,-39.4375,33.4375,-0.342259,-0.289439,-0.0268731
1461,-3,-5,-4,-3,0,-2,-3,-2,0.263184,-0.235352,0.837402,-17.25,-42.375,27.5,-0.350777,-0.300001,-0.0126318
1461,2,-4,3,-1,-1,-1,0,1,0.263184,-0.235352,0.837402,-17.25,-42.375,27.5,-0.350777,-0.300001,-0.0126318
1474,0,2,-3,-2,1,-2,2,-1,0.263184,-0.235352,0.837402,-17.25,-42.375,27.5,-0.350777,-0.300001,-0.0126318
1474,-1,-1,1,1,1,0,-2,-2,0.263184,-0.235352,0.837402,-17.25,-42.375,27.5,-0.350777,-0.300001,-0.0126318
1481,-5,-4,-10,-8,-1,-2,0,-1,0.291992,-0.239746,0.861328,-21.625,-47.8125,19.625,-0.360135,-0.313268,-0.000403297
1481,4,21,5,2,-1,-1,-1,1,0.291992,-0.239746,0.861328,-21.625,-47.8125,19.625,-0.360135,-0.313268,-0.000403297
1497,-8,-19,-4,-3,-2,-3,-3,-2,0.291992,-0.239746,0.861328,-21.625,-47.8125,19.625,-0.360135,-0.313268,-0.000403297
1497,2,9,-3,-4,-2,-4,-1,-2,0.291992,-0.239746,0.861328,-21.625,-47.8125,19.625,-0.360135,-0.313268,-0.000403297
1499,4,17,12,7,-1,-1,0,0,0.350098,-0.209473,0.874512,-28.9375,-49.9375,10.3125,-0.370302,-0.32938,0.00862359
1499,-3,-8,-2,-1,0,0,-2,-2,0.350098,-0.209473,0.874512,-28.9375,-49.9375,10.3125,-0.370302,-0.32938,0.00862359
1519,0,-2,-1,0,-1,0,1,-1,0.350098,-0.209473,0.874512,-28.9375,-49.9375,10.3125,-0.370302,-0.32938,0.00862359
1519,-1,-1,-6,-3,0,1,-1,1,0.350098,-0.209473,0.874512,-28.9375,-49.9375,10.3125,-0.370302,-0.32938,0.00862359
1521,0,3,1,2,-1,-1,-2,-1,0.386719,-0.243164,0.875,-34.125,-51.625,5.0625,-0.382417,-0.346729,0.0165492
1521,-5,-31,-10,-3,-2,-1,0,-2,0.386719,-0.243164,0.875,-34.125,-51.625,5.0625,-0.382417,-0.346729,0.0165492
1534,2,8,4,1,0,-1,-1,-2,0.386719,-0.243164,0.875,-34.125,-51.625,5.0625,-0.382417,-0.346729,0.0165492
1534,1,0,-16,-3,-1,0,1,-1,0.386719,-0.243164,0.875,-34.125,-51.625,5.0625,-0.382417,-0.346729,0.0165492
1541,-3,-12,0,0,-1,-2,0,-1,0.426758,-0.246094,0.893066,-39.375,-51.125,-0.875,-0.395572,-0.365133,0.0224698
1541,-1,5,0,0,-1,-1,1,-1,0.426758,-0.246094,0.893066,-39.375,-51.125,-0.875,-0.395572,-0.365133,0.0224698
1557,-1,-2,2,0,-1,0,-1,-1,0.426758,-0.246094,0.893066,-39.375,-51.125,-0.875,-0.395572,-0.365133,0.0224698
1557,1,-1,2,-5,-3,-1,1,-1,0.426758,-0.246094,0.893066,-39.375,-51.125,-0.875,-0.395572,-0.365133,0.0224698
1558,1,6,-1,3,-1,0,-1,1,0.460449,-0.263672,0.869141,-41.8125,-48.375,-4.4375,-0.409423,-0.383487,0.0270094
1558,-1,1,-1,0,-3,-2,-2,-1,0.460449,-0.263672,0.869141,-41.8125,-48.375,-4.4375,-0.409423,-0.383487,0.0270094
1580,0,4,2,-1,-1,-2,-1,0,0.460449,-0.263672,0.869141,-41.8125,-48.375,-4.4375,-0.409423,-0.383487,0.0270094
1580,1,8,3,-1,1,-1,-1,0,0.460449,-0.263672,0.869141,-41.8125,-48.375,-4.4375,-0.409423,-0.383487,0.0270094
1581,-4,-10,-5,-1,-1,0,-2,-3,0.495117,-0.294922,0.86084,-38.5,-46,-5.6875,-0.422468,-0.401433,0.0311886
1581,0,8,2,0,-1,1,0,0,0.495117,-0.294922,0.86084,-38.5,-46,-5.6875,-0.422468,-0.401433,0.0311886
1593,-2,-5,-3,-2,-2,1,-3,-1,0.495117,-0.294922,0.86084,-38.5,-46,-5.6875,-0.422468,-0.401433,0.0311886
1593,1,5,2,-2,-2,-2,-1,1,0.495117,-0.294922,0.86084,-38.5,-46,-5.6875,-0.422468,-0.401433,0.0311886
1602,-5,-13,-2,0,0,1,1,-2,0.516602,-0.303711,0.839355,-31.8125,-44.0625,-7.0625,-0.433379,-0.419093,0.0348441
1602,-1,4,0,0,-1,-1,-1,-2,0.516602,-0.303711,0.839355,-31.8125,-44.0625,-7.0625,-0.433379,-0.419093,0.0348441
1617,-1,3,-3,-3,-1,-2,-1,-1,0.516602,-0.303711,0.839355,-31.8125,-44.0625,-7.0625,-0.433379,-0.419093,0.0348441
1617,-3,-5,-6,-4,-2,-2,-1,-1,0.516602,-0.303711,0.839355,-31.8125,-44.0625,-7.0625,-0.433379,-0.419093,0.0348441
1618,-1,-1,4,0,0,0,-1,2,0.532227,-0.307129,0.801758,-22.25,-41.875,-9.0625,-0.440817,-0.436618,0.0377586
1618,3,15,-2,-2,0,0,0,0,0.532227,-0.307129,0.801758,-22.25,-41.875,-9.0625,-0.440817,-0.436618,0.0377586
1640,-3,-6,-1,-3,-1,-1,-1,0,0.532227,-0.307129,0.801758,-22.25,-41.875,-9.0625,-0.440817,-0.436618,0.0377586
1640,1,8,2,1,0,0,-1,-2,0.532227,-0.307129,0.801758,-22.25,-41.875,-9.0625,-0.440817,-0.436618,0.0377586
1641,-4,-11,-5,-3,-3,-1,0,-2,0.529297,-0.274414,0.793945,-18,-39.8125,-13.4375,-0.44541,-0.453919,0.0385601
1641,-7,-18,-4,-2,-4,-3,-1,-1,0.529297,-0.274414,0.793945,-18,-39.8125,-13.4375,-0.44541,-0.453919,0.0385601
1653,0,0,0,1,-1,-2,0,0,0.529297,-0.274414,0.793945,-18,-39.8125,-13.4375,-0.44541,-0.453919,0.0385601
1653,-2,-1,9,1,-2,-1,-2,-2,0.529297,-0.274414,0.793945,-18,-39.8125,-13.4375,-0.44541,-0.453919,0.0385601
1662,-3,-4,-16,-9,-1,-2,-3,-1,0.543457,-0.268555,0.770996,-18.5,-38.125,-15.4375,-0.449722,-0.471104,0.038432
1662,2,5,-1,-1,-1,0,-2,-2,0.543457,-0.268555,0.770996,-18.5,-38.125,-15.4375,-0.449722,-0.471104,0.038432
1677,-2,-4,-1,-2,-1,0,-2,0,0.543457,-0.268555,0.770996,-18.5,-38.125,-15.4375,-0.449722,-0.471104,0.038432
1677,-1,-9,4,4,1,-2,-1,-1,0.543457,-0.268555,0.770996,-18.5,-38.125,-15.4375,-0.449722,-0.471104,0.038432
1678,4,16,1,0,-2,0,-1,-1,0.561523,-0.234863,0.741699,-23.8125,-36.125,-17.875,-0.454755,-0.488403,0.0369196
1678,-2,1,2,0,1,-2,-2,-1,0.561523,-0.234863,0.741699,-23.8125,-36.125,-17.875,-0.454755,-0.488403,0.0369196
1699,-3,-10,-5,-2,1,-1,0,0,0.561523,-0.234863,0.741699,-23.8125,-36.125,-17.875,-0.454755,-0.488403,0.0369196
1699,4,16,1,0,-1,0,-2,0,0.561523,-0.234863,0.741699,-23.8125,-36.125,-17.875,-0.454755,-0.488403,0.0369196
1700,-2,-6,4,4,0,2,-1,0,0.552734,-0.243652,0.742676,-31.1875,-33.25,-18.875,-0.462089,-0.504435,0.0344647
1700,-1,-2,-5,0,-1,1,1,-1,0.552734,-0.243652,0.742676,-31.1875,-33.25,-18.875,-0.462089,-0.504435,0.0344647
1713,0,4,6,3,-2,-1,0,-2,0.552734,-0.243652,0.742676,-31.1875,-33.25,-18.875,-0.462089,-0.504435,0.0344647
1713,-3,-1,-1,-2,-3,1,-1,-1,0.552734,-0.243652,0.742676,-31.1875,-33.25,-18.875,-0.462089,-0.504435,0.0344647
1722,-8,-17,-6,-3,-4,-1,-1,-4,0.528809,-0.288574,0.744629,-35.5,-31.75,-19.5625,-0.471548,-0.519052,0.0320886
1722,0,5,4,-2,0,-2,0,-2,0.528809,-0.288574,0.744629,-35.5,-31.75,-19.5625,-0.471548,-0.519052,0.0320886
1737,-2,-3,-19,-4,-3,-2,-4,-1,0.528809,-0.288574,0.744629,-35.5,-31.75,-19.5625,-0.471548,-0.519052,0.0320886
1737,-1,-6,-8,-6,-1,1,0,0,0.528809,-0.288574,0.744629,-35.5,-31.75,-19.5625,-0.471548,-0.519052,0.0320886
1739,0,18,8,3,-2,-2,-3,-2,0.537109,-0.312988,0.71582,-36.5625,-28.875,-23.125,-0.481291,-0.533301,0.0283945
1739,-1,-1,0,-3,-3,-1,-1,0,0.537109,-0.312988,0.71582,-36.5625,-28.875,-23.125,-0.481291,-0.533301,0.0283945
1759,-3,-1,-9,-6,1,-2,-2,-1,0.537109,-0.312988,0.71582,-36.5625,-28.875,-23.125,-0.481291,-0.533301,0.0283945
1759,-2,-5,-11,-7,-1,-1,-1,-1,0.537109,-0.312988,0.71582,-36.5625,-28.875,-23.125,-0.481291,-0.533301,0.0283945
1760,0,-6,-5,0,-2,-1,0,-1,0.569824,-0.333008,0.73291,-33.75,-27.1875,-25.375,-0.489615,-0.547454,0.0237109
1760,0,5,10,3,1,0,-1,-1,0.569824,-0.333008,0.73291,-33.75,-27.1875,-25.375,-0.489615,-0.547454,0.0237109
1773,2,5,17,4,-1,0,-1,-1,0.569824,-0.333008,0.73291,-33.75,-27.1875,-25.375,-0.489615,-0.547454,0.0237109
1773,-4,-11,-1,-2,1,-2,-1,-2,0.569824,-0.333008,0.73291,-33.75,-27.1875,-25.375,-0.489615,-0.547454,0.0237109
1781,-1,-7,-1,1,2,-2,0,-2,0.589844,-0.331055,0.708496,-33.6875,-24.625,-24.3125,-0.497878,-0.561072,0.0189527
1781,2,-1,-1,-3,-1,-1,-1,-1,0.589844,-0.331055,0.708496,-33.6875,-24.625,-24.3125,-0.497878,-0.561072,0.0189527
1797,2,-2,-1,-2,-1,1,0,0,0.589844,-0.331055,0.708496,-33.6875,-24.625,-24.3125,-0.497878,-0.561072,0.0189527
1797,1,2,20,5,2,3,1,1,0.589844,-0.331055,0.708496,-33.6875,-24.625,-24.3125,-0.497878,-0.561072,0.0189527
1798,-2,-7,-22,-2,-2,-1,0,1,0.592773,-0.337891,0.708008,-37.1875,-21.375,-22.75,-0.507223,-0.573288,0.0142209
1798,-1,-12,52,4,3,1,3,1,0.592773,-0.337891,0.708008,-37.1875,-21.375,-22.75,-0.507223,-0.573288,0.0142209
1819,-3,-5,-35,-6,-3,-3,-1,-2,0.592773,-0.337891,0.708008,-37.1875,-21.375,-22.75,-0.507223,-0.573288,0.0142209
1819,-6,-14,-8,-5,-3,1,0,-1,0.592773,-0.337891,0.708008,-37.1875,-21.375,-22.75,-0.507223,-0.573288,0.0142209
1820,0,7,-14,0,-1,-3,-1,-2,0.598145,-0.383789,0.73291,-32.5625,-22.8125,-19.9375,-0.516338,-0.584557,0.0112596
1820,2,9,28,-1,-2,-2,-2,-2,0.598145,-0.383789,0.73291,-32.5625,-22.8125,-19.9375,-0.516338,-0.584557,0.0112596
1833,-4,-17,-11,0,-1,0,1,-2,0.598145,-0.383789,0.73291,-32.5625,-22.8125,-19.9375,-0.516338,-0.584557,0.0112596
1833,-11,-27,-76,-12,-7,-7,-5,-6,0.598145,-0.383789,0.73291,-32.5625,-22.8125,-19.9375,-0.516338,-0.584557,0.0112596
1842,6,15,13,3,0,-1,-2,-1,0.646484,-0.38623,0.676758,-30.6875,-23.375,-19.1875,-0.525776,-0.597355,0.00911187
1842,-5,-8,7,-2,-1,0,-1,-2,0.646484,-0.38623,0.676758,-30.6875,-23.375,-19.1875,-0.525776,-0.597355,0.00911187
1857,8,29,35,7,-1,1,-2,0,0.646484,-0.38623,0.676758,-30.6875,-23.375,-19.1875,-0.525776,-0.597355,0.00911187
1857,-3,-5,-1,0,2,0,-1,-2,0.646484,-0.38623,0.676758,-30.6875,-23.375,-19.1875,-0.525776,-0.597355,0.00911187
1859,-1,-9,-14,-1,-2,0,-1,1,0.634277,-0.381836,0.678711,-35.25,-17,-16.375,-0.536146,-0.607261,0.00644113
1859,-1,9,-23,-2,-4,-3,-1,-1,0.634277,-0.381836,0.678711,-35.25,-17,-16.375,-0.536146,-0.607261,0.00644113
1880,2,8,-3,-3,-1,0,-1,-1,0.634277,-0.381836,0.678711,-35.25,-17,-16.375,-0.536146,-0.607261,0.00644113
1880,4,14,25,4,2,1,2,0,0.634277,-0.381836,0.678711,-35.25,-17,-16.375,-0.536146,-0.607261,0.00644113
1881,1,4,25,5,3,2,1,2,0.575195,-0.431641,0.693359,-35.125,-14.4375,-10.8125,-0.548191,-0.613535,0.005741
1881,0,-6,2,-4,0,-1,-3,1,0.575195,-0.431641,0.693359,-35.125,-14.4375,-10.8125,-0.548191,-0.613535,0.005741
1893,-5,2,18,-1,0,-1,-2,-1,0.575195,-0.431641,0.693359,-35.125,-14.4375,-10.8125,-0.548191,-0.613535,0.005741
1893,-1,5,11,0,-2,-2,-2,-1,0.575195,-0.431641,0.693359,-35.125,-14.4375,-10.8125,-0.548191,-0.613535,0.005741
1902,0,-1,2,3,-2,-1,-1,1,0.584473,-0.435547,0.699219,-39.25,-15.375,-10.8125,-0.561367,-0.619925,0.00512087
1902,-1,-6,-27,-1,-1,-2,-3,0,0.584473,-0.435547,0.699219,-39.25,-15.375,-10.8125,-0.561367,-0.619925,0.00512087
1917,-9,-16,-9,-5,-4,-3,-3,-3,0.584473,-0.435547,0.699219,-39.25,-15.375,-10.8125,-0.561367,-0.619925,0.00512087
1917,1,-1,15,3,1,0,0,0,0.584473,-0.435547,0.699219,-39.25,-15.375,-10.8125,-0.561367,-0.619925,0.00512087
1918,-2,-10,27,-6,-3,-1,-3,-2,0.587402,-0.438965,0.701172,-36.5625,-15.125,-13.9375,-0.572963,-0.626836,0.00340091
1918,2,8,-34,-3,-2,-3,0,-1,0.587402,-0.438965,0.701172,-36.5625,-15.125,-13.9375,-0.572963,-0.626836,0.00340091
1939,-1,-3,-2,0,0,0,1,-1,0.587402,-0.438965,0.701172,-36.5625,-15.125,-13.9375,-0.572963,-0.626836,0.00340091
1939,-1,-1,24,5,0,1,1,-1,0.587402,-0.438965,0.701172,-36.5625,-15.125,-13.9375,-0.572963,-0.626836,0.00340091
1940,-4,-3,-45,-7,-4,-3,-2,-3,0.549316,-0.452148,0.70459,-32.5,-17.75,-17.9375,-0.582617,-0.633974,0.000922607
1940,8,25,35,0,-1,0,0,2,0.549316,-0.452148,0.70459,-32.5,-17.75,-17.9375,-0.582617,-0.633974,0.000922607
1952,-3,-14,-20,-2,0,0,-1,-1,0.549316,-0.452148,0.70459,-32.5,-17.75,-17.9375,-0.582617,-0.633974,0.000922607
1952,5,14,-14,-2,-2,-2,0,0,0.549316,-0.452148,0.70459,-32.5,-17.75,-17.9375,-0.582617,-0.633974,0.000922607
1962,-5,-4,-7,1,2,-1,1,-2,0.585449,-0.43457,0.691406,-33.5,-19.6875,-22.6875,-0.591436,-0.643564,-0.00294837
1962,1,12,-2,-2,-1,-1,0,-2,0.585449,-0.43457,0.691406,-33.5,-19.6875,-22.6875,-0.591436,-0.643564,-0.00294837
1977,-1,-3,-7,-2,1,-1,-1,-2,0.585449,-0.43457,0.691406,-33.5,-19.6875,-22.6875,-0.591436,-0.643564,-0.00294837
1977,2,6,7,-1,1,0,0,0,0.585449,-0.43457,0.691406,-33.5,-19.6875,-22.6875,-0.591436,-0.643564,-0.00294837
1978,1,1,5,3,1,0,-1,1,0.588867,-0.422363,0.687012,-37.0625,-16.75,-24.5625,-0.600182,-0.652687,-0.00855042
1978,-5,-14,-16,-3,-4,-1,-1,-4,0.588867,-0.422363,0.687012,-37.0625,-16.75,-24.5625,-0.600182,-0.652687,-0.00855042
1999,1,6,13,3,-1,-2,-3,-1,0.588867,-0.422363,0.687012,-37.0625,-16.75,-24.5625,-0.600182,-0.652687,-0.00855042
1999,0,5,-9,-1,0,-2,-1,0,0.588867,-0.422363,0.687012,-37.0625,-16.75,-24.5625,-0.600182,-0.652687,-0.00855042
2001,-5,-5,11,-5,-3,-3,0,-1,0.589844,-0.422363,0.666016,-43.375,-12.625,-19.25,-0.611939,-0.659734,-0.0130513
2001,-2,-3,-17,1,0,-2,-1,1,0.589844,-0.422363,0.666016,-43.375,-12.625,-19.25,-0.611939,-0.659734,-0.0130513
2013,-3,-6,-5,-4,-3,-1,-1,-1,0.589844,-0.422363,0.666016,-43.375,-12.625,-19.25,-0.611939,-0.659734,-0.0130513
2013,1,-4,6,2,-2,-1,1,1,0.589844,-0.422363,0.666016,-43.375,-12.625,-19.25,-0.611939,-0.659734,-0.0130513
2022,3,-3,3,-1,-1,0,0,0,0.580566,-0.489746,0.681152,-44.75,-9.9375,-14.125,-0.625871,-0.66396,-0.0156364
2022,-1,-4,-7,0,0,0,0,-1,0.580566,-0.489746,0.681152,-44.75,-9.9375,-14.125,-0.625871,-0.66396,-0.0156364
2037,-1,2,8,0,-2,-3,-2,-1,0.580566,-0.489746,0.681152,-44.75,-9.9375,-14.125,-0.625871,-0.66396,-0.0156364
2037,-2,-8,-19,-6,0,-1,-1,-2,0.580566,-0.489746,0.681152,-44.75,-9.9375,-14.125,-0.625871,-0.66396,-0.0156364
2039,-2,-8,9,-3,-3,-1,-2,-2,0.594238,-0.524414,0.666992,-33.0625,-6.3125,-11.875,-0.636604,-0.666759,-0.0177126
2039,-4,-8,-10,-3,-1,0,-2,-3,0.594238,-0.524414,0.666992,-33.0625,-6.3125,-11.875,-0.636604,-0.666759,-0.0177126
2059,2,8,2,2,1,0,2,0,0.594238,-0.524414,0.666992,-33.0625,-6.3125,-11.875,-0.636604,-0.666759,-0.0177126
2059,-5,-10,8,0,-2,1,-2,-3,0.594238,-0.524414,0.666992,-33.0625,-6.3125,-11.875,-0.636604,-0.666759,-0.0177126
2060,4,4,-23,0,-2,-1,0,0,0.616699,-0.494141,0.642578,-21.25,-3.3125,-8.5,-0.642947,-0.668898,-0.0197301
2060,-5,-8,2,0,2,1,0,-1,0.616699,-0.494141,0.642578,-21.25,-3.3125,-8.5,-0.642947,-0.668898,-0.0197301
2073,-2,-5,-3,-1,1,-1,-2,-1,0.616699,-0.494141,0.642578,-21.25,-3.3125,-8.5,-0.642947,-0.668898,-0.0197301
2073,-1,-2,7,0,-1,-2,-2,-2,0.616699,-0.494141,0.642578,-21.25,-3.3125,-8.5,-0.642947,-0.668898,-0.0197301
2081,1,1,9,1,2,0,-1,0,0.611328,-0.481934,0.631836,-16.375,-1.375,-3.8125,-0.648175,-0.669732,-0.020652
2081,0,0,-4,0,0,-1,-1,0,0.611328,-0.481934,0.631836,-16.375,-1.375,-3.8125,-0.648175,-0.669732,-0.020652
2097,-1,-4,2,-3,-2,0,-1,0,0.611328,-0.481934,0.631836,-16.375,-1.375,-3.8125,-0.648175,-0.669732,-0.020652
2097,4,17,3,1,-1,-2,1,1,0.611328,-0.481934,0.631836,-16.375,-1.375,-3.8125,-0.648175,-0.669732,-0.020652
2098,-4,-2,6,-2,-3,-1,-3,-1,0.616211,-0.487793,0.614746,-16.625,1.0625,0.5,-0.654326,-0.669227,-0.0204726
2098,1,4,-9,-1,-1,-1,0,-1,0.616211,-0.487793,0.614746,-16.625,1.0625,0.5,-0.654326,-0.669227,-0.0204726
2120,-2,-10,-25,-1,-1,0,1,0,0.616211,-0.487793,0.614746,-16.625,1.0625,0.5,-0.654326,-0.669227,-0.0204726
2120,-2,-2,-1,0,0,0,-3,-2,0.616211,-0.487793,0.614746,-16.625,1.0625,0.5,-0.654326,-0.669227,-0.0204726
2121,-2,-6,-5,-3,-1,-3,0,-1,0.621582,-0.506836,0.640137,-14.875,2.875,3.5625,-0.660075,-0.667286,-0.0198302
2121,-1,-2,0,-1,-2,1,-2,1,0.621582,-0.506836,0.640137,-14.875,2.875,3.5625,-0.660075,-0.667286,-0.0198302
2134,1,8,6,1,-2,0,-2,-2,0.621582,-0.506836,0.640137,-14.875,2.875,3.5625,-0.660075,-0.667286,-0.0198302
2134,-3,-8,-2,0,-4,-1,-3,-1,0.621582,-0.506836,0.640137,-14.875,2.875,3.5625,-0.660075,-0.667286,-0.0198302
2149,-3,-6,-3,-2,0,-1,0,-3,0.612793,-0.503906,0.626465,-13.75,5.875,6.4375,-0.665459,-0.663883,-0.0190183
2149,-1,-1,-8,-2,-3,-1,-1,-1,0.612793,-0.503906,0.626465,-13.75,5.875,6.4375,-0.665459,-0.663883,-0.0190183
2157,3,6,7,3,3,-1,2,1,0.612793,-0.503906,0.626465,-13.75,5.875,6.4375,-0.665459,-0.663883,-0.0190183
2157,-6,-16,-19,-5,-4,-4,-4,-3,0.612793,-0.503906,0.626465,-13.75,5.875,6.4375,-0.665459,-0.663883,-0.0190183
2158,5,9,-9,-1,0,-1,0,0,0.592773,-0.519043,0.638672,-13.8125,7.0625,9.625,-0.671482,-0.659025,-0.0173945
2158,-1,-6,0,-2,-2,-3,-3,-3,0.592773,-0.519043,0.638672,-13.8125,7.0625,9.625,-0.671482,-0.659025,-0.0173945
2180,2,6,-2,0,1,0,1,1,0.592773,-0.519043,0.638672,-13.8125,7.0625,9.625,-0.671482,-0.659025,-0.0173945
2180,-2,-9,-5,-1,1,2,0,1,0.592773,-0.519043,0.638672,-13.8125,7.0625,9.625,-0.671482,-0.659025,-0.0173945
2181,-4,-7,1,-1,0,-1,-2,0,0.58252,-0.541504,0.634277,-13.1875,7.25,10.8125,-0.677914,-0.653605,-0.0151925
2181,0,5,-2,-1,0,-1,0,-2,0.58252,-0.541504,0.634277,-13.1875,7.25,10.8125,-0.677914,-0.653605,-0.0151925
2193,-3,-3,-2,-1,-2,0,-2,-1,0.58252,-0.541504,0.634277,-13.1875,7.25,10.8125,-0.677914,-0.653605,-0.0151925
2193,-1,0,13,1,-1,-1,-1,-1,0.58252,-0.541504,0.634277,-13.1875,7.25,10.8125,-0.677914,-0.653605,-0.0151925
2202,-2,0,5,0,0,0,-3,-2,0.563965,-0.536621,0.624512,-9.6875,7.9375,9.875,-0.682589,-0.648053,-0.0136623
2202,3,8,-2,-3,-1,-1,-2,0,0.563965,-0.536621,0.624512,-9.6875,7.9375,9.875,-0.682589,-0.648053,-0.0136623
2217,-4,-3,8,-2,-2,-1,-2,-3,0.563965,-0.536621,0.624512,-9.6875,7.9375,9.875,-0.682589,-0.648053,-0.0136623
2217,1,5,-1,0,-1,-1,1,1,0.563965,-0.536621,0.624512,-9.6875,7.9375,9.875,-0.682589,-0.648053,-0.0136623
2218,-1,-5,-4,0,-1,1,1,-1,0.56543,-0.515625,0.618164,-11.25,8.25,10.0625,-0.687366,-0.642903,-0.012423
2218,-1,2,-1,0,0,0,-1,-1,0.56543,-0.515625,0.618164,-11.25,8.25,10.0625,-0.687366,-0.642903,-0.012423
2240,2,3,-5,0,-1,-3,-1,-1,0.56543,-0.515625,0.618164,-11.25,8.25,10.0625,-0.687366,-0.642903,-0.012423
2240,2,12,2,0,1,0,1,0,0.56543,-0.515625,0.618164,-11.25,8.25,10.0625,-0.687366,-0.642903,-0.012423
2241,-2,-1,-4,-2,0,-1,0,-1,0.552734,-0.532227,0.632324,-15.625,9.3125,10,-0.693372,-0.63693,-0.0116087
2241,-3,19,3,0,0,-1,1,-1,0.552734,-0.532227,0.632324,-15.625,9.3125,10,-0.693372,-0.63693,-0.0116087
2253,0,44,-26,-2,-2,0,-3,0,0.552734,-0.532227,0.632324,-15.625,9.3125,10,-0.693372,-0.63693,-0.0116087
2253,-1,18,-1,0,-1,2,0,-2,0.552734,-0.532227,0.632324,-15.625,9.3125,10,-0.693372,-0.63693,-0.0116087
2262,-1,0,20,-2,-2,0,-1,-3,0.543457,-0.563965,0.632812,-16.125,8.1875,10.375,-0.700476,-0.630927,-0.0099569
2262,-1,-25,-6,-1,-2,-1,1,0,0.543457,-0.563965,0.632812,-16.125,8.1875,10.375,-0.700476,-0.630927,-0.0099569
2276,-1,-23,9,-1,1,-1,1,0,0.543457,-0.563965,0.632812,-16.125,8.1875,10.375,-0.700476,-0.630927,-0.0099569
2276,4,-8,1,3,2,0,1,2,0.543457,-0.563965,0.632812,-16.125,8.1875,10.375,-0.700476,-0.630927,-0.0099569
2283,-3,-19,-12,-3,-4,-2,-1,-3,0.543457,-0.562988,0.615723,-15.4375,8.9375,9.25,-0.706978,-0.625226,-0.00898428
2283,-1,-12,1,-3,-3,-3,-3,-4,0.543457,-0.562988,0.615723,-15.4375,8.9375,9.25,-0.706978,-0.625226,-0.00898428
2299,-5,-20,0,-1,-3,-2,1,-2,0.543457,-0.562988,0.615723,-15.4375,8.9375,9.25,-0.706978,-0.625226,-0.00898428
2299,-1,-9,1,0,0,-1,0,0,0.543457,-0.562988,0.615723,-15.4375,8.9375,9.25,-0.706978,-0.625226,-0.00898428
2300,0,1,16,2,1,0,-1,0,0.531738,-0.560547,0.621582,-14.1875,9.0625,10,-0.712937,-0.61928,-0.00791228
2300,-6,-8,-2,-3,-2,-2,-3,-3,0.531738,-0.560547,0.621582,-14.1875,9.0625,10,-0.712937,-0.61928,-0.00791228
2313,0,1,8,-1,0,-2,-1,0,0.531738,-0.560547,0.621582,-14.1875,9.0625,10,-0.712937,-0.61928,-0.00791228
2313,-1,-9,-5,-1,-3,-2,-1,-1,0.531738,-0.560547,0.621582,-14.1875,9.0625,10,-0.712937,-0.61928,-0.00791228
2322,4,12,9,1,1,-1,-1,1,0.540039,-0.565918,0.620605,-14,9.875,10.875,-0.718712,-0.613152,-0.00684664
2322,-4,-11,-3,-2,0,0,0,-2,0.540039,-0.565918,0.620605,-14,9.875,10.875,-0.718712,-0.613152,-0.00684664
2336,-1,-7,3,-2,0,-2,0,-1,0.540039,-0.565918,0.620605,-14,9.875,10.875,-0.718712,-0.613152,-0.00684664
2336,0,-6,8,0,0,-2,0,0,0.540039,-0.565918,0.620605,-14,9.875,10.875,-0.718712,-0.613152,-0.00684664
2343,3,13,-23,-4,-5,-3,-1,0,0.54248,-0.569336,0.617676,-14.25,10.9375,11.625,-0.724598,-0.606835,-0.00590351
2343,3,9,3,2,-1,1,0,0,0.54248,-0.569336,0.617676,-14.25,10.9375,11.625,-0.724598,-0.606835,-0.00590351
2359,2,0,7,0,0,1,0,-1,0.54248,-0.569336,0.617676,-14.25,10.9375,11.625,-0.724598,-0.606835,-0.00590351
2359,-2,-4,-11,0,0,1,0,0,0.54248,-0.569336,0.617676,-14.25,10.9375,11.625,-0.724598,-0.606835,-0.00590351
2361,-4,-1,-22,-3,0,-2,-2,-1,0.543945,-0.561035,0.622559,-11.8125,10.8125,12.8125,-0.72932,-0.600338,-0.00497103
2361,0,3,-4,-1,0,0,-1,-1,0.543945,-0.561035,0.622559,-11.8125,10.8125,12.8125,-0.72932,-0.600338,-0.00497103
2382,4,10,16,3,-1,1,0,1,0.543945,-0.561035,0.622559,-11.8125,10.8125,12.8125,-0.72932,-0.600338,-0.00497103
2382,-1,-5,-14,-2,-1,-2,0,-2,0.543945,-0.561035,0.622559,-11.8125,10.8125,12.8125,-0.72932,-0.600338,-0.00497103
2384,3,8,1,-1,-2,-1,-1,0,0.54541,-0.56543,0.620117,-11.4375,11,14,-0.734033,-0.593772,-0.00354361
2384,-6,-9,2,-3,-3,-2,-1,-1,0.54541,-0.56543,0.620117,-11.4375,11,14,-0.734033,-0.593772,-0.00354361
2396,-1,-1,-9,-1,-2,-2,-1,-1,0.54541,-0.56543,0.620117,-11.4375,11,14,-0.734033,-0.593772,-0.00354361
2396,-1,4,0,-2,-2,-1,-2,-1,0.54541,-0.56543,0.620117,-11.4375,11,14,-0.734033,-0.593772,-0.00354361
2412,-9,-22,-1,-1,-2,0,-3,-3,0.541016,-0.580078,0.600586,-13.875,11.625,14.8125,-0.740359,-0.587011,-0.00178025
2412,0,2,0,1,3,0,0,1,0.541016,-0.580078,0.600586,-13.875,11.625,14.8125,-0.740359,-0.587011,-0.00178025
2419,1,10,5,0,-3,-2,-1,0,0.541016,-0.580078,0.600586,-13.875,11.625,14.8125,-0.740359,-0.587011,-0.00178025
2419,-4,-4,-4,-3,-2,0,0,-3,0.541016,-0.580078,0.600586,-13.875,11.625,14.8125,-0.740359,-0.587011,-0.00178025
2425,0,0,10,0,-1,2,1,0,0.544434,-0.570312,0.588379,-17.5,12.8125,13.4375,-0.747227,-0.580713,-0.00108392
2425,0,-2,-2,1,-1,0,1,-1,0.544434,-0.570312,0.588379,-17.5,12.8125,13.4375,-0.747227,-0.580713,-0.00108392
2442,-3,-1,-6,-2,1,0,-1,-1,0.544434,-0.570312,0.588379,-17.5,12.8125,13.4375,-0.747227,-0.580713,-0.00108392
2442,-6,-6,15,-3,-2,-2,-1,-5,0.544434,-0.570312,0.588379,-17.5,12.8125,13.4375,-0.747227,-0.580713,-0.00108392
2443,0,3,-1,0,-3,-3,1,0,0.531738,-0.582031,0.607422,-21.875,14.125,13.75,-0.755241,-0.573449,-0.000750513
2443,1,-1,-1,0,-1,0,1,-1,0.531738,-0.582031,0.607422,-21.875,14.125,13.75,-0.755241,-0.573449,-0.000750513
2457,-5,-12,11,-4,-3,-2,-3,-2,0.531738,-0.582031,0.607422,-21.875,14.125,13.75,-0.755241,-0.573449,-0.000750513
2457,-1,-5,-10,-1,1,-1,-1,-1,0.531738,-0.582031,0.607422,-21.875,14.125,13.75,-0.755241,-0.573449,-0.000750513
2463,0,2,9,0,-1,0,-2,-1,0.515137,-0.620117,0.62793,-20.625,13.4375,14.25,-0.763061,-0.565748,-5.16654e-05
2463,5,7,-8,-1,1,1,1,0,0.515137,-0.620117,0.62793,-20.625,13.4375,14.25,-0.763061,-0.565748,-5.16654e-05
2479,-2,-10,1,-1,-1,1,0,-3,0.515137,-0.620117,0.62793,-20.625,13.4375,14.25,-0.763061,-0.565748,-5.16654e-05
2479,-2,2,1,2,0,-2,-2,1,0.515137,-0.620117,0.62793,-20.625,13.4375,14.25,-0.763061,-0.565748,-5.16654e-05
2481,-2,-6,-5,-3,-2,-2,0,-3,0.518555,-0.60791,0.598145,-17.5625,14.125,13.625,-0.769677,-0.558576,0.000230422
2481,3,2,1,0,-3,-3,-2,12,0.518555,-0.60791,0.598145,-17.5625,14.125,13.625,-0.769677,-0.558576,0.000230422
2502,-4,4,-2,0,-1,1,1,-9,0.518555,-0.60791,0.598145,-17.5625,14.125,13.625,-0.769677,-0.558576,0.000230422
2502,0,4,-12,0,-3,-2,0,0,0.518555,-0.60791,0.598145,-17.5625,14.125,13.625,-0.769677,-0.558576,0.000230422
2504,0,2,12,1,0,-1,-1,1,0.522461,-0.602539,0.605957,-19.1875,15,13.9375,-0.776497,-0.551311,0.000167933
2504,-4,-8,-2,-2,-1,-2,-1,1,0.522461,-0.602539,0.605957,-19.1875,15,13.9375,-0.776497,-0.551311,0.000167933
2516,1,5,-5,-2,1,-1,-3,0,0.522461,-0.602539,0.605957,-19.1875,15,13.9375,-0.776497,-0.551311,0.000167933
2516,-3,-3,-3,-1,-3,-1,-3,-1,0.522461,-0.602539,0.605957,-19.1875,15,13.9375,-0.776497,-0.551311,0.000167933
2524,-2,-1,0,0,-3,-2,0,-3,0.506836,-0.623535,0.619629,-21.375,15.5625,15.1875,-0.784023,-0.543187,3.45173e-05
2524,-4,-3,-4,-2,-3,-2,0,-4,0.506836,-0.623535,0.619629,-21.375,15.5625,15.1875,-0.784023,-0.543187,3.45173e-05
2539,-2,0,0,-1,-2,-1,-1,0,0.506836,-0.623535,0.619629,-21.375,15.5625,15.1875,-0.784023,-0.543187,3.45173e-05
2539,4,15,8,4,2,0,0,1,0.506836,-0.623535,0.619629,-21.375,15.5625,15.1875,-0.784023,-0.543187,3.45173e-05
2540,0,-2,-5,0,-1,-4,-1,1,0.499512,-0.616699,0.617188,-17.75,16.75,15.5625,-0.789818,-0.534816,-0.000330633
2540,1,5,3,1,0,0,1,-3,0.499512,-0.616699,0.617188,-17.75,16.75,15.5625,-0.789818,-0.534816,-0.000330633
2562,-3,-8,-10,-1,1,-1,-1,-3,0.499512,-0.616699,0.617188,-17.75,16.75,15.5625,-0.789818,-0.534816,-0.000330633
2562,4,1,3,1,0,1,0,1,0.499512,-0.616699,0.617188,-17.75,16.75,15.5625,-0.789818,-0.534816,-0.000330633
2564,-2,-5,-4,-1,-2,-1,0,-4,0.500488,-0.614258,0.616699,-13.125,16.3125,16.4375,-0.794193,-0.526623,-0.000518613
2564,-1,-3,-5,-1,-4,-1,-2,-3,0.500488,-0.614258,0.616699,-13.125,16.3125,16.4375,-0.794193,-0.526623,-0.000518613
2575,2,-7,-5,0,1,-1,1,10,0.500488,-0.614258,0.616699,-13.125,16.3125,16.4375,-0.794193,-0.526623,-0.000518613
2575,-4,-5,27,-2,-1,-1,-5,-11,0.500488,-0.614258,0.616699,-13.125,16.3125,16.4375,-0.794193,-0.526623,-0.000518613
2585,-1,0,-28,-6,0,0,-3,0,0.49707,-0.625977,0.615723,-9.75,15.8125,17.3125,-0.797607,-0.518377,-0.000197778
2585,1,10,4,0,0,1,0,-3,0.49707,-0.625977,0.615723,-9.75,15.8125,17.3125,-0.797607,-0.518377,-0.000197778
2599,-1,1,-9,1,1,0,-1,6,0.49707,-0.625977,0.615723,-9.75,15.8125,17.3125,-0.797607,-0.518377,-0.000197778
2599,-1,0,2,1,-2,0,1,3,0.49707,-0.625977,0.615723,-9.75,15.8125,17.3125,-0.797607,-0.518377,-0.000197778
2601,-2,-12,-3,0,-1,0,-1,-4,0.497559,-0.636719,0.616699,-7.625,14.6875,17.5,-0.800599,-0.510437,0.000544351
2601,-2,0,10,-2,-1,-1,-3,-2,0.497559,-0.636719,0.616699,-7.625,14.6875,17.5,-0.800599,-0.510437,0.000544351
2622,0,0,-1,-2,-2,-1,0,-4,0.497559,-0.636719,0.616699,-7.625,14.6875,17.5,-0.800599,-0.510437,0.000544351
2622,-2,-10,-13,-3,0,-2,-5,-6,0.497559,-0.636719,0.616699,-7.625,14.6875,17.5,-0.800599,-0.510437,0.000544351
2623,0,8,18,2,2,0,4,13,0.488281,-0.631348,0.60498,-4.75,13.75,17.4375,-0.802767,-0.502908,0.00145145
2623,-6,0,-30,-1,-1,-3,-8,-26,0.488281,-0.631348,0.60498,-4.75,13.75,17.4375,-0.802767,-0.502908,0.00145145
2636,-1,-3,2,-1,-1,-4,-2,-3,0.488281,-0.631348,0.60498,-4.75,13.75,17.4375,-0.802767,-0.502908,0.00145145
2636,3,1,-1,1,-1,0,0,1,0.488281,-0.631348,0.60498,-4.75,13.75,17.4375,-0.802767,-0.502908,0.00145145
2644,0,-6,-3,-2,-2,1,1,2,0.478027,-0.654297,0.609863,-0.4375,12.125,19.375,-0.804196,-0.49494,0.00349158
2644,1,3,8,0,-1,0,-1,6,0.478027,-0.654297,0.609863,-0.4375,12.125,19.375,-0.804196,-0.49494,0.00349158
2660,-3,7,7,0,-1,1,-1,-22,0.478027,-0.654297,0.609863,-0.4375,12.125,19.375,-0.804196,-0.49494,0.00349158
2660,-2,-2,-10,-2,-1,-3,-2,4,0.478027,-0.654297,0.609863,-0.4375,12.125,19.375,-0.804196,-0.49494,0.00349158
2661,0,2,-1,-3,-5,-2,0,0,0.476074,-0.649902,0.604004,3.375,11.375,18.375,-0.804302,-0.487663,0.00549341
2661,4,8,11,1,2,-1,2,6,0.476074,-0.649902,0.604004,3.375,11.375,18.375,-0.804302,-0.487663,0.00549341
2682,-3,-8,-5,0,-3,-1,-3,-7,0.476074,-0.649902,0.604004,3.375,11.375,18.375,-0.804302,-0.487663,0.00549341
2682,4,8,-2,2,0,1,3,8,0.476074,-0.649902,0.604004,3.375,11.375,18.375,-0.804302,-0.487663,0.00549341
2684,-9,-19,5,-5,-4,-2,-3,-7,0.467773,-0.635742,0.602051,3.3125,10.75,17.125,-0.804011,-0.481012,0.00723745
2684,-5,-4,6,-2,-4,-2,-2,-5,0.467773,-0.635742,0.602051,3.3125,10.75,17.125,-0.804011,-0.481012,0.00723745
2704,1,-2,-1,-6,-5,-2,-3,-1,0.467773,-0.635742,0.602051,3.3125,10.75,17.125,-0.804011,-0.481012,0.00723745
2704,0,-13,-11,-1,0,-2,-1,2,0.467773,-0.635742,0.602051,3.3125,10.75,17.125,-0.804011,-0.481012,0.00723745
2706,2,20,22,7,3,-1,-2,-3,0.445312,-0.641602,0.611816,3.25,8.5,15.9375,-0.803955,-0.474725,0.00917751
2706,3,7,-2,2,1,0,2,2,0.445312,-0.641602,0.611816,3.25,8.5,15.9375,-0.803955,-0.474725,0.00917751
2720,-1,-8,-7,0,0,1,0,3,0.445312,-0.641602,0.611816,3.25,8.5,15.9375,-0.803955,-0.474725,0.00917751
2720,0,4,5,1,0,0,0,-1,0.445312,-0.641602,0.611816,3.25,8.5,15.9375,-0.803955,-0.474725,0.00917751
2721,-4,-21,-12,-2,-2,1,1,6,0.454102,-0.651367,0.602539,4.4375,7.5,17,-0.803947,-0.468639,0.011916
2721,-2,3,-4,-2,-3,-2,-2,-7,0.454102,-0.651367,0.602539,4.4375,7.5,17,-0.803947,-0.468639,0.011916
2742,4,8,1,-2,-2,0,2,6,0.454102,-0.651367,0.602539,4.4375,7.5,17,-0.803947,-0.468639,0.011916
2742,-3,1,-6,-2,-2,0,0,-5,0.454102,-0.651367,0.602539,4.4375,7.5,17,-0.803947,-0.468639,0.011916
2744,3,6,-6,0,3,2,4,19,0.450684,-0.642578,0.591309,4.875,7.125,17.6875,-0.804062,-0.462879,0.0149258
2744,-3,1,1,1,0,-2,-8,-22,0.450684,-0.642578,0.591309,4.875,7.125,17.6875,-0.804062,-0.462879,0.0149258
2755,1,-2,-1,0,-1,-1,-1,1,0.450684,-0.642578,0.591309,4.875,7.125,17.6875,-0.804062,-0.462879,0.0149258
2755,-1,-8,-8,-3,-1,-2,-1,-2,0.450684,-0.642578,0.591309,4.875,7.125,17.6875,-0.804062,-0.462879,0.0149258
2764,2,6,-3,-3,-2,-5,-2,-4,0.45459,-0.609375,0.570312,0.8125,8.4375,16.375,-0.804963,-0.457555,0.017078
2764,5,12,7,1,0,-4,0,9,0.45459,-0.609375,0.570312,0.8125,8.4375,16.375,-0.804963,-0.457555,0.017078
2779,-4,-7,9,3,2,1,0,1,0.45459,-0.609375,0.570312,0.8125,8.4375,16.375,-0.804963,-0.457555,0.017078
2779,2,8,-21,2,0,1,-2,-19,0.45459,-0.609375,0.570312,0.8125,8.4375,16.375,-0.804963,-0.457555,0.017078
2781,2,1,-5,-4,-3,-2,-4,4,0.449707,-0.632812,0.587891,-7.0625,10.0625,14.25,-0.808208,-0.452268,0.0183125
2781,-6,-9,-5,-3,-1,-1,-2,-6,0.449707,-0.632812,0.587891,-7.0625,10.0625,14.25,-0.808208,-0.452268,0.0183125
2802,0,3,5,1,0,-1,1,11,0.449707,-0.632812,0.587891,-7.0625,10.0625,14.25,-0.808208,-0.452268,0.0183125
2802,-2,-4,8,-1,0,0,3,1,0.449707,-0.632812,0.587891,-7.0625,10.0625,14.25,-0.808208,-0.452268,0.0183125
2803,-2,-4,-1,-2,-2,-2,1,-11,0.428223,-0.637207,0.591309,-10.375,11.25,13.125,-0.812197,-0.446443,0.0187569
2803,-3,-9,-9,-2,-2,-1,6,9,0.428223,-0.637207,0.591309,-10.375,11.25,13.125,-0.812197,-0.446443,0.0187569
2815,-6,-10,-11,-3,-2,-2,-3,-2,0.428223,-0.637207,0.591309,-10.375,11.25,13.125,-0.812197,-0.446443,0.0187569
2815,-5,-10,11,-1,-1,1,1,2,0.428223,-0.637207,0.591309,-10.375,11.25,13.125,-0.812197,-0.446443,0.0187569
2824,0,11,4,-1,-1,0,-3,-8,0.417969,-0.620117,0.595215,-15.1875,11.75,11.0625,-0.817095,-0.441094,0.0182428
2824,2,-6,1,0,2,3,-2,5,0.417969,-0.620117,0.595215,-15.1875,11.75,11.0625,-0.817095,-0.441094,0.0182428
2839,0,-1,-3,-1,-2,-2,-2,-3,0.417969,-0.620117,0.595215,-15.1875,11.75,11.0625,-0.817095,-0.441094,0.0182428
2839,-4,-9,-3,-5,-1,-1,-3,-2,0.417969,-0.620117,0.595215,-15.1875,11.75,11.0625,-0.817095,-0.441094,0.0182428
2840,-2,-7,-4,-2,-2,0,1,8,0.423828,-0.64502,0.604492,-22.125,12.8125,7.9375,-0.823988,-0.436273,0.0166046
2840,0,4,5,1,0,2,-3,-2,0.423828,-0.64502,0.604492,-22.125,12.8125,7.9375,-0.823988,-0.436273,0.0166046
2862,-4,-4,-4,-1,0,-1,1,10,0.423828,-0.64502,0.604492,-22.125,12.8125,7.9375,-0.823988,-0.436273,0.0166046
2862,-1,-2,1,0,-2,-3,-4,-3,0.423828,-0.64502,0.604492,-22.125,12.8125,7.9375,-0.823988,-0.436273,0.0166046
2864,-1,1,-5,-2,-1,-1,-2,-6,0.42041,-0.664551,0.598633,-25.75,13.8125,6.3125,-0.832113,-0.431506,0.0144394
2864,0,-4,-1,-1,1,-1,0,1,0.42041,-0.664551,0.598633,-25.75,13.8125,6.3125,-0.832113,-0.431506,0.0144394
2876,5,5,0,0,0,-1,1,8,0.42041,-0.664551,0.598633,-25.75,13.8125,6.3125,-0.832113,-0.431506,0.0144394
2876,1,1,-1,-2,-1,-2,-2,1,0.42041,-0.664551,0.598633,-25.75,13.8125,6.3125,-0.832113,-0.431506,0.0144394
2884,-2,-6,-4,-2,-1,-3,-2,-9,0.405273,-0.671387,0.604004,-25.125,13.625,5,-0.839657,-0.426949,0.0117523
2884,-4,-8,-3,-2,-4,-2,0,5,0.405273,-0.671387,0.604004,-25.125,13.625,5,-0.839657,-0.426949,0.0117523
2899,4,11,5,1,-1,-1,-3,-5,0.405273,-0.671387,0.604004,-25.125,13.625,5,-0.839657,-0.426949,0.0117523
2899,3,5,-2,3,1,0,0,3,0.405273,-0.671387,0.604004,-25.125,13.625,5,-0.839657,-0.426949,0.0117523
2901,-3,-9,2,-3,-3,-3,-7,1,0.398926,-0.683105,0.607422,-23.6875,12.625,6.125,-0.84706,-0.422116,0.00968577
2901,-11,-3,-6,-2,1,2,3,-13,0.398926,-0.683105,0.607422,-23.6875,12.625,6.125,-0.84706,-0.422116,0.00968577
2921,0,2,0,-1,0,-2,-3,-5,0.398926,-0.683105,0.607422,-23.6875,12.625,6.125,-0.84706,-0.422116,0.00968577
2921,2,5,-1,-1,-2,-3,-1,0,0.398926,-0.683105,0.607422,-23.6875,12.625,6.125,-0.84706,-0.422116,0.00968577
2923,0,-8,-2,1,2,0,-1,6,0.399902,-0.692871,0.606445,-21,12.1875,5.5625,-0.853437,-0.417608,0.0076309
2923,2,-7,4,-1,-1,1,0,2,0.399902,-0.692871,0.606445,-21,12.1875,5.5625,-0.853437,-0.417608,0.0076309
2936,-4,-1,-2,-3,-2,-2,-1,-5,0.399902,-0.692871,0.606445,-21,12.1875,5.5625,-0.853437,-0.417608,0.0076309
2936,-1,-3,-1,-1,-3,0,5,6,0.399902,-0.692871,0.606445,-21,12.1875,5.5625,-0.853437,-0.417608,0.0076309
2945,-4,5,-7,-1,-3,-4,-9,-33,0.398438,-0.677734,0.609375,-17.9375,12.3125,4.6875,-0.858235,-0.413602,0.00504862
2945,3,5,3,1,-1,-4,-1,7,0.398438,-0.677734,0.609375,-17.9375,12.3125,4.6875,-0.858235,-0.413602,0.00504862
2959,-1,-10,-5,0,1,1,0,-4,0.398438,-0.677734,0.609375,-17.9375,12.3125,4.6875,-0.858235,-0.413602,0.00504862
2959,-2,-7,-4,-2,-2,-2,-1,1,0.398438,-0.677734,0.609375,-17.9375,12.3125,4.6875,-0.858235,-0.413602,0.00504862
2960,1,13,2,2,-2,0,1,3,0.401855,-0.688965,0.604492,-16.5,12.125,4.75,-0.862857,-0.409709,0.00255133
2960,4,1,-5,-1,-3,-3,-1,-1,0.401855,-0.688965,0.604492,-16.5,12.125,4.75,-0.862857,-0.409709,0.00255133
2982,-4,-7,-5,-2,-1,-1,-4,-3,0.401855,-0.688965,0.604492,-16.5,12.125,4.75,-0.862857,-0.409709,0.00255133
2982,-5,-10,-6,-1,-2,-1,-1,-3,0.401855,-0.688965,0.604492,-16.5,12.125,4.75,-0.862857,-0.409709,0.00255133
2983,0,5,3,-1,-1,-1,5,13,0.387695,-0.710449,0.60791,-15.9375,11.6875,5.1875,-0.867471,-0.405359,0.000412742
2983,-8,-20,-7,-3,1,1,0,-8,0.387695,-0.710449,0.60791,-15.9375,11.6875,5.1875,-0.867471,-0.405359,0.000412742
2995,0,-6,-5,-4,-3,-2,-2,-7,0.387695,-0.710449,0.60791,-15.9375,11.6875,5.1875,-0.867471,-0.405359,0.000412742
2995,-1,4,6,0,1,-1,0,6,0.387695,-0.710449,0.60791,-15.9375,11.6875,5.1875,-0.867471,-0.405359,0.000412742
3005,-1,0,0,-2,-1,-2,0,-17,0.382324,-0.709961,0.595703,-14.3125,11.125,4.5625,-0.871563,-0.401244,-0.00174093
3005,1,3,0,-1,-1,-1,1,20,0.382324,-0.709961,0.595703,-14.3125,11.125,4.5625,-0.871563,-0.401244,-0.00174093
3019,0,-1,0,1,-2,-2,-2,-8,0.382324,-0.709961,0.595703,-14.3125,11.125,4.5625,-0.871563,-0.401244,-0.00174093
3019,-3,-12,-7,-1,0,3,-3,2,0.382324,-0.709961,0.595703,-14.3125,11.125,4.5625,-0.871563,-0.401244,-0.00174093
3021,1,12,15,-1,-4,-1,-3,-4,0.381836,-0.693848,0.594727,-14.4375,10.875,3.3125,-0.875316,-0.397944,-0.00418723
3021,-1,-1,-1,-1,-2,1,0,-5,0.381836,-0.693848,0.594727,-14.4375,10.875,3.3125,-0.875316,-0.397944,-0.00418723
3042,-2,-3,1,-2,-2,-1,3,0,0.381836,-0.693848,0.594727,-14.4375,10.875,3.3125,-0.875316,-0.397944,-0.00418723
3042,7,13,6,3,1,0,1,7,0.381836,-0.693848,0.594727,-14.4375,10.875,3.3125,-0.875316,-0.397944,-0.00418723
3044,-3,1,-4,-1,-3,-3,-1,-1,0.376465,-0.703613,0.58252,-16.25,10.0625,2.3125,-0.88006,-0.394969,-0.00654855
3044,-1,-8,-3,0,0,-2,-3,3,0.376465,-0.703613,0.58252,-16.25,10.0625,2.3125,-0.88006,-0.394969,-0.00654855
3056,-2,-9,-4,-2,0,-2,0,5,0.376465,-0.703613,0.58252,-16.25,10.0625,2.3125,-0.88006,-0.394969,-0.00654855
3056,4,6,3,0,0,1,0,-2,0.376465,-0.703613,0.58252,-16.25,10.0625,2.3125,-0.88006,-0.394969,-0.00654855
3064,-5,-9,-9,-5,-1,1,0,0,0.369629,-0.728027,0.584473,-18.4375,8.5625,1.125,-0.885883,-0.392316,-0.00873345
3064,0,-6,-1,0,1,1,-1,0,0.369629,-0.728027,0.584473,-18.4375,8.5625,1.125,-0.885883,-0.392316,-0.00873345
3080,4,6,-4,-2,-4,-3,-3,1,0.369629,-0.728027,0.584473,-18.4375,8.5625,1.125,-0.885883,-0.392316,-0.00873345
3080,-1,2,2,2,2,2,1,-5,0.369629,-0.728027,0.584473,-18.4375,8.5625,1.125,-0.885883,-0.392316,-0.00873345
3081,-3,5,3,-1,-2,-7,-5,-2,0.359375,-0.735352,0.560547,-14.0625,5.8125,0.3125,-0.890805,-0.390387,-0.0100429
3081,-3,-20,-10,-4,4,1,0,-9,0.359375,-0.735352,0.560547,-14.0625,5.8125,0.3125,-0.890805,-0.390387,-0.0100429
3102,-5,1,-7,-2,-2,-1,2,9,0.359375,-0.735352,0.560547,-14.0625,5.8125,0.3125,-0.890805,-0.390387,-0.0100429
3102,6,15,5,0,3,1,3,20,0.359375,-0.735352,0.560547,-14.0625,5.8125,0.3125,-0.890805,-0.390387,-0.0100429
3103,-14,-20,-11,-7,-4,-2,-6,-21,0.374023,-0.723633,0.530762,-7.9375,2.6875,-1.5,-0.894272,-0.390393,-0.0107576
3103,2,5,4,1,-1,-2,0,14,0.374023,-0.723633,0.530762,-7.9375,2.6875,-1.5,-0.894272,-0.390393,-0.0107576
3116,4,-4,5,3,-1,2,1,12,0.374023,-0.723633,0.530762,-7.9375,2.6875,-1.5,-0.894272,-0.390393,-0.0107576
3116,-20,-51,-14,-5,-1,3,2,3,0.374023,-0.723633,0.530762,-7.9375,2.6875,-1.5,-0.894272,-0.390393,-0.0107576
3125,2,-4,-10,-4,-5,-3,-2,9,0.389648,-0.695312,0.513184,-9.25,1,-4.0625,-0.897837,-0.392069,-0.0117584
3125,-6,-1,2,1,0,2,0,-4,0.389648,-0.695312,0.513184,-9.25,1,-4.0625,-0.897837,-0.392069,-0.0117584
3139,1,2,5,3,3,1,0,1,0.389648,-0.695312,0.513184,-9.25,1,-4.0625,-0.897837,-0.392069,-0.0117584
3139,3,9,2,0,0,0,3,13,0.389648,-0.695312,0.513184,-9.25,1,-4.0625,-0.897837,-0.392069,-0.0117584
3145,0,11,2,-2,-1,-4,-8,-22,0.389648,-0.698242,0.522949,-13.1875,0.1875,-5.6875,-0.902461,-0.394054,-0.0129099
3145,-4,-9,-5,-1,-3,0,0,-3,0.389648,-0.698242,0.522949,-13.1875,0.1875,-5.6875,-0.902461,-0.394054,-0.0129099
3163,0,3,-2,0,1,-2,-1,-5,0.389648,-0.698242,0.522949,-13.1875,0.1875,-5.6875,-0.902461,-0.394054,-0.0129099
3163,6,17,10,3,0,-1,2,-5,0.389648,-0.698242,0.522949,-13.1875,0.1875,-5.6875,-0.902461,-0.394054,-0.0129099
3168,0,0,-4,-2,-1,-1,-5,-6,0.38623,-0.70752,0.544922,-15.1875,0.375,-5.6875,-0.907357,-0.395806,-0.0143042
3168,0,0,2,2,0,1,-1,-1,0.38623,-0.70752,0.544922,-15.1875,0.375,-5.6875,-0.907357,-0.395806,-0.0143042
3176,-9,-10,-7,-2,-2,-2,-4,-16,0.38623,-0.70752,0.544922,-15.1875,0.375,-5.6875,-0.907357,-0.395806,-0.0143042
3176,0,12,0,0,0,-1,-2,-12,0.38623,-0.70752,0.544922,-15.1875,0.375,-5.6875,-0.907357,-0.395806,-0.0143042
3184,-6,-8,-10,-5,-2,-3,0,7,0.389648,-0.690918,0.566406,-15.125,2,-5.8125,-0.911197,-0.397306,-0.0165474
3184,6,9,2,1,-3,-4,1,18,0.389648,-0.690918,0.566406,-15.125,2,-5.8125,-0.911197,-0.397306,-0.0165474
3199,-8,-5,-3,-1,-1,1,-2,-22,0.389648,-0.690918,0.566406,-15.125,2,-5.8125,-0.911197,-0.397306,-0.0165474
3199,-3,-7,-3,0,0,0,-3,-17,0.389648,-0.690918,0.566406,-15.125,2,-5.8125,-0.911197,-0.397306,-0.0165474
3206,0,6,6,-1,-2,-6,2,28,0.396973,-0.683594,0.551758,-19.8125,3.25,-5,-0.916705,-0.398624,-0.0188504
3206,-2,-12,-4,1,4,3,-4,-28,0.396973,-0.683594,0.551758,-19.8125,3.25,-5,-0.916705,-0.398624,-0.0188504
3221,-1,-3,-5,-4,-3,-2,0,4,0.396973,-0.683594,0.551758,-19.8125,3.25,-5,-0.916705,-0.398624,-0.0188504
3221,-2,-4,-2,-3,-2,-4,-4,-5,0.396973,-0.683594,0.551758,-19.8125,3.25,-5,-0.916705,-0.398624,-0.0188504
3223,-3,-5,-5,-2,-1,0,2,-10,0.395508,-0.735352,0.570312,-23.125,4,-3.75,-0.92368,-0.398968,-0.021067
3223,3,16,2,0,-2,-3,-1,3,0.395508,-0.735352,0.570312,-23.125,4,-3.75,-0.92368,-0.398968,-0.021067
3235,4,6,10,-1,-2,-5,-5,0,0.395508,-0.735352,0.570312,-23.125,4,-3.75,-0.92368,-0.398968,-0.021067
3235,-5,-13,-3,-1,-2,-2,-3,-8,0.395508,-0.735352,0.570312,-23.125,4,-3.75,-0.92368,-0.398968,-0.021067
3245,11,22,7,3,3,2,-1,4,0.370117,-0.757812,0.578125,-18.6875,4.75,-3.5,-0.929002,-0.398251,-0.0234437
3245,-3,-6,-4,0,0,0,-1,-5,0.370117,-0.757812,0.578125,-18.6875,4.75,-3.5,-0.929002,-0.398251,-0.0234437
3259,-2,1,-11,-5,-3,0,-2,10,0.370117,-0.757812,0.578125,-18.6875,4.75,-3.5,-0.929002,-0.398251,-0.0234437
3259,1,5,-2,-1,-1,-1,-1,-4,0.370117,-0.757812,0.578125,-18.6875,4.75,-3.5,-0.929002,-0.398251,-0.0234437
3265,2,6,1,-1,-1,1,3,8,0.367676,-0.759277,0.584473,-12.6875,4.6875,-3.4375,-0.932095,-0.397406,-0.0257686
3265,2,9,5,-1,-4,-3,-2,6,0.367676,-0.759277,0.584473,-12.6875,4.6875,-3.4375,-0.932095,-0.397406,-0.0257686
3281,0,-4,2,1,0,-2,-4,-20,0.367676,-0.759277,0.584473,-12.6875,4.6875,-3.4375,-0.932095,-0.397406,-0.0257686
3281,-2,-13,-7,-1,-1,-3,-1,2,0.367676,-0.759277,0.584473,-12.6875,4.6875,-3.4375,-0.932095,-0.397406,-0.0257686
3283,11,18,7,3,1,1,1,-5,0.37793,-0.742676,0.563965,-11.125,4.5,-3.25,-0.934807,-0.397052,-0.0280494
3283,2,12,5,-1,-3,-2,0,16,0.37793,-0.742676,0.563965,-11.125,4.5,-3.25,-0.934807,-0.397052,-0.0280494
3304,2,3,0,0,-1,-2,1,1,0.37793,-0.742676,0.563965,-11.125,4.5,-3.25,-0.934807,-0.397052,-0.0280494
3304,-9,-10,-3,-3,-3,-5,-4,-22,0.37793,-0.742676,0.563965,-11.125,4.5,-3.25,-0.934807,-0.397052,-0.0280494
3306,9,5,7,2,0,-3,-3,24,0.375488,-0.78125,0.572266,-17.125,4.8125,-3.6875,-0.939924,-0.396438,-0.0303195
3306,-1,11,-6,-2,1,1,0,-5,0.375488,-0.78125,0.572266,-17.125,4.8125,-3.6875,-0.939924,-0.396438,-0.0303195
3320,3,7,-1,0,0,1,0,7,0.375488,-0.78125,0.572266,-17.125,4.8125,-3.6875,-0.939924,-0.396438,-0.0303195
3320,-1,2,0,-5,-8,-8,-8,-7,0.375488,-0.78125,0.572266,-17.125,4.8125,-3.6875,-0.939924,-0.396438,-0.0303195
3321,2,9,4,2,0,4,5,1,0.364746,-0.794922,0.561035,-15,5.125,-4.25,-0.94443,-0.395543,-0.032709
3321,6,-3,6,0,-3,-3,1,34,0.364746,-0.794922,0.561035,-15,5.125,-4.25,-0.94443,-0.395543,-0.032709
3342,2,13,7,2,0,-1,-11,-62,0.364746,-0.794922,0.561035,-15,5.125,-4.25,-0.94443,-0.395543,-0.032709
3342,-2,-20,-5,2,2,2,4,12,0.364746,-0.794922,0.561035,-15,5.125,-4.25,-0.94443,-0.395543,-0.032709
3344,-3,0,4,4,1,1,-1,13,0.368652,-0.765625,0.560059,-13.5625,4.75,-4.9375,-0.947974,-0.395366,-0.0353427
3344,4,2,-2,1,1,1,2,3,0.368652,-0.765625,0.560059,-13.5625,4.75,-4.9375,-0.947974,-0.395366,-0.0353427
3365,2,5,5,1,-1,-3,3,-4,0.368652,-0.765625,0.560059,-13.5625,4.75,-4.9375,-0.947974,-0.395366,-0.0353427
3365,8,14,9,2,-1,-5,-3,7,0.368652,-0.765625,0.560059,-13.5625,4.75,-4.9375,-0.947974,-0.395366,-0.0353427
3366,-6,-8,-7,6,6,8,6,-14,0.366211,-0.777344,0.548828,-13.3125,4.9375,-4.5625,-0.951645,-0.39502,-0.0378836
3366,-4,4,1,-4,0,-1,-5,-13,0.366211,-0.777344,0.548828,-13.3125,4.9375,-4.5625,-0.951645,-0.39502,-0.0378836
3379,11,7,10,0,-8,-9,1,17,0.366211,-0.777344,0.548828,-13.3125,4.9375,-4.5625,-0.951645,-0.39502,-0.0378836
3379,-8,-24,-8,0,1,4,2,-6,0.366211,-0.777344,0.548828,-13.3125,4.9375,-4.5625,-0.951645,-0.39502,-0.0378836
3385,-9,-23,-12,-6,-2,-2,4,13,0.359375,-0.762207,0.529785,-18.6875,6.4375,-4.25,-0.957221,-0.39425,-0.040733
3385,-5,-11,-5,-2,-3,-6,-11,-51,0.359375,-0.762207,0.529785,-18.6875,6.4375,-4.25,-0.957221,-0.39425,-0.040733
3402,-3,-7,-3,0,4,3,3,7,0.359375,-0.762207,0.529785,-18.6875,6.4375,-4.25,-0.957221,-0.39425,-0.040733
3402,7,16,4,-1,-4,-1,-4,6,0.359375,-0.762207,0.529785,-18.6875,6.4375,-4.25,-0.957221,-0.39425,-0.040733
3404,-1,-15,-7,-4,1,3,3,0,0.364746,-0.779785,0.523438,-23.625,7.3125,-4.1875,-0.964603,-0.39338,-0.0437289
3404,-2,3,-3,-4,-1,-2,-1,2,0.364746,-0.779785,0.523438,-23.625,7.3125,-4.1875,-0.964603,-0.39338,-0.0437289
3424,-8,-5,-7,-6,-3,1,-4,-14,0.364746,-0.779785,0.523438,-23.625,7.3125,-4.1875,-0.964603,-0.39338,-0.0437289
3424,-3,-13,-3,-3,0,0,0,4,0.364746,-0.779785,0.523438,-23.625,7.3125,-4.1875,-0.964603,-0.39338,-0.0437289
3425,7,8,8,2,0,-3,-1,5,0.362305,-0.802246,0.522461,-25.0625,8.4375,-2.8125,-0.972675,-0.391791,-0.0467343
3425,-2,4,-3,-2,-1,-2,2,-11,0.362305,-0.802246,0.522461,-25.0625,8.4375,-2.8125,-0.972675,-0.391791,-0.0467343
3438,4,-10,3,0,-2,-1,-1,7,0.362305,-0.802246,0.522461,-25.0625,8.4375,-2.8125,-0.972675,-0.391791,-0.0467343
3438,-12,-16,-11,0,6,7,5,-3,0.362305,-0.802246,0.522461,-25.0625,8.4375,-2.8125,-0.972675,-0.391791,-0.0467343
3447,-4,6,-4,-4,-4,-5,-3,18,0.348145,-0.79834,0.524902,-23.75,8.6875,-2.0625,-0.979947,-0.389634,-0.049896
3447,-3,-14,1,2,1,2,1,2,0.348145,-0.79834,0.524902,-23.75,8.6875,-2.0625,-0.979947,-0.389634,-0.049896
3461,-2,-19,0,-1,-3,-5,-2,11,0.348145,-0.79834,0.524902,-23.75,8.6875,-2.0625,-0.979947,-0.389634,-0.049896
3461,2,9,-1,1,3,2,4,7,0.348145,-0.79834,0.524902,-23.75,8.6875,-2.0625,-0.979947,-0.389634,-0.049896
3464,-7,-11,-11,-8,-7,-4,-5,-21,0.343262,-0.804199,0.51709,-20.3125,8,-1.5,-0.986212,-0.387417,-0.0526203
3464,-15,-15,-4,1,1,0,-4,-15,0.343262,-0.804199,0.51709,-20.3125,8,-1.5,-0.986212,-0.387417,-0.0526203
3484,-1,-29,-12,-6,2,2,0,13,0.343262,-0.804199,0.51709,-20.3125,8,-1.5,-0.986212,-0.387417,-0.0526203
3484,9,11,2,-1,-2,0,2,9,0.343262,-0.804199,0.51709,-20.3125,8,-1.5,-0.986212,-0.387417,-0.0526203
3486,-5,-9,-6,-3,-6,-5,-10,-29,0.340332,-0.804688,0.507812,-17.75,7.1875,-0.5625,-0.992018,-0.385125,-0.0547773
3486,1,-19,2,1,-1,0,-1,-8,0.340332,-0.804688,0.507812,-17.75,7.1875,-0.5625,-0.992018,-0.385125,-0.0547773
3498,2,5,-6,-3,-3,-3,3,-5,0.340332,-0.804688,0.507812,-17.75,7.1875,-0.5625,-0.992018,-0.385125,-0.0547773
3498,-4,4,4,1,-2,-4,-9,-54,0.340332,-0.804688,0.507812,-17.75,7.1875,-0.5625,-0.992018,-0.385125,-0.0547773
3507,-9,-17,-9,-6,-2,-2,-4,-17,0.349609,-0.803711,0.491699,-16.5,4.9375,0,-0.997755,-0.383542,-0.0561645
3507,12,4,7,4,-1,-2,2,25,0.349609,-0.803711,0.491699,-16.5,4.9375,0,-0.997755,-0.383542,-0.0561645
3521,-10,-2,-6,-1,3,1,0,-13,0.349609,-0.803711,0.491699,-16.5,4.9375,0,-0.997755,-0.383542,-0.0561645
3521,-9,2,-6,-5,-2,-2,0,1,0.349609,-0.803711,0.491699,-16.5,4.9375,0,-0.997755,-0.383542,-0.0561645
3524,20,21,14,5,0,-2,1,16,0.355469,-0.812988,0.493652,-15.8125,3.625,0.0625,-1.0033,-0.382271,-0.0571321
3524,-1,12,5,0,-2,-1,-5,-4,0.355469,-0.812988,0.493652,-15.8125,3.625,0.0625,-1.0033,-0.382271,-0.0571321
3545,-13,-23,-16,-3,4,4,9,36,0.355469,-0.812988,0.493652,-15.8125,3.625,0.0625,-1.0033,-0.382271,-0.0571321
3545,11,15,8,-1,-3,-7,-10,-24,0.355469,-0.812988,0.493652,-15.8125,3.625,0.0625,-1.0033,-0.382271,-0.0571321
3546,-4,-19,6,-6,-9,-11,-10,-15,0.350098,-0.79541,0.493652,-12.8125,1.25,-1.5,-1.00772,-0.381794,-0.0577501
3546,-11,-8,-17,-4,-1,1,1,-1,0.350098,-0.79541,0.493652,-12.8125,1.25,-1.5,-1.00772,-0.381794,-0.0577501
3559,3,8,1,0,-2,1,2,22,0.350098,-0.79541,0.493652,-12.8125,1.25,-1.5,-1.00772,-0.381794,-0.0577501
3559,10,9,11,1,-3,-1,2,12,0.350098,-0.79541,0.493652,-12.8125,1.25,-1.5,-1.00772,-0.381794,-0.0577501
3566,-13,-8,-8,-4,-1,0,-1,-12,0.364258,-0.791504,0.493164,-8.75,-0.75,-2.3125,-1.01073,-0.382409,-0.0578697
3566,1,-4,-1,-3,-2,-4,-3,-8,0.364258,-0.791504,0.493164,-8.75,-0.75,-2.3125,-1.01073,-0.382409,-0.0578697
3582,6,8,7,4,1,0,2,7,0.364258,-0.791504,0.493164,-8.75,-0.75,-2.3125,-1.01073,-0.382409,-0.0578697
3582,-6,-3,-6,-2,0,1,3,8,0.364258,-0.791504,0.493164,-8.75,-0.75,-2.3125,-1.01073,-0.382409,-0.0578697
3583,3,-15,0,-1,1,2,8,19,0.380371,-0.784668,0.501953,-10.6875,0,-1.75,-1.01397,-0.383003,-0.0583964
3583,0,-25,-5,-2,-3,1,7,10,0.380371,-0.784668,0.501953,-10.6875,0,-1.75,-1.01397,-0.383003,-0.0583964
3605,0,0,4,2,1,1,0,-7,0.380371,-0.784668,0.501953,-10.6875,0,-1.75,-1.01397,-0.383003,-0.0583964
3605,-8,-8,-9,-4,0,0,0,12,0.380371,-0.784668,0.501953,-10.6875,0,-1.75,-1.01397,-0.383003,-0.0583964
3606,-6,7,-6,-4,-3,-4,-5,-6,0.365723,-0.801758,0.512207,-13.0625,0.5625,-0.875,-1.01799,-0.382739,-0.0589701
3606,-9,1,1,0,0,2,2,10,0.365723,-0.801758,0.512207,-13.0625,0.5625,-0.875,-1.01799,-0.382739,-0.0589701
3619,-14,5,-10,-7,-4,-2,-6,-31,0.365723,-0.801758,0.512207,-13.0625,0.5625,-0.875,-1.01799,-0.382739,-0.0589701
3619,-5,4,-6,-6,-3,-4,-11,-39,0.365723,-0.801758,0.512207,-13.0625,0.5625,-0.875,-1.01799,-0.382739,-0.0589701
3625,-5,10,-10,-9,-6,-5,8,49,0.363281,-0.815918,0.50293,-9.625,0.375,-0.375,-1.02123,-0.382261,-0.0590961
3625,-1,5,-7,1,0,1,-11,-48,0.363281,-0.815918,0.50293,-9.625,0.375,-0.375,-1.02123,-0.382261,-0.0590961
3642,7,7,12,4,-2,-4,-2,3,0.363281,-0.815918,0.50293,-9.625,0.375,-0.375,-1.02123,-0.382261,-0.0590961
3642,2,-9,-8,0,2,4,3,11,0.363281,-0.815918,0.50293,-9.625,0.375,-0.375,-1.02123,-0.382261,-0.0590961
3644,6,0,3,3,2,1,-3,-15,0.379883,-0.794922,0.507324,-8.9375,0.6875,0.3125,-1.02373,-0.3821,-0.0594592
3644,2,-9,-1,-2,-6,-5,0,10,0.379883,-0.794922,0.507324,-8.9375,0.6875,0.3125,-1.02373,-0.3821,-0.0594592
3664,-5,-9,-3,-4,-4,-3,-3,6,0.379883,-0.794922,0.507324,-8.9375,0.6875,0.3125,-1.02373,-0.3821,-0.0594592
3664,-5,-6,-7,-2,-1,-4,0,11,0.379883,-0.794922,0.507324,-8.9375,0.6875,0.3125,-1.02373,-0.3821,-0.0594592
3666,-5,14,3,3,-1,-2,-9,-55,0.371094,-0.787598,0.49707,-11.375,1.875,0.5625,-1.02699,-0.381543,-0.0601927
3666,8,-4,1,0,1,2,6,46,0.371094,-0.787598,0.49707,-11.375,1.875,0.5625,-1.02699,-0.381543,-0.0601927
3678,9,8,-2,1,-1,-2,0,9,0.371094,-0.787598,0.49707,-11.375,1.875,0.5625,-1.02699,-0.381543,-0.0601927
3678,8,18,22,2,-1,-1,-1,3,0.371094,-0.787598,0.49707,-11.375,1.875,0.5625,-1.02699,-0.381543,-0.0601927
3687,-12,-13,-8,-2,0,4,-1,-19,0.378906,-0.820801,0.48584,-11.8125,3,2.125,-1.0311,-0.380229,-0.0606334
3687,-14,7,-8,-5,-4,-2,-3,6,0.378906,-0.820801,0.48584,-11.8125,3,2.125,-1.0311,-0.380229,-0.0606334
3702,0,1,-3,2,3,3,-2,-7,0.378906,-0.820801,0.48584,-11.8125,3,2.125,-1.0311,-0.380229,-0.0606334
3702,1,-2,-4,0,-4,-5,-5,-11,0.378906,-0.820801,0.48584,-11.8125,3,2.125,-1.0311,-0.380229,-0.0606334
3704,2,17,0,-2,-3,-2,2,44,0.375977,-0.820312,0.495117,-12.375,4.4375,2.875,-1.03478,-0.378479,-0.0616715
3704,11,-2,18,6,2,-3,-1,-4,0.375977,-0.820312,0.495117,-12.375,4.4375,2.875,-1.03478,-0.378479,-0.0616715
3724,2,25,-12,-2,1,0,-6,-26,0.375977,-0.820312,0.495117,-12.375,4.4375,2.875,-1.03478,-0.378479,-0.0616715
3724,-6,6,-6,-5,-3,0,0,-3,0.375977,-0.820312,0.495117,-12.375,4.4375,2.875,-1.03478,-0.378479,-0.0616715
3726,-5,-18,3,-5,-6,-6,-2,3,0.363281,-0.811523,0.474121,-11.625,4.3125,4.4375,-1.0387,-0.376181,-0.0621733
3726,3,-20,4,-2,-5,-8,-17,-26,0.363281,-0.811523,0.474121,-11.625,4.3125,4.4375,-1.0387,-0.376181,-0.0621733
3739,-7,5,-9,-2,-2,0,1,15,0.363281,-0.811523,0.474121,-11.625,4.3125,4.4375,-1.0387,-0.376181,-0.0621733
3739,0,-18,0,2,0,0,1,15,0.363281,-0.811523,0.474121,-11.625,4.3125,4.4375,-1.0387,-0.376181,-0.0621733
3745,-3,5,-3,0,-2,-3,-5,-21,0.370605,-0.806641,0.459473,-14.4375,4.3125,6,-1.04394,-0.373738,-0.062369
3745,5,0,-3,1,0,0,8,15,0.370605,-0.806641,0.459473,-14.4375,4.3125,6,-1.04394,-0.373738,-0.062369
3762,2,-29,2,3,4,2,7,5,0.370605,-0.806641,0.459473,-14.4375,4.3125,6,-1.04394,-0.373738,-0.062369
3762,-4,3,-2,-4,-6,0,4,51,0.370605,-0.806641,0.459473,-14.4375,4.3125,6,-1.04394,-0.373738,-0.062369
3763,0,-12,2,2,-2,-2,-7,-14,0.37207,-0.821777,0.452148,-18.3125,5.4375,5.875,-1.05043,-0.371212,-0.062858
3763,3,26,2,0,2,1,1,-4,0.37207,-0.821777,0.452148,-18.3125,5.4375,5.875,-1.05043,-0.371212,-0.062858
3785,1,4,5,-1,0,0,2,0,0.37207,-0.821777,0.452148,-18.3125,5.4375,5.875,-1.05043,-0.371212,-0.062858
3785,3,12,4,-1,-1,-4,-4,-6,0.37207,-0.821777,0.452148,-18.3125,5.4375,5.875,-1.05043,-0.371212,-0.062858
3786,-4,-5,-3,-4,-2,-1,-1,-3,0.349609,-0.831055,0.472168,-20.625,5.375,4.5625,-1.05727,-0.368396,-0.0637557
3786,4,13,-3,3,6,8,-5,-19,0.349609,-0.831055,0.472168,-20.625,5.375,4.5625,-1.05727,-0.368396,-0.0637557
3798,13,9,7,-2,-5,-5,2,8,0.349609,-0.831055,0.472168,-20.625,5.375,4.5625,-1.05727,-0.368396,-0.0637557
3798,8,3,-1,1,2,2,6,22,0.349609,-0.831055,0.472168,-20.625,5.375,4.5625,-1.05727,-0.368396,-0.0637557
3815,-1,0,14,-1,-2,-2,-6,-20,0.359863,-0.831055,0.479492,-17.75,4.875,5.125,-1.06268,-0.365799,-0.0646343
3815,-13,3,-29,-6,-4,-1,-1,-27,0.359863,-0.831055,0.479492,-17.75,4.875,5.125,-1.06268,-0.365799,-0.0646343
3822,-8,-3,-1,-3,-7,-4,-9,3,0.359863,-0.831055,0.479492,-17.75,4.875,5.125,-1.06268,-0.365799,-0.0646343
3822,-9,13,-11,-5,-1,0,-3,-8,0.359863,-0.831055,0.479492,-17.75,4.875,5.125,-1.06268,-0.365799,-0.0646343
3823,14,0,13,5,2,3,4,0,0.359375,-0.804688,0.470703,-16.0625,5.375,5.9375,-1.0674,-0.363234,-0.0654904
3823,-9,9,5,-1,-2,-3,13,-8,0.359375,-0.804688,0.470703,-16.0625,5.375,5.9375,-1.0674,-0.363234,-0.0654904
3844,-15,-7,3,2,4,3,6,12,0.359375,-0.804688,0.470703,-16.0625,5.375,5.9375,-1.0674,-0.363234,-0.0654904
3844,-3,18,-7,-5,-8,-8,-5,-19,0.359375,-0.804688,0.470703,-16.0625,5.375,5.9375,-1.0674,-0.363234,-0.0654904
3846,4,-20,1,-4,-4,2,7,-5,0.341309,-0.793945,0.464355,-17.625,5.125,4.5,-1.07258,-0.360908,-0.0666257
3846,0,-9,-3,-5,-5,-5,-14,1,0.341309,-0.793945,0.464355,-17.625,5.125,4.5,-1.07258,-0.360908,-0.0666257
3858,1,-10,-6,3,1,5,4,2,0.341309,-0.793945,0.464355,-17.625,5.125,4.5,-1.07258,-0.360908,-0.0666257
3858,2,1,16,7,6,5,17,4,0.341309,-0.793945,0.464355,-17.625,5.125,4.5,-1.07258,-0.360908,-0.0666257
3866,-8,10,-15,-2,2,0,-14,-8,0.340332,-0.811523,0.474609,-18.3125,5,3.0625,-1.07769,-0.358757,-0.0680775
3866,3,15,-2,-9,-6,-8,-2,32,0.340332,-0.811523,0.474609,-18.3125,5,3.0625,-1.07769,-0.358757,-0.0680775
3882,4,-11,13,5,-1,-3,-9,-26,0.340332,-0.811523,0.474609,-18.3125,5,3.0625,-1.07769,-0.358757,-0.0680775
3882,-2,-24,22,14,7,-3,2,7,0.340332,-0.811523,0.474609,-18.3125,5,3.0625,-1.07769,-0.358757,-0.0680775
3884,-11,26,-19,-3,-1,5,-18,-41,0.327637,-0.871582,0.465332,-13.4375,4.25,2.1875,-1.08184,-0.356466,-0.0690412
3884,-7,-10,1,-4,-1,-2,15,-11,0.327637,-0.871582,0.465332,-13.4375,4.25,2.1875,-1.08184,-0.356466,-0.0690412
3905,8,-15,-1,-7,-10,-9,5,61,0.327637,-0.871582,0.465332,-13.4375,4.25,2.1875,-1.08184,-0.356466,-0.0690412
3905,-7,13,1,-7,-5,2,8,12,0.327637,-0.871582,0.465332,-13.4375,4.25,2.1875,-1.08184,-0.356466,-0.0690412
3906,1,-8,2,11,7,2,27,26,0.337891,-0.840332,0.455078,-6.125,5.5625,3.625,-1.08335,-0.354042,-0.0704025
3906,-6,-1,-3,4,5,7,-10,-1,0.337891,-0.840332,0.455078,-6.125,5.5625,3.625,-1.08335,-0.354042,-0.0704025
3919,-18,1,-9,-6,-1,-4,-10,-48,0.337891,-0.840332,0.455078,-6.125,5.5625,3.625,-1.08335,-0.354042,-0.0704025
3919,0,-22,-10,-6,-5,-4,-4,-5,0.337891,-0.840332,0.455078,-6.125,5.5625,3.625,-1.08335,-0.354042,-0.0704025
3927,-14,5,-12,-11,-11,-13,-7,25,0.324707,-0.825195,0.439453,-7.375,4.375,1.875,-1.08554,-0.352313,-0.0715531
3927,10,-23,9,11,6,4,-3,33,0.324707,-0.825195,0.439453,-7.375,4.375,1.875,-1.08554,-0.352313,-0.0715531
3942,13,-10,9,12,8,11,-54,62,0.324707,-0.825195,0.439453,-7.375,4.375,1.875,-1.08554,-0.352313,-0.0715531
3942,0,13,-16,-3,0,3,47,-15,0.324707,-0.825195,0.439453,-7.375,4.375,1.875,-1.08554,-0.352313,-0.0715531
3944,-4,-7,3,-1,3,1,3,-10,0.299805,-0.90625,0.448242,-12.25,3.375,0.875,-1.08987,-0.349908,-0.0722859
3944,-2,-13,0,-9,-3,-6,1,-12,0.299805,-0.90625,0.448242,-12.25,3.375,0.875,-1.08987,-0.349908,-0.0722859
3965,5,4,14,-4,-12,-11,-7,-6,0.299805,-0.90625,0.448242,-12.25,3.375,0.875,-1.08987,-0.349908,-0.0722859
3965,0,1,-6,4,1,-13,-40,-26,0.299805,-0.90625,0.448242,-12.25,3.375,0.875,-1.08987,-0.349908,-0.0722859
3966,8,17,-2,10,10,17,24,74,0.299316,-0.908203,0.466309,-8.625,3.1875,1.25,-1.09279,-0.347355,-0.0731005
3966,-21,-17,-1,1,10,13,26,-71,0.299316,-0.908203,0.466309,-8.625,3.1875,1.25,-1.09279,-0.347355,-0.0731005
3978,6,-14,1,-1,5,0,-6,-31,0.299316,-0.908203,0.466309,-8.625,3.1875,1.25,-1.09279,-0.347355,-0.0731005
3978,7,-14,29,-11,-21,-19,-20,-3,0.299316,-0.908203,0.466309,-8.625,3.1875,1.25,-1.09279,-0.347355,-0.0731005
3987,-13,-34,-20,-29,-36,-34,0,-22,0.349609,-0.890625,0.441895,-4.625,2.125,1.9375,-1.09456,-0.346195,-0.0733897
3987,3,-4,13,11,1,8,-29,17,0.349609,-0.890625,0.441895,-4.625,2.125,1.9375,-1.09456,-0.346195,-0.0733897
4002,-17,17,-18,12,5,9,-23,-25,0.349609,-0.890625,0.441895,-4.625,2.125,1.9375,-1.09456,-0.346195,-0.0733897
4002,-1,6,-11,14,34,14,41,-24,0.349609,-0.890625,0.441895,-4.625,2.125,1.9375,-1.09456,-0.346195,-0.0733897
4004,13,-9,18,17,26,3,-11,6,0.276855,-0.911621,0.481445,-9.9375,0,0.6875,-1.09775,-0.343838,-0.073293
4004,-5,17,-15,-33,-48,-12,27,78,0.276855,-0.911621,0.481445,-9.9375,0,0.6875,-1.09775,-0.343838,-0.073293
4025,9,-9,-30,-53,-61,-39,-107,14,0.276855,-0.911621,0.481445,-9.9375,0,0.6875,-1.09775,-0.343838,-0.073293
4025,-14,0,-14,10,19,29,67,-10,0.276855,-0.911621,0.481445,-9.9375,0,0.6875,-1.09775,-0.343838,-0.073293
4026,-9,27,3,70,67,31,54,-28,0.314453,-0.82373,0.452637,-13.25,-1,2.1875,-1.10183,-0.342741,-0.0729188
4026,11,10,19,14,44,23,-2,-52,0.314453,-0.82373,0.452637,-13.25,-1,2.1875,-1.10183,-0.342741,-0.0729188
4038,0,35,9,-9,-3,3,28,-34,0.314453,-0.82373,0.452637,-13.25,-1,2.1875,-1.10183,-0.342741,-0.0729188
4038,-11,-3,-21,-54,-65,-37,-56,18,0.314453,-0.82373,0.452637,-13.25,-1,2.1875,-1.10183,-0.342741,-0.0729188
4047,-7,-14,-22,-81,-110,-53,-49,-13,0.440918,-0.75293,0.412598,-14.375,0.125,-0.5,-1.10596,-0.346062,-0.073343
4047,14,-16,-3,2,3,-11,-34,11,0.440918,-0.75293,0.412598,-14.375,0.125,-0.5,-1.10596,-0.346062,-0.073343
4062,-7,12,16,104,104,51,127,89,0.440918,-0.75293,0.412598,-14.375,0.125,-0.5,-1.10596,-0.346062,-0.073343
4062,2,11,-19,32,62,17,-39,-56,0.440918,-0.75293,0.412598,-14.375,0.125,-0.5,-1.10596,-0.346062,-0.073343
4064,8,21,25,-50,-60,-9,-11,-21,0.413574,-0.84082,0.454102,-15.5625,2.3125,-0.4375,-1.11009,-0.34731,-0.0743925
4064,14,3,-36,-63,-64,-56,-73,11,0.413574,-0.84082,0.454102,-15.5625,2.3125,-0.4375,-1.11009,-0.34731,-0.0743925
4092,-10,-4,11,28,21,20,-16,-22,0.413574,-0.84082,0.454102,-15.5625,2.3125,-0.4375,-1.11009,-0.34731,-0.0743925
4092,-3,-18,8,98,125,86,38,81,0.413574,-0.84082,0.454102,-15.5625,2.3125,-0.4375,-1.11009,-0.34731,-0.0743925
4093,2,11,8,26,66,28,4,-40,0.34375,-0.856445,0.418457,-14.75,3.5625,3.625,-1.11519,-0.34572,-0.0750762
4093,0,38,10,-40,-45,-1,87,-80,0.34375,-0.856445,0.418457,-14.75,3.5625,3.625,-1.11519,-0.34572,-0.0750762
4098,-2,-23,-18,-58,-73,-46,-5,-22,0.34375,-0.856445,0.418457,-14.75,3.5625,3.625,-1.11519,-0.34572,-0.0750762
4098,-1,-16,-17,-43,-98,-53,-46,-6,0.34375,-0.856445,0.418457,-14.75,3.5625,3.625,-1.11519,-0.34572,-0.0750762
4107,-21,-10,-13,-10,3,5,-54,-28,0.366699,-0.711914,0.371582,-8.0625,4.9375,6,-1.11718,-0.34479,-0.0759174
4107,2,-4,10,54,31,18,29,21,0.366699,-0.711914,0.371582,-8.0625,4.9375,6,-1.11718,-0.34479,-0.0759174
4123,6,-6,20,8,18,0,4,-27,0.366699,-0.711914,0.371582,-8.0625,4.9375,6,-1.11718,-0.34479,-0.0759174
4123,-3,16,-3,-30,-50,-21,10,-6,0.366699,-0.711914,0.371582,-8.0625,4.9375,6,-1.11718,-0.34479,-0.0759174
4124,17,-21,16,-41,-59,-24,-7,57,0.274414,-0.867188,0.398926,-14.875,6.125,4.8125,-1.12232,-0.340845,-0.0770181
4124,-7,4,-16,64,93,58,15,49,0.274414,-0.867188,0.398926,-14.875,6.125,4.8125,-1.12232,-0.340845,-0.0770181
4145,16,49,1,41,62,31,33,-11,0.274414,-0.867188,0.398926,-14.875,6.125,4.8125,-1.12232,-0.340845,-0.0770181
4145,-3,5,21,-21,-4,-9,-32,-9,0.274414,-0.867188,0.398926,-14.875,6.125,4.8125,-1.12232,-0.340845,-0.0770181
4146,7,30,-34,-19,-58,-15,-5,-13,0.229492,-0.937012,0.42041,-18,7.125,3.9375,-1.12849,-0.335461,-0.0786104
4146,-12,-16,16,-35,-27,-31,-17,-6,0.229492,-0.937012,0.42041,-18,7.125,3.9375,-1.12849,-0.335461,-0.0786104
4158,-16,7,-12,36,11,23,15,-23,0.229492,-0.937012,0.42041,-18,7.125,3.9375,-1.12849,-0.335461,-0.0786104
4158,20,-10,24,8,48,33,-2,4,0.229492,-0.937012,0.42041,-18,7.125,3.9375,-1.12849,-0.335461,-0.0786104
4166,22,29,15,37,40,0,-24,1,0.275391,-0.938965,0.430664,-3.75,2.9375,0.25,-1.12985,-0.333132,-0.079456
4166,-13,-4,-7,-20,-33,-13,-27,-16,0.275391,-0.938965,0.430664,-3.75,2.9375,0.25,-1.12985,-0.333132,-0.079456
4182,8,-9,3,-56,-57,-29,1,25,0.275391,-0.938965,0.430664,-3.75,2.9375,0.25,-1.12985,-0.333132,-0.079456
4182,2,-4,-1,-20,-38,-24,-17,-30,0.275391,-0.938965,0.430664,-3.75,2.9375,0.25,-1.12985,-0.333132,-0.079456
4184,5,4,1,61,54,16,19,53,0.329102,-0.834473,0.456055,2.8125,2.9375,0.4375,-1.12709,-0.332452,-0.0808543
4184,4,5,2,8,20,17,-5,26,0.329102,-0.834473,0.456055,2.8125,2.9375,0.4375,-1.12709,-0.332452,-0.0808543
4205,5,-2,-3,-40,-39,-27,-2,-5,0.329102,-0.834473,0.456055,2.8125,2.9375,0.4375,-1.12709,-0.332452,-0.0808543
4205,-10,-3,13,-17,-39,12,-56,33,0.329102,-0.834473,0.456055,2.8125,2.9375,0.4375,-1.12709,-0.332452,-0.0808543
4206,-8,-7,-3,34,51,4,16,-1,0.364746,-0.890137,0.474609,-1.4375,2.1875,-1,-1.12602,-0.33286,-0.0822027
4206,-11,20,11,62,91,53,27,-3,0.364746,-0.890137,0.474609,-1.4375,2.1875,-1,-1.12602,-0.33286,-0.0822027
4218,11,-7,-6,12,28,-19,-13,28,0.364746,-0.890137,0.474609,-1.4375,2.1875,-1,-1.12602,-0.33286,-0.0822027
4218,0,1,-15,-53,-75,-1,4,-6,0.364746,-0.890137,0.474609,-1.4375,2.1875,-1,-1.12602,-0.33286,-0.0822027
4226,-14,-15,-12,-57,-51,-37,-26,4,0.347168,-0.966309,0.407227,-5.0625,3.25,0.5625,-1.12869,-0.331861,-0.0827669
4226,7,-3,1,26,-4,-12,-30,-8,0.347168,-0.966309,0.407227,-5.0625,3.25,0.5625,-1.12869,-0.331861,-0.0827669
4242,-13,-13,-9,8,21,17,-5,-30,0.347168,-0.966309,0.407227,-5.0625,3.25,0.5625,-1.12869,-0.331861,-0.0827669
4242,5,-8,16,-23,-21,-29,15,25,0.347168,-0.966309,0.407227,-5.0625,3.25,0.5625,-1.12869,-0.331861,-0.0827669
4244,3,-12,7,24,29,16,-15,50,0.29248,-0.92041,0.422363,-2.9375,1.4375,-2.25,-1.12971,-0.331064,-0.0835714
4244,-12,-7,-4,4,-2,-21,56,-74,0.29248,-0.92041,0.422363,-2.9375,1.4375,-2.25,-1.12971,-0.331064,-0.0835714
4265,-8,11,0,5,13,25,41,-61,0.29248,-0.92041,0.422363,-2.9375,1.4375,-2.25,-1.12971,-0.331064,-0.0835714
4265,-6,4,5,15,12,-14,11,-51,0.29248,-0.92041,0.422363,-2.9375,1.4375,-2.25,-1.12971,-0.331064,-0.0835714
4266,-3,6,0,-28,-32,0,31,3,0.354492,-0.779785,0.402344,0.625,0.875,0.125,-1.12958,-0.331331,-0.0835636
4266,9,-12,6,-40,-51,-26,-59,11,0.354492,-0.779785,0.402344,0.625,0.875,0.125,-1.12958,-0.331331,-0.0835636
4287,-2,-12,-9,1,-37,-15,30,40,0.354492,-0.779785,0.402344,0.625,0.875,0.125,-1.12958,-0.331331,-0.0835636
4287,-1,5,-13,23,58,16,-1,-14,0.354492,-0.779785,0.402344,0.625,0.875,0.125,-1.12958,-0.331331,-0.0835636
4289,-9,-3,7,16,51,20,27,-37,0.400879,-0.8125,0.387695,1.5625,1.5625,-1.375,-1.12856,-0.333574,-0.0843413
4289,-7,0,-19,-1,-51,-3,21,54,0.400879,-0.8125,0.387695,1.5625,1.5625,-1.375,-1.12856,-0.333574,-0.0843413
4302,8,-11,10,-59,-29,-21,-20,-20,0.400879,-0.8125,0.387695,1.5625,1.5625,-1.375,-1.12856,-0.333574,-0.0843413
4302,-1,-16,-3,44,34,5,62,34,0.400879,-0.8125,0.387695,1.5625,1.5625,-1.375,-1.12856,-0.333574,-0.0843413
4303,-1,6,20,40,49,2,-12,0,0.297363,-0.82666,0.461914,-2.125,1,0.6875,-1.12765,-0.332499,-0.0851565
4303,1,-6,-1,-30,-39,5,7,32,0.297363,-0.82666,0.461914,-2.125,1,0.6875,-1.12765,-0.332499,-0.0851565
4324,-4,-15,-8,-36,-9,-21,1,-24,0.297363,-0.82666,0.461914,-2.125,1,0.6875,-1.12765,-0.332499,-0.0851565
4324,-21,16,-6,34,1,2,-10,-5,0.297363,-0.82666,0.461914,-2.125,1,0.6875,-1.12765,-0.332499,-0.0851565
4325,18,4,4,-27,0,-21,42,41,0.27002,-0.831055,0.456055,2.6875,1.125,3.3125,-1.1254,-0.330004,-0.0854239
4325,6,-7,28,37,15,11,-38,-24,0.27002,-0.831055,0.456055,2.6875,1.125,3.3125,-1.1254,-0.330004,-0.0854239
4347,5,-10,-14,-16,-11,3,-43,57,0.27002,-0.831055,0.456055,2.6875,1.125,3.3125,-1.1254,-0.330004,-0.0854239
4347,-9,0,-21,-19,-32,-26,7,-15,0.27002,-0.831055,0.456055,2.6875,1.125,3.3125,-1.1254,-0.330004,-0.0854239
4349,-8,3,-12,-21,-45,11,-48,-29,0.384277,-0.931152,0.368164,9.1875,0.8125,4.5,-1.12401,-0.329479,-0.0844586
4349,5,6,5,-7,63,-9,-3,-4,0.384277,-0.931152,0.368164,9.1875,0.8125,4.5,-1.12401,-0.329479,-0.0844586
4369,3,4,18,90,70,32,-1,10,0.384277,-0.931152,0.368164,9.1875,0.8125,4.5,-1.12401,-0.329479,-0.0844586
4369,-2,2,-13,-17,2,-8,33,12,0.384277,-0.931152,0.368164,9.1875,0.8125,4.5,-1.12401,-0.329479,-0.0844586
4371,-11,-1,-28,-51,-90,-27,-32,-41,0.29541,-0.894043,0.412598,5.125,2.6875,2.0625,-1.12251,-0.327493,-0.084888
4371,0,-16,-18,-60,-94,-42,20,12,0.29541,-0.894043,0.412598,5.125,2.6875,2.0625,-1.12251,-0.327493,-0.084888
4385,4,-1,20,57,94,49,5,57,0.29541,-0.894043,0.412598,5.125,2.6875,2.0625,-1.12251,-0.327493,-0.084888
4385,4,4,12,56,80,31,32,-22,0.29541,-0.894043,0.412598,5.125,2.6875,2.0625,-1.12251,-0.327493,-0.084888
4386,22,1,-3,4,-5,3,-1,40,0.258789,-0.92627,0.445312,-0.9375,1.375,-0.25,-1.12261,-0.325323,-0.0853489
4386,-9,-16,-21,-69,-103,-46,20,3,0.258789,-0.92627,0.445312,-0.9375,1.375,-0.25,-1.12261,-0.325323,-0.0853489
4407,-9,-1,-5,-47,-27,-5,-50,-39,0.258789,-0.92627,0.445312,-0.9375,1.375,-0.25,-1.12261,-0.325323,-0.0853489
4407,14,1,6,48,41,-20,-31,60,0.258789,-0.92627,0.445312,-0.9375,1.375,-0.25,-1.12261,-0.325323,-0.0853489
4409,-2,3,37,48,88,79,-4,-9,0.375,-0.925293,0.376465,1.125,1.6875,1.3125,-1.12367,-0.325535,-0.0852115
4409,7,6,0,43,54,18,-6,26,0.375,-0.925293,0.376465,1.125,1.6875,1.3125,-1.12367,-0.325535,-0.0852115
4421,-2,18,-12,-66,-125,-43,10,-7,0.375,-0.925293,0.376465,1.125,1.6875,1.3125,-1.12367,-0.325535,-0.0852115
4421,3,-7,-6,-87,-65,-45,-34,0,0.375,-0.925293,0.376465,1.125,1.6875,1.3125,-1.12367,-0.325535,-0.0852115
4428,-6,-1,1,33,35,27,8,-11,0.328613,-0.839844,0.418945,1.5625,1.8125,-0.5,-1.12255,-0.325719,-0.0859894
4428,-1,8,7,70,85,35,24,-17,0.328613,-0.839844,0.418945,1.5625,1.8125,-0.5,-1.12255,-0.325719,-0.0859894
4445,16,10,25,47,31,17,15,30,0.328613,-0.839844,0.418945,1.5625,1.8125,-0.5,-1.12255,-0.325719,-0.0859894
4445,-3,-2,11,-67,-49,-19,-31,8,0.328613,-0.839844,0.418945,1.5625,1.8125,-0.5,-1.12255,-0.325719,-0.0859894
4446,-16,-6,-23,-14,-60,-44,11,-37,0.338867,-0.842285,0.428223,0.3125,1.5,2.375,-1.12191,-0.325218,-0.0862637
4446,-8,1,-1,-34,10,-1,-11,-47,0.338867,-0.842285,0.428223,0.3125,1.5,2.375,-1.12191,-0.325218,-0.0862637
4466,-21,-9,-15,14,25,2,52,-46,0.338867,-0.842285,0.428223,0.3125,1.5,2.375,-1.12191,-0.325218,-0.0862637
4466,-8,4,-6,39,37,28,-45,0,0.338867,-0.842285,0.428223,0.3125,1.5,2.375,-1.12191,-0.325218,-0.0862637
4469,9,10,7,-14,-49,-12,12,0,0.334473,-0.823242,0.423828,1.4375,1.1875,3.75,-1.1208,-0.324373,-0.0863345
4469,2,-11,-45,-77,-92,-37,-43,10,0.334473,-0.823242,0.423828,1.4375,1.1875,3.75,-1.1208,-0.324373,-0.0863345
4481,-24,13,-5,2,24,8,4,-88,0.334473,-0.823242,0.423828,1.4375,1.1875,3.75,-1.1208,-0.324373,-0.0863345
4481,7,16,10,73,77,34,14,18,0.334473,-0.823242,0.423828,1.4375,1.1875,3.75,-1.1208,-0.324373,-0.0863345
4488,0,13,7,16,76,27,42,8,0.319336,-0.881836,0.422363,2.625,1.125,2.6875,-1.12004,-0.323156,-0.0861935
4488,1,8,15,19,-3,-1,2,1,0.319336,-0.881836,0.422363,2.625,1.125,2.6875,-1.12004,-0.323156,-0.0861935
4504,5,-10,-20,-66,-90,-30,-43,21,0.319336,-0.881836,0.422363,2.625,1.125,2.6875,-1.12004,-0.323156,-0.0861935
4504,-12,-10,-19,-89,-120,-49,-20,-15,0.319336,-0.881836,0.422363,2.625,1.125,2.6875,-1.12004,-0.323156,-0.0861935
4505,3,-5,9,79,87,10,11,42,0.319824,-0.842773,0.429199,2.5625,1.5,4.0625,-1.11861,-0.321784,-0.0861904
4505,1,9,4,32,75,58,-21,-27,0.319824,-0.842773,0.429199,2.5625,1.5,4.0625,-1.11861,-0.321784,-0.0861904
4527,14,3,11,32,20,-8,-38,-3,0.319824,-0.842773,0.429199,2.5625,1.5,4.0625,-1.11861,-0.321784,-0.0861904
4527,-10,9,-14,-39,-57,-15,20,-83,0.319824,-0.842773,0.429199,2.5625,1.5,4.0625,-1.11861,-0.321784,-0.0861904
4528,-5,-9,-16,-47,-69,-20,-29,-14,0.29248,-0.961426,0.401367,-0.3125,3,3.75,-1.12008,-0.318929,-0.0861711
4528,-14,8,-5,6,19,-15,-22,-50,0.29248,-0.961426,0.401367,-0.3125,3,3.75,-1.12008,-0.318929,-0.0861711
4541,19,-6,9,38,60,25,7,66,0.29248,-0.961426,0.401367,-0.3125,3,3.75,-1.12008,-0.318929,-0.0861711
4541,-16,1,13,13,18,-10,-43,-44,0.29248,-0.961426,0.401367,-0.3125,3,3.75,-1.12008,-0.318929,-0.0861711
4548,2,1,4,6,-16,13,-13,-2,0.231445,-0.97998,0.405762,-2.625,1.4375,0.1875,-1.12241,-0.315897,-0.0861414
4548,-5,-2,3,-27,-21,0,45,-8,0.231445,-0.97998,0.405762,-2.625,1.4375,0.1875,-1.12241,-0.315897,-0.0861414
4564,-7,-9,-30,-37,-32,-2,6,-2,0.231445,-0.97998,0.405762,-2.625,1.4375,0.1875,-1.12241,-0.315897,-0.0861414
4564,6,-8,0,22,14,-10,-23,17,0.231445,-0.97998,0.405762,-2.625,1.4375,0.1875,-1.12241,-0.315897,-0.0861414
4566,4,-7,0,-18,24,8,-7,32,0.317383,-0.840332,0.472656,0.9375,-0.625,-3.5,-1.1203,-0.317128,-0.0869558
4566,13,9,20,77,20,14,37,38,0.317383,-0.840332,0.472656,0.9375,-0.625,-3.5,-1.1203,-0.317128,-0.0869558
4587,9,-1,17,-16,6,-11,-8,-3,0.317383,-0.840332,0.472656,0.9375,-0.625,-3.5,-1.1203,-0.317128,-0.0869558
4587,-7,0,-20,3,12,36,57,33,0.317383,-0.840332,0.472656,0.9375,-0.625,-3.5,-1.1203,-0.317128,-0.0869558
4588,0,9,-6,-28,-31,-36,-57,-42,0.353027,-0.826172,0.465332,1.625,-1,-0.6875,-1.11846,-0.318505,-0.087251
4588,-2,-10,-8,-35,-31,-5,58,42,0.353027,-0.826172,0.465332,1.625,-1,-0.6875,-1.11846,-0.318505,-0.087251
4601,-18,1,-4,19,13,6,-5,-48,0.353027,-0.826172,0.465332,1.625,-1,-0.6875,-1.11846,-0.318505,-0.087251
4601,10,4,2,22,25,10,20,11,0.353027,-0.826172,0.465332,1.625,-1,-0.6875,-1.11846,-0.318505,-0.087251
4608,-7,-1,-9,-8,-9,1,15,-17,0.346191,-0.861816,0.428711,-0.125,-0.875,0.625,-1.11831,-0.318597,-0.0872
4608,-10,-5,-10,-41,-39,-27,-114,-8,0.346191,-0.861816,0.428711,-0.125,-0.875,0.625,-1.11831,-0.318597,-0.0872
4625,-3,-5,26,23,32,-18,64,7,0.346191,-0.861816,0.428711,-0.125,-0.875,0.625,-1.11831,-0.318597,-0.0872
4625,0,-11,1,-8,-4,29,-4,-2,0.346191,-0.861816,0.428711,-0.125,-0.875,0.625,-1.11831,-0.318597,-0.0872
4626,-2,-6,-3,6,13,4,53,-19,0.361328,-0.862793,0.41748,3.4375,-0.75,2.1875,-1.11739,-0.319091,-0.0865772
4626,6,-8,11,26,36,-35,73,53,0.361328,-0.862793,0.41748,3.4375,-0.75,2.1875,-1.11739,-0.319091,-0.0865772
4647,-1,-2,-12,-41,-49,29,-40,7,0.361328,-0.862793,0.41748,3.4375,-0.75,2.1875,-1.11739,-0.319091,-0.0865772
4647,0,-7,-8,-19,-54,-38,10,-17,0.361328,-0.862793,0.41748,3.4375,-0.75,2.1875,-1.11739,-0.319091,-0.0865772
4649,-2,4,18,35,37,11,-14,-36,0.291504,-0.797363,0.474121,7.0625,-1.1875,1.1875,-1.1131,-0.318509,-0.086629
4649,-11,-34,-33,9,-4,-15,-105,16,0.291504,-0.797363,0.474121,7.0625,-1.1875,1.1875,-1.1131,-0.318509,-0.086629
4661,-11,5,30,28,50,17,57,3,0.291504,-0.797363,0.474121,7.0625,-1.1875,1.1875,-1.1131,-0.318509,-0.086629
4661,3,-6,-3,-18,-24,-10,-4,3,0.291504,-0.797363,0.474121,7.0625,-1.1875,1.1875,-1.1131,-0.318509,-0.086629
4668,-6,-6,-16,-81,-78,-21,-15,16,0.285645,-0.897461,0.416504,4.4375,-0.875,2.4375,-1.1124,-0.316995,-0.0857596
4668,2,-12,18,62,56,16,8,-7,0.285645,-0.897461,0.416504,4.4375,-0.875,2.4375,-1.1124,-0.316995,-0.0857596
4685,-19,-1,-13,26,23,13,27,47,0.285645,-0.897461,0.416504,4.4375,-0.875,2.4375,-1.1124,-0.316995,-0.0857596
4685,4,-2,-10,-25,-4,10,-4,0,0.285645,-0.897461,0.416504,4.4375,-0.875,2.4375,-1.1124,-0.316995,-0.0857596
4686,0,-12,-2,-9,-25,-24,29,19,0.285645,-0.89209,0.413086,5.25,-1.5,-0.25,-1.11128,-0.316486,-0.0851993
4686,-3,-1,7,-29,-28,-7,-16,-7,0.285645,-0.89209,0.413086,5.25,-1.5,-0.25,-1.11128,-0.316486,-0.0851993
4707,18,-9,6,13,8,-5,2,46,0.285645,-0.89209,0.413086,5.25,-1.5,-0.25,-1.11128,-0.316486,-0.0851993
4707,11,5,22,42,60,19,0,3,0.285645,-0.89209,0.413086,5.25,-1.5,-0.25,-1.11128,-0.316486,-0.0851993
4708,-11,6,-16,7,-3,7,53,-19,0.3125,-0.862305,0.427246,4.9375,-1.75,-0.25,-1.10974,-0.316777,-0.0846208
4708,-9,16,-4,-45,-54,-27,84,-44,0.3125,-0.862305,0.427246,4.9375,-1.75,-0.25,-1.10974,-0.316777,-0.0846208
4721,7,-7,6,-24,11,39,-54,-16,0.3125,-0.862305,0.427246,4.9375,-1.75,-0.25,-1.10974,-0.316777,-0.0846208
4721,-20,-8,-24,36,9,-8,-8,-19,0.3125,-0.862305,0.427246,4.9375,-1.75,-0.25,-1.10974,-0.316777,-0.0846208
4728,13,-2,-11,0,19,-13,-53,16,0.305664,-0.901367,0.436035,1.3125,-1.125,-1.3125,-1.10964,-0.316749,-0.0843666
4728,12,-4,-18,-2,-28,13,-20,64,0.305664,-0.901367,0.436035,1.3125,-1.125,-1.3125,-1.10964,-0.316749,-0.0843666
4745,8,-13,5,-1,-5,1,-17,6,0.305664,-0.901367,0.436035,1.3125,-1.125,-1.3125,-1.10964,-0.316749,-0.0843666
4745,0,-1,3,-5,-4,-4,6,0,0.305664,-0.901367,0.436035,1.3125,-1.125,-1.3125,-1.10964,-0.316749,-0.0843666
4746,3,-5,11,21,34,3,-15,0,0.315918,-0.828613,0.466309,3.1875,-0.6875,-2.0625,-1.10729,-0.317616,-0.084892
4746,1,7,-2,-5,-23,9,14,31,0.315918,-0.828613,0.466309,3.1875,-0.6875,-2.0625,-1.10729,-0.317616,-0.084892
4767,6,-5,-7,-23,-2,-24,-12,45,0.315918,-0.828613,0.466309,3.1875,-0.6875,-2.0625,-1.10729,-0.317616,-0.084892
4767,9,-4,1,14,-22,5,13,10,0.315918,-0.828613,0.466309,3.1875,-0.6875,-2.0625,-1.10729,-0.317616,-0.084892
4768,3,0,20,-28,8,7,-28,3,0.322266,-0.856445,0.425293,6.5625,-1.125,-0.5,-1.10518,-0.318135,-0.0845732
4768,7,4,26,49,51,8,-63,-25,0.322266,-0.856445,0.425293,6.5625,-1.125,-0.5,-1.10518,-0.318135,-0.0845732
4781,-14,3,-22,7,-12,34,48,-25,0.322266,-0.856445,0.425293,6.5625,-1.125,-0.5,-1.10518,-0.318135,-0.0845732
4781,0,-1,6,-42,-33,-27,-25,7,0.322266,-0.856445,0.425293,6.5625,-1.125,-0.5,-1.10518,-0.318135,-0.0845732
4789,1,2,-39,2,-29,-9,-39,13,0.338867,-0.88916,0.391113,-1.8125,0.1875,0.4375,-1.107,-0.318417,-0.084149
4789,8,8,8,12,31,37,12,-20,0.338867,-0.88916,0.391113,-1.8125,0.1875,0.4375,-1.107,-0.318417,-0.084149
4805,2,-2,7,2,21,-13,-5,-26,0.338867,-0.88916,0.391113,-1.8125,0.1875,0.4375,-1.107,-0.318417,-0.084149
4805,1,-7,7,21,26,20,-24,19,0.338867,-0.88916,0.391113,-1.8125,0.1875,0.4375,-1.107,-0.318417,-0.084149
4806,-3,-2,5,-2,-36,-2,74,22,0.274414,-0.864746,0.443848,-1.0625,0.8125,-1.4375,-1.10701,-0.31764,-0.0847617
4806,1,-12,22,-43,-23,-8,-46,2,0.274414,-0.864746,0.443848,-1.0625,0.8125,-1.4375,-1.10701,-0.31764,-0.0847617
4827,-7,-11,-31,19,2,-6,15,-21,0.274414,-0.864746,0.443848,-1.0625,0.8125,-1.4375,-1.10701,-0.31764,-0.0847617
4827,-3,1,-8,-8,12,-7,67,2,0.274414,-0.864746,0.443848,-1.0625,0.8125,-1.4375,-1.10701,-0.31764,-0.0847617
4828,6,3,6,-6,-7,20,-5,82,0.325195,-0.82959,0.451172,4.3125,-0.3125,-0.6875,-1.10467,-0.318198,-0.0850253
4828,8,4,-9,-18,-6,-8,0,-10,0.325195,-0.82959,0.451172,4.3125,-0.3125,-0.6875,-1.10467,-0.318198,-0.0850253
4841,-10,1,15,27,-14,-14,-7,-40,0.325195,-0.82959,0.451172,4.3125,-0.3125,-0.6875,-1.10467,-0.318198,-0.0850253
4841,-4,2,10,-15,17,-14,-48,17,0.325195,-0.82959,0.451172,4.3125,-0.3125,-0.6875,-1.10467,-0.318198,-0.0850253
4849,5,1,17,78,77,42,36,24,0.327148,-0.913086,0.404785,0.3125,-0.0625,-0.5625,-1.10498,-0.318147,-0.0848716
4849,-8,-4,-31,-11,-16,-2,3,33,0.327148,-0.913086,0.404785,0.3125,-0.0625,-0.5625,-1.10498,-0.318147,-0.0848716
4864,9,1,-10,-81,-53,-37,-49,-39,0.327148,-0.913086,0.404785,0.3125,-0.0625,-0.5625,-1.10498,-0.318147,-0.0848716
4864,-2,10,-19,24,-30,3,1,0,0.327148,-0.913086,0.404785,0.3125,-0.0625,-0.5625,-1.10498,-0.318147,-0.0848716
4866,-13,-3,20,-33,-24,-26,-10,-27,0.316406,-0.865234,0.446289,-0.625,-0.0625,-2.3125,-1.10483,-0.318858,-0.0853505
4866,-1,6,21,40,76,33,5,-1,0.316406,-0.865234,0.446289,-0.625,-0.0625,-2.3125,-1.10483,-0.318858,-0.0853505
4887,5,-4,2,31,-5,-14,9,2,0.316406,-0.865234,0.446289,-0.625,-0.0625,-2.3125,-1.10483,-0.318858,-0.0853505
4887,-5,4,-4,-44,-30,11,7,-1,0.316406,-0.865234,0.446289,-0.625,-0.0625,-2.3125,-1.10483,-0.318858,-0.0853505
4889,8,17,8,3,-9,8,5,-41,0.317871,-0.822266,0.458496,3.5,0.25,-0.625,-1.10242,-0.31916,-0.0859197
4889,-1,-14,-46,-28,-38,-27,-29,53,0.317871,-0.822266,0.458496,3.5,0.25,-0.625,-1.10242,-0.31916,-0.0859197
4901,-18,10,8,-9,50,24,4,-49,0.317871,-0.822266,0.458496,3.5,0.25,-0.625,-1.10242,-0.31916,-0.0859197
4901,8,2,17,94,77,5,-14,80,0.317871,-0.822266,0.458496,3.5,0.25,-0.625,-1.10242,-0.31916,-0.0859197
4910,-1,3,-11,-17,-21,12,-29,-37,0.346191,-0.90625,0.407227,-0.1875,0.625,-0.4375,-1.10272,-0.319269,-0.0857957
4910,-9,5,8,-45,-43,-5,0,-36,0.346191,-0.90625,0.407227,-0.1875,0.625,-0.4375,-1.10272,-0.319269,-0.0857957
4925,-4,2,-15,-21,-75,-33,-6,17,0.346191,-0.90625,0.407227,-0.1875,0.625,-0.4375,-1.10272,-0.319269,-0.0857957
4925,1,-5,-3,3,11,0,-38,-17,0.346191,-0.90625,0.407227,-0.1875,0.625,-0.4375,-1.10272,-0.319269,-0.0857957
4925,-5,-1,7,17,66,1,14,-29,0.272949,-0.860352,0.453613,-3.125,0.1875,-1.9375,-1.10336,-0.318631,-0.0862538
4925,-4,4,4,33,21,19,37,-18,0.272949,-0.860352,0.453613,-3.125,0.1875,-1.9375,-1.10336,-0.318631,-0.0862538
4947,-8,-11,-15,-49,-85,-6,-43,-3,0.272949,-0.860352,0.453613,-3.125,0.1875,-1.9375,-1.10336,-0.318631,-0.0862538
4947,-11,2,1,-85,-33,-36,69,-47,0.272949,-0.860352,0.453613,-3.125,0.1875,-1.9375,-1.10336,-0.318631,-0.0862538
4948,-12,2,3,82,55,29,15,8,0.328125,-0.793457,0.449219,2.125,0.0625,-0.0625,-1.10145,-0.319339,-0.0866659
4948,5,4,-20,12,29,3,16,-35,0.328125,-0.793457,0.449219,2.125,0.0625,-0.0625,-1.10145,-0.319339,-0.0866659
4961,21,2,36,-1,23,-4,-16,63,0.328125,-0.793457,0.449219,2.125,0.0625,-0.0625,-1.10145,-0.319339,-0.0866659
4961,-13,-6,-27,2,-20,7,-4,-19,0.328125,-0.793457,0.449219,2.125,0.0625,-0.0625,-1.10145,-0.319339,-0.0866659
4969,-3,-5,-9,-26,-43,-9,-31,-30,0.348633,-0.891113,0.429199,5.6875,-0.875,-0.25,-1.10008,-0.320052,-0.0862631
4969,-4,-5,4,-12,-19,-17,28,12,0.348633,-0.891113,0.429199,5.6875,-0.875,-0.25,-1.10008,-0.320052,-0.0862631
4985,-5,11,1,22,56,20,12,-22,0.348633,-0.891113,0.429199,5.6875,-0.875,-0.25,-1.10008,-0.320052,-0.0862631
4985,6,0,6,23,8,2,-11,23,0.348633,-0.891113,0.429199,5.6875,-0.875,-0.25,-1.10008,-0.320052,-0.0862631
4986,15,5,10,-24,-9,-21,-62,-26,0.292969,-0.899414,0.414551,0,-0.125,-0.1875,-1.10039,-0.319801,-0.0862527
4986,1,7,6,6,-4,14,4,-11,0.292969,-0.899414,0.414551,0,-0.125,-0.1875,-1.10039,-0.319801,-0.0862527
5007,-2,-11,5,14,-15,-27,14,-8,0.292969,-0.899414,0.414551,0,-0.125,-0.1875,-1.10039,-0.319801,-0.0862527
5007,-3,-10,-2,-12,-17,-11,35,17,0.292969,-0.899414,0.414551,0,-0.125,-0.1875,-1.10039,-0.319801,-0.0862527
5008,-29,-5,-26,-8,-19,14,37,-58,0.283203,-0.875,0.446777,-2.1875,-0.75,-1.5,-1.10092,-0.319429,-0.0862319
5008,2,-1,9,-14,-3,-20,3,24,0.283203,-0.875,0.446777,-2.1875,-0.75,-1.5,-1.10092,-0.319429,-0.0862319
5021,0,-11,-2,9,6,-23,-28,-15,0.283203,-0.875,0.446777,-2.1875,-0.75,-1.5,-1.10092,-0.319429,-0.0862319
5021,0,-3,3,8,21,18,49,44,0.283203,-0.875,0.446777,-2.1875,-0.75,-1.5,-1.10092,-0.319429,-0.0862319
5029,20,-1,9,-12,-43,-11,-25,-24,0.312988,-0.852539,0.454102,1.5625,-1.3125,-1,-1.10009,-0.319718,-0.0861872
5029,-12,-12,-26,-33,21,-13,-51,-17,0.312988,-0.852539,0.454102,1.5625,-1.3125,-1,-1.10009,-0.319718,-0.0861872
5044,-2,6,-5,46,26,25,28,15,0.312988,-0.852539,0.454102,1.5625,-1.3125,-1,-1.10009,-0.319718,-0.0861872
5044,10,-9,13,30,40,-2,-51,-16,0.312988,-0.852539,0.454102,1.5625,-1.3125,-1,-1.10009,-0.319718,-0.0861872
5046,4,-2,-5,-19,-22,8,-9,4,0.37793,-0.828125,0.428223,4.5625,-0.5625,0.8125,-1.09845,-0.321141,-0.0858232
5046,1,-5,31,8,-12,-4,65,-4,0.37793,-0.828125,0.428223,4.5625,-0.5625,0.8125,-1.09845,-0.321141,-0.0858232
5066,2,-13,-30,-31,-26,-8,-20,19,0.37793,-0.828125,0.428223,4.5625,-0.5625,0.8125,-1.09845,-0.321141,-0.0858232
5066,-1,6,-12,-28,-33,-15,-46,-31,0.37793,-0.828125,0.428223,4.5625,-0.5625,0.8125,-1.09845,-0.321141,-0.0858232
5068,-20,-18,2,-15,11,-14,-9,75,0.294434,-0.830078,0.444336,-0.9375,0.3125,0.5,-1.0983,-0.321032,-0.0859173
5068,-2,-3,12,40,8,44,-3,-13,0.294434,-0.830078,0.444336,-0.9375,0.3125,0.5,-1.0983,-0.321032,-0.0859173
5081,9,-1,4,23,49,15,62,22,0.294434,-0.830078,0.444336,-0.9375,0.3125,0.5,-1.0983,-0.321032,-0.0859173
5081,12,2,4,4,-32,4,-36,-61,0.294434,-0.830078,0.444336,-0.9375,0.3125,0.5,-1.0983,-0.321032,-0.0859173
5089,-6,2,12,-18,37,3,44,-6,0.249512,-0.944336,0.418945,-5.6875,-0.0625,0.875,-1.10175,-0.318671,-0.0852844
5089,6,-6,-14,32,3,-15,-2,43,0.249512,-0.944336,0.418945,-5.6875,-0.0625,0.875,-1.10175,-0.318671,-0.0852844
5104,-14,0,0,-41,-44,-15,6,-7,0.249512,-0.944336,0.418945,-5.6875,-0.0625,0.875,-1.10175,-0.318671,-0.0852844
5104,-24,-4,-27,-59,-54,0,-9,-19,0.249512,-0.944336,0.418945,-5.6875,-0.0625,0.875,-1.10175,-0.318671,-0.0852844
5105,3,-5,1,53,37,-14,-5,-6,0.31543,-0.896973,0.41748,1.3125,-0.125,-0.5,-1.10207,-0.318553,-0.0850207
5105,-2,6,9,1,31,19,-17,-31,0.31543,-0.896973,0.41748,1.3125,-0.125,-0.5,-1.10207,-0.318553,-0.0850207
5127,4,-9,8,0,3,1,-24,-16,0.31543,-0.896973,0.41748,1.3125,-0.125,-0.5,-1.10207,-0.318553,-0.0850207
5127,-7,2,13,-1,13,10,18,-5,0.31543,-0.896973,0.41748,1.3125,-0.125,-0.5,-1.10207,-0.318553,-0.0850207
5129,4,0,-29,-25,-54,-17,17,14,0.319824,-0.80957,0.452637,3.6875,-0.5625,-1.5625,-1.09973,-0.319447,-0.0853634
5129,-13,-11,6,24,20,-24,-71,-31,0.319824,-0.80957,0.452637,3.6875,-0.5625,-1.5625,-1.09973,-0.319447,-0.0853634
5141,9,20,5,25,8,22,84,27,0.319824,-0.80957,0.452637,3.6875,-0.5625,-1.5625,-1.09973,-0.319447,-0.0853634
5141,-16,-2,3,-20,2,2,-7,-31,0.319824,-0.80957,0.452637,3.6875,-0.5625,-1.5625,-1.09973,-0.319447,-0.0853634
5149,5,-7,-2,-4,6,-22,-15,44,0.352539,-0.832031,0.457031,-3.75,0.125,-0.75,-1.10032,-0.320525,-0.0858018
5149,0,3,-7,-38,-15,20,-5,-51,0.352539,-0.832031,0.457031,-3.75,0.125,-0.75,-1.10032,-0.320525,-0.0858018
5165,-4,-8,-13,5,-4,-19,-19,23,0.352539,-0.832031,0.457031,-3.75,0.125,-0.75,-1.10032,-0.320525,-0.0858018
5165,3,3,25,53,40,1,5,-2,0.352539,-0.832031,0.457031,-3.75,0.125,-0.75,-1.10032,-0.320525,-0.0858018
5166,8,2,5,12,8,1,12,25,0.32666,-0.882812,0.463379,-0.3125,-0.8125,0.125,-1.10018,-0.320524,-0.0858317
5166,0,0,-1,-24,-31,-18,9,-1,0.32666,-0.882812,0.463379,-0.3125,-0.8125,0.125,-1.10018,-0.320524,-0.0858317
5187,-6,-1,-13,-45,-51,-43,-14,-45,0.32666,-0.882812,0.463379,-0.3125,-0.8125,0.125,-1.10018,-0.320524,-0.0858317
5187,2,2,-10,-4,-14,36,-17,20,0.32666,-0.882812,0.463379,-0.3125,-0.8125,0.125,-1.10018,-0.320524,-0.0858317
5188,-5,1,4,30,43,-1,24,-2,0.333496,-0.88916,0.396973,3.0625,0.125,1.875,-1.10039,-0.320137,-0.0851577
5188,8,-6,12,25,39,40,-53,-1,0.333496,-0.88916,0.396973,3.0625,0.125,1.875,-1.10039,-0.320137,-0.0851577
5210,-33,0,-2,-4,-11,9,15,-34,0.333496,-0.88916,0.396973,3.0625,0.125,1.875,-1.10039,-0.320137,-0.0851577
5210,1,-7,-23,-37,-41,-50,-34,-15,0.333496,-0.88916,0.396973,3.0625,0.125,1.875,-1.10039,-0.320137,-0.0851577
5211,-2,-3,2,-24,-44,-31,13,5,0.273926,-0.864258,0.444336,-0.75,-0.25,-0.625,-1.10036,-0.319854,-0.0851765
5211,-7,-1,-32,9,-9,9,22,21,0.273926,-0.864258,0.444336,-0.75,-0.25,-0.625,-1.10036,-0.319854,-0.0851765
5223,11,1,0,9,77,26,-9,7,0.273926,-0.864258,0.444336,-0.75,-0.25,-0.625,-1.10036,-0.319854,-0.0851765
5223,7,2,5,50,48,34,-10,14,0.273926,-0.864258,0.444336,-0.75,-0.25,-0.625,-1.10036,-0.319854,-0.0851765
5231,-1,13,28,-24,-10,-2,5,18,0.319336,-0.823242,0.484375,3.1875,-1.25,-1.375,-1.0979,-0.320588,-0.0855213
5231,-4,7,-14,-14,-45,-34,35,-8,0.319336,-0.823242,0.484375,3.1875,-1.25,-1.375,-1.0979,-0.320588,-0.0855213
5247,5,-13,-16,-51,-67,-13,-61,18,0.319336,-0.823242,0.484375,3.1875,-1.25,-1.375,-1.0979,-0.320588,-0.0855213
5247,3,0,7,5,4,-22,-1,13,0.319336,-0.823242,0.484375,3.1875,-1.25,-1.375,-1.0979,-0.320588,-0.0855213
5248,-10,12,-14,44,82,42,3,-36,0.378418,-0.900391,0.395996,3.375,-0.625,2.125,-1.09835,-0.321183,-0.0845078
5248,-11,0,12,-5,-52,-13,31,2,0.378418,-0.900391,0.395996,3.375,-0.625,2.125,-1.09835,-0.321183,-0.0845078
5270,-12,-9,12,-15,4,-5,-25,-19,0.378418,-0.900391,0.395996,3.375,-0.625,2.125,-1.09835,-0.321183,-0.0845078
5270,3,1,-15,-6,-30,-16,-10,9,0.378418,-0.900391,0.395996,3.375,-0.625,2.125,-1.09835,-0.321183,-0.0845078
5270,-2,-5,-18,-33,-5,-25,-24,-4,0.273926,-0.870605,0.42334,-2.125,0.0625,0.0625,-1.09949,-0.320064,-0.0843095
5270,3,12,13,48,55,18,-7,-27,0.273926,-0.870605,0.42334,-2.125,0.0625,0.0625,-1.09949,-0.320064,-0.0843095
5285,4,5,12,15,-14,1,11,19,0.273926,-0.870605,0.42334,-2.125,0.0625,0.0625,-1.09949,-0.320064,-0.0843095
5285,-16,-5,-7,-45,-24,-22,14,-13,0.273926,-0.870605,0.42334,-2.125,0.0625,0.0625,-1.09949,-0.320064,-0.0843095
5286,9,4,-18,14,-5,-11,-4,8,0.293457,-0.85498,0.483398,0.6875,-0.5,-2.3125,-1.09809,-0.320094,-0.084911
5286,0,6,2,-33,-46,14,1,4,0.293457,-0.85498,0.483398,0.6875,-0.5,-2.3125,-1.09809,-0.320094,-0.084911
5307,12,8,22,35,79,15,-33,-49,0.293457,-0.85498,0.483398,0.6875,-0.5,-2.3125,-1.09809,-0.320094,-0.084911
5307,4,5,-15,59,49,23,-8,32,0.293457,-0.85498,0.483398,0.6875,-0.5,-2.3125,-1.09809,-0.320094,-0.084911
5309,-11,1,4,-46,-58,-9,-7,22,0.349609,-0.839844,0.459961,5.5625,-1.1875,0.125,-1.09554,-0.320936,-0.0847495
5309,6,-10,-12,-61,-20,-45,-51,14,0.349609,-0.839844,0.459961,5.5625,-1.1875,0.125,-1.09554,-0.320936,-0.0847495
5330,-1,1,5,47,-8,12,-4,9,0.349609,-0.839844,0.459961,5.5625,-1.1875,0.125,-1.09554,-0.320936,-0.0847495
5330,11,-4,9,-27,9,2,-32,3,0.349609,-0.839844,0.459961,5.5625,-1.1875,0.125,-1.09554,-0.320936,-0.0847495
5331,-5,9,-12,35,-2,13,18,-44,0.313965,-0.905762,0.393555,-2,0.4375,0,-1.09791,-0.32059,-0.0843503
5331,-3,0,-12,-35,-47,-35,1,-11,0.313965,-0.905762,0.393555,-2,0.4375,0,-1.09791,-0.32059,-0.0843503
5345,-12,-10,-11,-42,-20,-15,4,16,0.313965,-0.905762,0.393555,-2,0.4375,0,-1.09791,-0.32059,-0.0843503
5345,5,1,12,72,66,42,-19,29,0.313965,-0.905762,0.393555,-2,0.4375,0,-1.09791,-0.32059,-0.0843503
5346,11,18,5,16,42,23,-14,-35,0.280762,-0.845703,0.469238,-3.125,-0.125,-0.9375,-1.09813,-0.319974,-0.0847064
5346,-6,-6,2,5,6,23,40,9,0.280762,-0.845703,0.469238,-3.125,-0.125,-0.9375,-1.09813,-0.319974,-0.0847064
5367,6,-14,-12,-55,-48,-20,-23,0,0.280762,-0.845703,0.469238,-3.125,-0.125,-0.9375,-1.09813,-0.319974,-0.0847064
5367,-6,6,-6,-2,-51,-55,15,22,0.280762,-0.845703,0.469238,-3.125,-0.125,-0.9375,-1.09813,-0.319974,-0.0847064
5369,-4,-6,-5,-20,8,11,7,-10,0.347168,-0.773926,0.493652,5.9375,-1.125,-1,-1.0939,-0.321446,-0.0852509
5369,12,4,6,55,36,20,-36,61,0.347168,-0.773926,0.493652,5.9375,-1.125,-1,-1.0939,-0.321446,-0.0852509
5390,-1,-3,-26,-5,5,-11,8,-16,0.347168,-0.773926,0.493652,5.9375,-1.125,-1,-1.0939,-0.321446,-0.0852509
5390,-13,-3,-27,-36,-36,3,44,-2,0.347168,-0.773926,0.493652,5.9375,-1.125,-1,-1.0939,-0.321446,-0.0852509
5391,-4,-9,9,18,6,3,12,48,0.355469,-0.916504,0.400879,4.6875,-0.9375,1.4375,-1.09406,-0.321694,-0.0842061
5391,15,-2,4,-8,12,-22,-37,-18,0.355469,-0.916504,0.400879,4.6875,-0.9375,1.4375,-1.09406,-0.321694,-0.0842061
5404,-10,4,10,17,-21,0,-16,-22,0.355469,-0.916504,0.400879,4.6875,-0.9375,1.4375,-1.09406,-0.321694,-0.0842061
5404,-10,-7,-1,-34,-10,-6,9,-33,0.355469,-0.916504,0.400879,4.6875,-0.9375,1.4375,-1.09406,-0.321694,-0.0842061
5410,4,-6,-1,9,40,44,39,13,0.299316,-0.922852,0.39209,-3.75,-0.0625,0.375,-1.09731,-0.320804,-0.0834242
5410,0,-10,3,37,15,-13,-6,-18,0.299316,-0.922852,0.39209,-3.75,-0.0625,0.375,-1.09731,-0.320804,-0.0834242
5427,6,-9,5,-29,-20,-6,43,34,0.299316,-0.922852,0.39209,-3.75,-0.0625,0.375,-1.09731,-0.320804,-0.0834242
5427,-8,1,6,12,-3,-19,6,-31,0.299316,-0.922852,0.39209,-3.75,-0.0625,0.375,-1.09731,-0.320804,-0.0834242
5429,-6,-9,-1,-10,-17,-2,-35,-3,0.306641,-0.831055,0.470703,1,0.25,-2.0625,-1.09575,-0.321059,-0.0841972
5429,-12,1,-3,-31,-16,0,-3,-47,0.306641,-0.831055,0.470703,1,0.25,-2.0625,-1.09575,-0.321059,-0.0841972
5450,0,-9,6,15,2,1,-19,-22,0.306641,-0.831055,0.470703,1,0.25,-2.0625,-1.09575,-0.321059,-0.0841972
5450,-2,-3,-19,-29,-65,-33,-45,-38,0.306641,-0.831055,0.470703,1,0.25,-2.0625,-1.09575,-0.321059,-0.0841972
5450,7,0,4,-51,36,-2,1,-12,0.320312,-0.782715,0.475098,4.3125,-0.625,-0.5,-1.09268,-0.321763,-0.0846353
5450,-2,10,36,118,93,62,24,-25,0.320312,-0.782715,0.475098,4.3125,-0.625,-0.5,-1.09268,-0.321763,-0.0846353
5464,-7,2,0,-6,-14,-8,8,50,0.320312,-0.782715,0.475098,4.3125,-0.625,-0.5,-1.09268,-0.321763,-0.0846353
5464,5,-3,-7,-40,-11,4,13,16,0.320312,-0.782715,0.475098,4.3125,-0.625,-0.5,-1.09268,-0.321763,-0.0846353
5478,1,-17,-11,6,-53,-31,-29,15,0.315918,-0.946289,0.399414,-1.875,0.625,0.25,-1.09518,-0.320976,-0.0841916
5478,-6,-8,-4,-12,34,1,16,-7,0.315918,-0.946289,0.399414,-1.875,0.625,0.25,-1.09518,-0.320976,-0.0841916
5487,6,3,14,18,33,35,30,-7,0.315918,-0.946289,0.399414,-1.875,0.625,0.25,-1.09518,-0.320976,-0.0841916
5487,7,-14,8,-23,-35,-29,-41,31,0.315918,-0.946289,0.399414,-1.875,0.625,0.25,-1.09518,-0.320976,-0.0841916
5488,-16,3,-2,-24,-22,0,34,-36,0.308594,-0.868164,0.455078,-2.875,1.0625,-1.25,-1.0958,-0.320736,-0.0848331
5488,4,-7,-12,-7,-14,-7,-19,28,0.308594,-0.868164,0.455078,-2.875,1.0625,-1.25,-1.0958,-0.320736,-0.0848331
5510,0,-9,-9,38,45,38,23,29,0.308594,-0.868164,0.455078,-2.875,1.0625,-1.25,-1.0958,-0.320736,-0.0848331
5510,3,-7,23,51,56,21,4,24,0.308594,-0.868164,0.455078,-2.875,1.0625,-1.25,-1.0958,-0.320736,-0.0848331
5511,3,3,-4,-20,-41,-18,-33,-45,0.303223,-0.807617,0.490723,2.1875,0.3125,-0.75,-1.09339,-0.320664,-0.0855042
5511,-9,4,-24,-46,-29,-31,3,-2,0.303223,-0.807617,0.490723,2.1875,0.3125,-0.75,-1.09339,-0.320664,-0.0855042
5524,7,-11,7,-31,-51,-39,-33,28,0.303223,-0.807617,0.490723,2.1875,0.3125,-0.75,-1.09339,-0.320664,-0.0855042
5524,-4,2,11,1,13,11,31,3,0.303223,-0.807617,0.490723,2.1875,0.3125,-0.75,-1.09339,-0.320664,-0.0855042
5531,-1,-7,-8,71,51,26,18,-4,0.327148,-0.885742,0.450684,2.625,-2,-0.5625,-1.09274,-0.321064,-0.084894
5531,0,4,-15,-11,5,12,6,-1,0.327148,-0.885742,0.450684,2.625,-2,-0.5625,-1.09274,-0.321064,-0.084894
5547,-1,2,-10,-35,-28,-18,-12,-15,0.327148,-0.885742,0.450684,2.625,-2,-0.5625,-1.09274,-0.321064,-0.084894
5547,-12,1,10,-2,12,28,-23,-51,0.327148,-0.885742,0.450684,2.625,-2,-0.5625,-1.09274,-0.321064,-0.084894
5548,22,0,-16,0,8,8,64,56,0.328613,-0.893555,0.416992,0.375,-1.375,-1.25,-1.09372,-0.321637,-0.084425
5548,6,8,23,72,33,-7,-62,-18,0.328613,-0.893555,0.416992,0.375,-1.375,-1.25,-1.09372,-0.321637,-0.084425
5569,-14,-6,-23,-18,-34,-7,-6,-14,0.328613,-0.893555,0.416992,0.375,-1.375,-1.25,-1.09372,-0.321637,-0.084425
5569,7,-4,-1,-14,13,-16,4,-11,0.328613,-0.893555,0.416992,0.375,-1.375,-1.25,-1.09372,-0.321637,-0.084425
5570,3,8,26,-9,-17,4,-50,18,0.341797,-0.807617,0.447266,4.1875,-0.1875,-0.25,-1.09158,-0.32259,-0.0845876
5570,6,1,-12,-45,-56,2,34,11,0.341797,-0.807617,0.447266,4.1875,-0.1875,-0.25,-1.09158,-0.32259,-0.0845876
5583,3,-9,-7,10,37,-17,-2,-5,0.341797,-0.807617,0.447266,4.1875,-0.1875,-0.25,-1.09158,-0.32259,-0.0845876
5583,6,13,15,46,19,16,5,37,0.341797,-0.807617,0.447266,4.1875,-0.1875,-0.25,-1.09158,-0.32259,-0.0845876
5590,-19,-2,-4,3,4,-7,-39,-55,0.339355,-0.835938,0.430176,1.4375,0,1.125,-1.09117,-0.322816,-0.0843454
5590,0,-9,-1,-36,-46,-27,20,61,0.339355,-0.835938,0.430176,1.4375,0,1.125,-1.09117,-0.322816,-0.0843454
5607,-4,2,-13,-36,-10,-35,-60,-27,0.339355,-0.835938,0.430176,1.4375,0,1.125,-1.09117,-0.322816,-0.0843454
5607,0,-6,-9,30,4,14,0,33,0.339355,-0.835938,0.430176,1.4375,0,1.125,-1.09117,-0.322816,-0.0843454
5608,7,17,8,22,40,34,-2,61,0.270508,-0.893555,0.420898,-3,0.3125,-0.625,-1.09318,-0.321594,-0.0842453
5608,-4,5,10,46,75,30,8,-12,0.270508,-0.893555,0.420898,-3,0.3125,-0.625,-1.09318,-0.321594,-0.0842453
5629,9,-5,18,-10,-18,1,16,66,0.270508,-0.893555,0.420898,-3,0.3125,-0.625,-1.09318,-0.321594,-0.0842453
5629,-9,-2,-17,-67,-93,-18,-15,-37,0.270508,-0.893555,0.420898,-3,0.3125,-0.625,-1.09318,-0.321594,-0.0842453
5631,-1,2,-1,-33,-26,-35,8,-44,0.297363,-0.902832,0.450684,-0.0625,0.0625,-1.125,-1.09339,-0.321004,-0.0844104
5631,-3,-1,3,27,26,15,-6,8,0.297363,-0.902832,0.450684,-0.0625,0.0625,-1.125,-1.09339,-0.321004,-0.0844104
5644,-1,9,4,70,82,36,-3,11,0.297363,-0.902832,0.450684,-0.0625,0.0625,-1.125,-1.09339,-0.321004,-0.0844104
5644,2,12,1,-19,-1,5,24,-42,0.297363,-0.902832,0.450684,-0.0625,0.0625,-1.125,-1.09339,-0.321004,-0.0844104
5650,-13,4,1,-38,-77,-37,-13,-8,0.334961,-0.807617,0.45752,2.8125,-0.25,-0.75,-1.09153,-0.321931,-0.0847018
5650,-7,1,-5,-41,-3,-13,5,-33,0.334961,-0.807617,0.45752,2.8125,-0.25,-0.75,-1.09153,-0.321931,-0.0847018
5667,-3,-5,0,39,40,32,15,-16,0.334961,-0.807617,0.45752,2.8125,-0.25,-0.75,-1.09153,-0.321931,-0.0847018
5667,-5,18,-17,5,-22,-14,42,-67,0.334961,-0.807617,0.45752,2.8125,-0.25,-0.75,-1.09153,-0.321931,-0.0847018
5668,8,7,-9,-23,34,30,-60,54,0.335938,-0.834961,0.460449,-2.125,-0.25,-0.75,-1.09167,-0.322507,-0.0849057
5668,-1,-6,31,41,-3,1,-10,42,0.335938,-0.834961,0.460449,-2.125,-0.25,-0.75,-1.09167,-0.322507,-0.0849057
5689,-4,10,-29,-20,-54,-22,3,-19,0.335938,-0.834961,0.460449,-2.125,-0.25,-0.75,-1.09167,-0.322507,-0.0849057
