0,-9,0,0,-1,-1,1,-1,-2,0.291504,-0.202148,0.896973,-1.4375,0.4375,-1.125,-0.215154,-0.301026,-1.6814
0,-5,2,1,-1,0,1,0,-1,0.291504,-0.202148,0.896973,-1.4375,0.4375,-1.125,-0.215154,-0.301026,-1.6814
5,8,-3,-2,-1,-1,0,-3,-3,0.291504,-0.202148,0.896973,-1.4375,0.4375,-1.125,-0.215154,-0.301026,-1.6814
5,-7,-1,-2,-1,0,-2,0,-3,0.291504,-0.202148,0.896973,-1.4375,0.4375,-1.125,-0.215154,-0.301026,-1.6814
6,3,2,-1,-1,-2,-2,0,0,0.291504,-0.202148,0.896973,-1.4375,0.4375,-1.125,-0.215154,-0.301026,-1.6814
6,-12,4,-3,-1,-1,-3,-3,-3,0.291504,-0.202148,0.896973,-1.4375,0.4375,-1.125,-0.215154,-0.301026,-1.6814
8,-16,-34,-5,-2,0,-1,-2,-4,0.280762,-0.197754,0.89502,0.9375,0.375,-1.125,-0.214763,-0.300867,-1.68178
8,-10,8,0,0,-1,-3,-3,-2,0.280762,-0.197754,0.89502,0.9375,0.375,-1.125,-0.214763,-0.300867,-1.68178
18,1,0,-1,0,-1,-2,-1,1,0.280762,-0.197754,0.89502,0.9375,0.375,-1.125,-0.214763,-0.300867,-1.68178
18,7,10,2,-2,-2,-2,0,0,0.280762,-0.197754,0.89502,0.9375,0.375,-1.125,-0.214763,-0.300867,-1.68178
29,6,7,1,0,-1,-3,0,0,0.28125,-0.188477,0.895508,2.75,-0.3125,-0.4375,-0.213577,-0.300896,-1.68201
29,-4,4,-1,-1,-1,-1,-1,-1,0.28125,-0.188477,0.895508,2.75,-0.3125,-0.4375,-0.213577,-0.300896,-1.68201
33,3,11,0,-4,-1,-1,-1,0,0.28125,-0.188477,0.895508,2.75,-0.3125,-0.4375,-0.213577,-0.300896,-1.68201
33,-1,-23,-4,0,-3,-1,-2,0,0.28125,-0.188477,0.895508,2.75,-0.3125,-0.4375,-0.213577,-0.300896,-1.68201
49,2,0,-1,-1,-2,-2,-1,0,0.277344,-0.189453,0.901855,0.75,-0.625,-0.3125,-0.213577,-0.300896,-1.68201
49,3,-2,0,-3,0,0,0,-1,0.277344,-0.189453,0.901855,0.75,-0.625,-0.3125,-0.213577,-0.300896,-1.68201
56,-4,6,-1,0,2,-1,-3,-2,0.277344,-0.189453,0.901855,0.75,-0.625,-0.3125,-0.213577,-0.300896,-1.68201
56,-4,0,-1,0,-2,0,0,-2,0.277344,-0.189453,0.901855,0.75,-0.625,-0.3125,-0.213577,-0.300896,-1.68201
72,12,8,-1,1,-2,-3,0,1,0.275879,-0.194824,0.892578,-1.25,-0.375,-0.5625,-0.214008,-0.30086,-1.68218
72,15,-7,-4,-1,-2,0,-1,-3,0.275879,-0.194824,0.892578,-1.25,-0.375,-0.5625,-0.214008,-0.30086,-1.68218
78,-9,2,-1,1,0,0,-1,-2,0.275879,-0.194824,0.892578,-1.25,-0.375,-0.5625,-0.214008,-0.30086,-1.68218
78,7,-5,1,-3,-1,0,-1,-1,0.275879,-0.194824,0.892578,-1.25,-0.375,-0.5625,-0.214008,-0.30086,-1.68218
93,1,-2,-2,-2,0,0,-1,0,0.271973,-0.194824,0.894043,-0.75,-0.0625,-0.9375,-0.213918,-0.300765,-1.68218
93,-2,-8,0,0,-2,0,-1,1,0.271973,-0.194824,0.894043,-0.75,-0.0625,-0.9375,-0.213918,-0.300765,-1.68218
134,3,-8,-3,-3,-5,-3,-3,-3,0.28418,-0.198242,0.897461,-0.625,-0.5,-1.1875,-0.213973,-0.301212,-1.68296
134,-4,0,-1,1,-1,-3,0,1,0.28418,-0.198242,0.897461,-0.625,-0.5,-1.1875,-0.213973,-0.301212,-1.68296
135,8,24,1,1,0,0,1,2,0.28418,-0.198242,0.897461,-0.625,-0.5,-1.1875,-0.213973,-0.301212,-1.68296
135,-16,5,2,-2,-1,-1,-2,-2,0.28418,-0.198242,0.897461,-0.625,-0.5,-1.1875,-0.213973,-0.301212,-1.68296
136,3,-9,-5,-3,-2,-2,-1,-1,0.28418,-0.198242,0.897461,-0.625,-0.5,-1.1875,-0.213973,-0.301212,-1.68296
136,9,1,0,1,-1,-1,-1,1,0.28418,-0.198242,0.897461,-0.625,-0.5,-1.1875,-0.213973,-0.301212,-1.68296
138,-2,0,-1,-3,1,1,0,-1,0.28418,-0.198242,0.897461,-0.625,-0.5,-1.1875,-0.213973,-0.301212,-1.68296
138,-19,-5,-3,-2,-1,0,1,-1,0.28418,-0.198242,0.897461,-0.625,-0.5,-1.1875,-0.213973,-0.301212,-1.68296
147,4,-2,0,2,2,2,-1,1,0.293457,-0.20459,0.897461,-3.1875,-0.8125,-1.125,-0.21515,-0.30167,-1.68315
147,5,4,1,0,-2,0,-2,-2,0.293457,-0.20459,0.897461,-3.1875,-0.8125,-1.125,-0.21515,-0.30167,-1.68315
153,-6,-4,-4,0,-5,-3,-5,-4,0.293457,-0.20459,0.897461,-3.1875,-0.8125,-1.125,-0.21515,-0.30167,-1.68315
153,3,4,2,-1,0,-3,-2,-1,0.293457,-0.20459,0.897461,-3.1875,-0.8125,-1.125,-0.21515,-0.30167,-1.68315
170,-5,2,0,0,0,3,15,2,0.290527,-0.205566,0.899414,-4.3125,-0.9375,-1.6875,-0.216641,-0.302195,-1.6837
170,0,-1,-3,-2,0,-4,-14,-1,0.290527,-0.205566,0.899414,-4.3125,-0.9375,-1.6875,-0.216641,-0.302195,-1.6837
176,-3,5,1,-2,1,0,0,1,0.290527,-0.205566,0.899414,-4.3125,-0.9375,-1.6875,-0.216641,-0.302195,-1.6837
176,7,-22,-2,-1,-3,-1,-4,-3,0.290527,-0.205566,0.899414,-4.3125,-0.9375,-1.6875,-0.216641,-0.302195,-1.6837
185,-15,1,-2,-1,-2,-2,2,0,0.291504,-0.204102,0.897949,-3.875,-1,-2,-0.21795,-0.302709,-1.68426
185,-6,-4,-1,-3,0,2,2,-1,0.291504,-0.204102,0.897949,-3.875,-1,-2,-0.21795,-0.302709,-1.68426
207,15,8,0,-4,-2,-2,-2,-2,0.291504,-0.204102,0.897949,-3.875,-1,-2,-0.21795,-0.302709,-1.68426
207,3,4,-3,-2,0,0,-3,-3,0.291504,-0.204102,0.897949,-3.875,-1,-2,-0.21795,-0.302709,-1.68426
209,-4,-6,-3,-5,-1,-3,-5,-4,0.285645,-0.207031,0.895508,-4.3125,-1.375,-2.875,-0.219279,-0.303335,-1.68503
209,-3,-2,-2,-2,0,0,-5,0,0.285645,-0.207031,0.895508,-4.3125,-1.375,-2.875,-0.219279,-0.303335,-1.68503
221,-3,-11,-1,2,-3,-3,-4,2,0.285645,-0.207031,0.895508,-4.3125,-1.375,-2.875,-0.219279,-0.303335,-1.68503
221,16,8,1,3,-1,-1,3,3,0.285645,-0.207031,0.895508,-4.3125,-1.375,-2.875,-0.219279,-0.303335,-1.68503
230,2,2,0,0,2,0,-3,-1,0.275391,-0.216797,0.908203,-5.8125,-1.625,-3.0625,-0.22136,-0.303687,-1.68593
230,5,5,2,-1,-1,1,22,5,0.275391,-0.216797,0.908203,-5.8125,-1.625,-3.0625,-0.22136,-0.303687,-1.68593
245,-11,-6,5,0,0,-4,-33,-3,0.275391,-0.216797,0.908203,-5.8125,-1.625,-3.0625,-0.22136,-0.303687,-1.68593
245,14,-4,-4,-3,0,-2,-13,2,0.275391,-0.216797,0.908203,-5.8125,-1.625,-3.0625,-0.22136,-0.303687,-1.68593
246,-24,-28,-2,-1,-3,-1,12,1,0.279785,-0.231445,0.910645,-10.3125,-2.875,-3.625,-0.225238,-0.304614,-1.68684
246,-18,5,0,-1,-2,0,10,8,0.279785,-0.231445,0.910645,-10.3125,-2.875,-3.625,-0.225238,-0.304614,-1.68684
267,-1,-26,2,2,1,1,8,-11,0.279785,-0.231445,0.910645,-10.3125,-2.875,-3.625,-0.225238,-0.304614,-1.68684
267,1,23,-1,0,2,-2,-3,-3,0.279785,-0.231445,0.910645,-10.3125,-2.875,-3.625,-0.225238,-0.304614,-1.68684
269,-5,9,0,-2,0,-1,-8,0,0.267578,-0.234863,0.902832,-15.5625,-3.5625,-5.625,-0.230708,-0.305648,-1.68829
269,6,2,-1,-1,0,0,-5,-4,0.267578,-0.234863,0.902832,-15.5625,-3.5625,-5.625,-0.230708,-0.305648,-1.68829
281,-2,-10,-7,-2,-2,0,22,2,0.267578,-0.234863,0.902832,-15.5625,-3.5625,-5.625,-0.230708,-0.305648,-1.68829
281,-1,-10,-1,0,-2,-1,-6,-3,0.267578,-0.234863,0.902832,-15.5625,-3.5625,-5.625,-0.230708,-0.305648,-1.68829
290,11,6,-3,-5,-4,-3,8,-1,0.253418,-0.245605,0.912598,-18.875,-4.5625,-7.1875,-0.237249,-0.306584,-1.6903
290,-13,-11,-2,0,1,2,-5,-4,0.253418,-0.245605,0.912598,-18.875,-4.5625,-7.1875,-0.237249,-0.306584,-1.6903
305,10,23,1,-1,1,-1,-3,3,0.253418,-0.245605,0.912598,-18.875,-4.5625,-7.1875,-0.237249,-0.306584,-1.6903
305,-5,-19,-1,1,-2,1,-8,-3,0.253418,-0.245605,0.912598,-18.875,-4.5625,-7.1875,-0.237249,-0.306584,-1.6903
306,-1,-12,-1,-3,-5,-1,24,0,0.267578,-0.25293,0.877441,-21.1875,-6.375,-6.1875,-0.244894,-0.308768,-1.69162
306,7,-13,0,-1,0,-4,-29,-2,0.267578,-0.25293,0.877441,-21.1875,-6.375,-6.1875,-0.244894,-0.308768,-1.69162
328,1,23,-1,-3,-3,-3,-6,0,0.267578,-0.25293,0.877441,-21.1875,-6.375,-6.1875,-0.244894,-0.308768,-1.69162
328,2,1,0,2,0,1,25,18,0.267578,-0.25293,0.877441,-21.1875,-6.375,-6.1875,-0.244894,-0.308768,-1.69162
329,2,10,3,2,0,-2,-10,-15,0.293945,-0.225098,0.856445,-25.75,-2.875,-5.4375,-0.253512,-0.31048,-1.6933
329,-10,-5,0,1,0,0,3,-4,0.293945,-0.225098,0.856445,-25.75,-2.875,-5.4375,-0.253512,-0.31048,-1.6933
341,-10,-22,-7,-1,0,0,-1,-6,0.293945,-0.225098,0.856445,-25.75,-2.875,-5.4375,-0.253512,-0.31048,-1.6933
341,-1,1,-3,1,-3,-1,9,9,0.293945,-0.225098,0.856445,-25.75,-2.875,-5.4375,-0.253512,-0.31048,-1.6933
350,-11,-1,-1,1,1,0,-9,1,0.273926,-0.212891,0.87207,-28.6875,-1.3125,-6.3125,-0.262323,-0.310989,-1.69556
350,19,23,3,-5,-3,-2,10,6,0.273926,-0.212891,0.87207,-28.6875,-1.3125,-6.3125,-0.262323,-0.310989,-1.69556
365,14,7,5,1,0,0,-1,3,0.273926,-0.212891,0.87207,-28.6875,-1.3125,-6.3125,-0.262323,-0.310989,-1.69556
365,-11,-5,-6,-4,-3,-2,-16,-12,0.273926,-0.212891,0.87207,-28.6875,-1.3125,-6.3125,-0.262323,-0.310989,-1.69556
366,-17,-48,-9,-3,0,-3,0,-8,0.277344,-0.249023,0.878418,-25.125,-0.9375,-6.875,-0.270552,-0.311569,-1.69786
366,-8,1,-3,-1,0,2,7,-4,0.277344,-0.249023,0.878418,-25.125,-0.9375,-6.875,-0.270552,-0.311569,-1.69786
387,-12,-18,-5,-4,-2,0,12,3,0.277344,-0.249023,0.878418,-25.125,-0.9375,-6.875,-0.270552,-0.311569,-1.69786
387,19,12,3,-3,2,-1,-16,-1,0.277344,-0.249023,0.878418,-25.125,-0.9375,-6.875,-0.270552,-0.311569,-1.69786
393,-15,8,3,-1,-1,-1,-11,-7,0.307129,-0.259766,0.894531,-22.4375,-0.125,-10.625,-0.277297,-0.312789,-1.70158
393,-8,29,-2,-2,0,-2,-2,-1,0.307129,-0.259766,0.894531,-22.4375,-0.125,-10.625,-0.277297,-0.312789,-1.70158
400,19,19,-2,2,2,0,1,-4,0.307129,-0.259766,0.894531,-22.4375,-0.125,-10.625,-0.277297,-0.312789,-1.70158
400,-19,29,-2,1,1,0,6,-6,0.307129,-0.259766,0.894531,-22.4375,-0.125,-10.625,-0.277297,-0.312789,-1.70158
410,27,47,2,0,-3,-3,3,0,0.320801,-0.258301,0.869629,-15.25,1,-11.625,-0.281396,-0.314132,-1.70574
410,-20,28,-2,-1,-3,0,-13,-3,0.320801,-0.258301,0.869629,-15.25,1,-11.625,-0.281396,-0.314132,-1.70574
425,-4,42,3,0,-2,0,9,2,0.320801,-0.258301,0.869629,-15.25,1,-11.625,-0.281396,-0.314132,-1.70574
425,11,7,0,-2,1,-2,-4,-3,0.320801,-0.258301,0.869629,-15.25,1,-11.625,-0.281396,-0.314132,-1.70574
426,7,0,4,-1,2,5,23,8,0.322266,-0.209961,0.883301,-13.6875,0.5,-12.75,-0.283594,-0.315797,-1.71069
426,-3,-10,-4,-3,-4,-10,-50,-12,0.322266,-0.209961,0.883301,-13.6875,0.5,-12.75,-0.283594,-0.315797,-1.71069
447,2,-29,1,-1,1,3,1,0,0.322266,-0.209961,0.883301,-13.6875,0.5,-12.75,-0.283594,-0.315797,-1.71069
447,-9,-30,1,-2,-2,-1,5,1,0.322266,-0.209961,0.883301,-13.6875,0.5,-12.75,-0.283594,-0.315797,-1.71069
449,-12,-16,-1,-2,-3,-1,-3,6,0.314453,-0.231445,0.910645,-20.25,-1.8125,-12.1875,-0.288423,-0.317732,-1.71511
449,5,-34,2,2,2,2,17,1,0.314453,-0.231445,0.910645,-20.25,-1.8125,-12.1875,-0.288423,-0.317732,-1.71511
461,-11,-2,5,3,1,0,-4,6,0.314453,-0.231445,0.910645,-20.25,-1.8125,-12.1875,-0.288423,-0.317732,-1.71511
461,-36,-37,-9,-3,-4,-1,-3,-9,0.314453,-0.231445,0.910645,-20.25,-1.8125,-12.1875,-0.288423,-0.317732,-1.71511
470,4,7,2,-1,0,-2,-3,4,0.32666,-0.315918,0.925781,-24.375,-2.8125,-13.125,-0.296396,-0.320012,-1.71903
470,8,-15,-3,-1,-2,-1,-4,-1,0.32666,-0.315918,0.925781,-24.375,-2.8125,-13.125,-0.296396,-0.320012,-1.71903
484,3,-5,-2,-2,-4,-5,-2,3,0.32666,-0.315918,0.925781,-24.375,-2.8125,-13.125,-0.296396,-0.320012,-1.71903
484,10,3,5,4,2,3,3,-3,0.32666,-0.315918,0.925781,-24.375,-2.8125,-13.125,-0.296396,-0.320012,-1.71903
486,-7,5,-2,-2,-1,-1,-3,4,0.276367,-0.336426,0.90918,-23.1875,-2.875,-14.6875,-0.304298,-0.321443,-1.72353
486,-10,-16,-1,-2,2,1,0,-3,0.276367,-0.336426,0.90918,-23.1875,-2.875,-14.6875,-0.304298,-0.321443,-1.72353
507,1,-16,-1,-2,2,-1,-4,-4,0.276367,-0.336426,0.90918,-23.1875,-2.875,-14.6875,-0.304298,-0.321443,-1.72353
507,22,3,2,0,-1,1,10,13,0.276367,-0.336426,0.90918,-23.1875,-2.875,-14.6875,-0.304298,-0.321443,-1.72353
509,9,-4,-4,-3,-3,0,4,-13,0.248535,-0.306641,0.881836,-19.1875,-4.5,-16.0625,-0.30995,-0.323114,-1.72846
509,-12,-12,-3,-3,-3,-7,-31,-7,0.248535,-0.306641,0.881836,-19.1875,-4.5,-16.0625,-0.30995,-0.323114,-1.72846
521,-9,-7,0,2,1,2,4,3,0.248535,-0.306641,0.881836,-19.1875,-4.5,-16.0625,-0.30995,-0.323114,-1.72846
521,-1,-14,-6,0,2,4,13,-7,0.248535,-0.306641,0.881836,-19.1875,-4.5,-16.0625,-0.30995,-0.323114,-1.72846
530,-11,-2,-1,2,-2,-4,-33,-4,0.262207,-0.311035,0.856934,-20.0625,-5.75,-16.9375,-0.315894,-0.325751,-1.73347
530,15,-1,4,-2,-3,0,20,10,0.262207,-0.311035,0.856934,-20.0625,-5.75,-16.9375,-0.315894,-0.325751,-1.73347
544,-24,-20,-13,-9,-7,-3,-5,-6,0.262207,-0.311035,0.856934,-20.0625,-5.75,-16.9375,-0.315894,-0.325751,-1.73347
544,-20,16,-3,-3,-2,-2,-37,-15,0.262207,-0.311035,0.856934,-20.0625,-5.75,-16.9375,-0.315894,-0.325751,-1.73347
551,6,-7,0,0,-2,-1,1,3,0.270508,-0.311035,0.849121,-22.125,-6.5625,-15.1875,-0.32292,-0.328712,-1.73794
551,-6,12,2,4,5,6,19,1,0.270508,-0.311035,0.849121,-22.125,-6.5625,-15.1875,-0.32292,-0.328712,-1.73794
567,-9,11,-5,-4,-3,-4,-13,1,0.270508,-0.311035,0.849121,-22.125,-6.5625,-15.1875,-0.32292,-0.328712,-1.73794
567,17,-1,1,-2,-6,-3,5,-4,0.270508,-0.311035,0.849121,-22.125,-6.5625,-15.1875,-0.32292,-0.328712,-1.73794
569,-2,20,2,-1,-1,1,-6,2,0.313965,-0.333496,0.852051,-24.8125,-7.9375,-15,-0.331074,-0.332887,-1.74176
569,-16,-2,-2,-1,-5,-2,19,-1,0.313965,-0.333496,0.852051,-24.8125,-7.9375,-15,-0.331074,-0.332887,-1.74176
581,2,-3,5,4,5,5,7,-2,0.313965,-0.333496,0.852051,-24.8125,-7.9375,-15,-0.331074,-0.332887,-1.74176
581,2,2,0,-3,-2,-6,-15,6,0.313965,-0.333496,0.852051,-24.8125,-7.9375,-15,-0.331074,-0.332887,-1.74176
590,-4,3,-1,1,1,-3,2,5,0.335938,-0.335449,0.824707,-20.5625,-7.125,-16.3125,-0.337779,-0.337702,-1.74637
590,-3,-16,-3,-3,-3,0,9,-3,0.335938,-0.335449,0.824707,-20.5625,-7.125,-16.3125,-0.337779,-0.337702,-1.74637
604,19,1,3,1,-2,0,6,2,0.335938,-0.335449,0.824707,-20.5625,-7.125,-16.3125,-0.337779,-0.337702,-1.74637
604,-13,-11,-5,-4,-8,-6,8,-4,0.335938,-0.335449,0.824707,-20.5625,-7.125,-16.3125,-0.337779,-0.337702,-1.74637
606,-12,-10,-3,2,2,2,-9,-6,0.314941,-0.290527,0.838379,-13.5625,-4.9375,-11.6875,-0.34117,-0.340705,-1.74984
606,4,3,-2,0,3,1,4,-1,0.314941,-0.290527,0.838379,-13.5625,-4.9375,-11.6875,-0.34117,-0.340705,-1.74984
627,-13,-9,-3,-2,-1,-3,-1,-8,0.314941,-0.290527,0.838379,-13.5625,-4.9375,-11.6875,-0.34117,-0.340705,-1.74984
627,12,9,2,0,0,-5,-18,-5,0.314941,-0.290527,0.838379,-13.5625,-4.9375,-11.6875,-0.34117,-0.340705,-1.74984
628,19,8,2,-2,-4,-2,-3,9,0.304688,-0.292969,0.851562,-11,-6.6875,-11.375,-0.343699,-0.343756,-1.75309
628,14,-2,3,1,3,1,8,3,0.304688,-0.292969,0.851562,-11,-6.6875,-11.375,-0.343699,-0.343756,-1.75309
641,-17,5,2,1,-1,1,3,-5,0.304688,-0.292969,0.851562,-11,-6.6875,-11.375,-0.343699,-0.343756,-1.75309
641,-1,-1,-1,0,3,1,4,18,0.304688,-0.292969,0.851562,-11,-6.6875,-11.375,-0.343699,-0.343756,-1.75309
650,0,5,0,-1,-1,0,-6,-2,0.333008,-0.361816,0.87207,-10.4375,-8.6875,-8.5625,-0.347697,-0.347384,-1.75461
650,2,4,0,-2,-2,1,24,5,0.333008,-0.361816,0.87207,-10.4375,-8.6875,-8.5625,-0.347697,-0.347384,-1.75461
663,-1,-3,-3,-4,-4,-6,-16,-2,0.333008,-0.361816,0.87207,-10.4375,-8.6875,-8.5625,-0.347697,-0.347384,-1.75461
663,21,1,0,-2,-3,5,35,-1,0.333008,-0.361816,0.87207,-10.4375,-8.6875,-8.5625,-0.347697,-0.347384,-1.75461
672,3,7,1,0,-4,-5,-1,-2,0.324707,-0.349121,0.873047,-15.25,-10.5,-9.375,-0.353099,-0.351566,-1.7562
672,-10,-1,-2,-3,-2,-1,-9,6,0.324707,-0.349121,0.873047,-15.25,-10.5,-9.375,-0.353099,-0.351566,-1.7562
687,9,-8,-4,-5,-7,-5,0,-16,0.324707,-0.349121,0.873047,-15.25,-10.5,-9.375,-0.353099,-0.351566,-1.7562
687,-41,-27,-3,-1,3,3,-3,-5,0.324707,-0.349121,0.873047,-15.25,-10.5,-9.375,-0.353099,-0.351566,-1.7562
688,8,34,4,0,1,-2,-3,-8,0.277832,-0.344238,0.858398,-9.875,-11.4375,-9.625,-0.356479,-0.354906,-1.75789
688,8,0,2,3,0,1,-2,-12,0.277832,-0.344238,0.858398,-9.875,-11.4375,-9.625,-0.356479,-0.354906,-1.75789
701,0,3,3,4,1,-1,-9,13,0.277832,-0.344238,0.858398,-9.875,-11.4375,-9.625,-0.356479,-0.354906,-1.75789
701,-15,-27,-2,-1,0,0,9,-3,0.277832,-0.344238,0.858398,-9.875,-11.4375,-9.625,-0.356479,-0.354906,-1.75789
710,-7,-5,0,0,5,1,-11,-8,0.278809,-0.352539,0.847168,-5.9375,-12.3125,-8,-0.358981,-0.358428,-1.75875
710,21,17,-5,-4,-9,-6,7,-7,0.278809,-0.352539,0.847168,-5.9375,-12.3125,-8,-0.358981,-0.358428,-1.75875
724,-1,17,-2,-2,-4,0,-5,3,0.278809,-0.352539,0.847168,-5.9375,-12.3125,-8,-0.358981,-0.358428,-1.75875
724,-17,18,-2,0,1,-3,2,-6,0.278809,-0.352539,0.847168,-5.9375,-12.3125,-8,-0.358981,-0.358428,-1.75875
731,-5,-3,-3,-5,-4,-2,0,-8,0.29541,-0.333984,0.816895,-6.625,-13.9375,-4.6875,-0.361938,-0.362574,-1.75841
731,-11,0,-3,1,2,1,-14,-7,0.29541,-0.333984,0.816895,-6.625,-13.9375,-4.6875,-0.361938,-0.362574,-1.75841
747,11,0,0,-1,0,1,4,3,0.29541,-0.333984,0.816895,-6.625,-13.9375,-4.6875,-0.361938,-0.362574,-1.75841
747,31,7,-3,-4,-5,-6,-2,1,0.29541,-0.333984,0.816895,-6.625,-13.9375,-4.6875,-0.361938,-0.362574,-1.75841
749,-11,18,-2,0,-3,-1,3,-1,0.323242,-0.34668,0.806152,-7.0625,-16.5,-5,-0.365507,-0.368219,-1.75755
749,-15,3,0,0,0,0,-20,-13,0.323242,-0.34668,0.806152,-7.0625,-16.5,-5,-0.365507,-0.368219,-1.75755
770,-18,-9,-5,-3,2,-2,21,16,0.323242,-0.34668,0.806152,-7.0625,-16.5,-5,-0.365507,-0.368219,-1.75755
770,5,7,3,3,2,-2,-10,1,0.323242,-0.34668,0.806152,-7.0625,-16.5,-5,-0.365507,-0.368219,-1.75755
771,-10,-16,-2,1,5,4,24,6,0.361816,-0.33252,0.810059,-7.375,-14.9375,-5,-0.368561,-0.374152,-1.7571
771,-25,-7,-3,-5,-3,-9,-45,-1,0.361816,-0.33252,0.810059,-7.375,-14.9375,-5,-0.368561,-0.374152,-1.7571
785,5,-9,-3,-3,-2,-1,-5,-18,0.361816,-0.33252,0.810059,-7.375,-14.9375,-5,-0.368561,-0.374152,-1.7571
785,26,4,3,1,-4,-1,-10,-6,0.361816,-0.33252,0.810059,-7.375,-14.9375,-5,-0.368561,-0.374152,-1.7571
786,-13,-13,-2,0,-1,-2,5,16,0.36084,-0.285156,0.806641,-8.6875,-12.875,-6.9375,-0.370688,-0.37972,-1.75804
786,0,2,2,3,1,2,9,4,0.36084,-0.285156,0.806641,-8.6875,-12.875,-6.9375,-0.370688,-0.37972,-1.75804
806,-13,-6,0,2,0,-2,3,8,0.36084,-0.285156,0.806641,-8.6875,-12.875,-6.9375,-0.370688,-0.37972,-1.75804
806,20,4,2,3,3,-2,-19,-4,0.36084,-0.285156,0.806641,-8.6875,-12.875,-6.9375,-0.370688,-0.37972,-1.75804
808,7,-5,-5,-4,-7,-3,-8,-6,0.342285,-0.270996,0.813477,-14.25,-11.5,-7.1875,-0.374169,-0.384214,-1.75941
808,-8,-2,-3,-2,1,0,-13,7,0.342285,-0.270996,0.813477,-14.25,-11.5,-7.1875,-0.374169,-0.384214,-1.75941
829,13,-2,-3,-2,0,-1,-6,-1,0.342285,-0.270996,0.813477,-14.25,-11.5,-7.1875,-0.374169,-0.384214,-1.75941
829,-28,1,-2,-1,2,2,7,1,0.342285,-0.270996,0.813477,-14.25,-11.5,-7.1875,-0.374169,-0.384214,-1.75941
830,-20,-7,0,2,4,1,6,-4,0.352051,-0.328613,0.847656,-19.1875,-11.75,-9,-0.38001,-0.388653,-1.76109
830,-15,-13,-4,-3,-2,5,29,20,0.352051,-0.328613,0.847656,-19.1875,-11.75,-9,-0.38001,-0.388653,-1.76109
843,14,3,3,-1,0,0,4,-15,0.352051,-0.328613,0.847656,-19.1875,-11.75,-9,-0.38001,-0.388653,-1.76109
843,38,9,4,-7,-8,-12,-3,8,0.352051,-0.328613,0.847656,-19.1875,-11.75,-9,-0.38001,-0.388653,-1.76109
850,-13,15,-4,-5,-1,-3,-22,-12,0.365234,-0.353516,0.851562,-15.375,-10.875,-9.25,-0.384898,-0.393062,-1.76274
850,39,1,-4,-8,-6,-7,8,1,0.365234,-0.353516,0.851562,-15.375,-10.875,-9.25,-0.384898,-0.393062,-1.76274
866,-28,-1,-4,2,5,3,-12,-1,0.365234,-0.353516,0.851562,-15.375,-10.875,-9.25,-0.384898,-0.393062,-1.76274
866,-16,-11,-6,1,-1,2,-9,-19,0.365234,-0.353516,0.851562,-15.375,-10.875,-9.25,-0.384898,-0.393062,-1.76274
868,-1,-9,0,-2,-6,-5,-6,-12,0.371582,-0.297363,0.849609,-11.75,-10.875,-8.625,-0.387182,-0.397565,-1.76472
868,9,-6,7,2,-1,-3,-7,7,0.371582,-0.297363,0.849609,-11.75,-10.875,-8.625,-0.387182,-0.397565,-1.76472
890,0,-24,-9,-5,-6,-1,13,1,0.371582,-0.297363,0.849609,-11.75,-10.875,-8.625,-0.387182,-0.397565,-1.76472
890,14,18,0,-1,0,0,1,4,0.371582,-0.297363,0.849609,-11.75,-10.875,-8.625,-0.387182,-0.397565,-1.76472
891,7,4,3,0,0,1,1,-5,0.384766,-0.288574,0.82959,-13.125,-10.3125,-8.75,-0.389856,-0.402239,-1.76677
891,-1,6,3,1,-2,1,-1,-7,0.384766,-0.288574,0.82959,-13.125,-10.3125,-8.75,-0.389856,-0.402239,-1.76677
903,37,10,8,1,-1,-7,-28,1,0.384766,-0.288574,0.82959,-13.125,-10.3125,-8.75,-0.389856,-0.402239,-1.76677
903,-27,-4,-1,4,5,2,23,-11,0.384766,-0.288574,0.82959,-13.125,-10.3125,-8.75,-0.389856,-0.402239,-1.76677
910,14,-10,-4,-1,-2,-1,-12,7,0.40918,-0.313477,0.834961,-14.0625,-8.125,-6.5,-0.39353,-0.406293,-1.76818
910,-18,-10,-4,1,2,0,2,-2,0.40918,-0.313477,0.834961,-14.0625,-8.125,-6.5,-0.39353,-0.406293,-1.76818
926,-12,8,2,2,2,6,18,13,0.40918,-0.313477,0.834961,-14.0625,-8.125,-6.5,-0.39353,-0.406293,-1.76818
926,12,-4,-3,-4,-7,-5,-12,-16,0.40918,-0.313477,0.834961,-14.0625,-8.125,-6.5,-0.39353,-0.406293,-1.76818
928,-11,-5,-4,-2,-2,-4,3,-5,0.393555,-0.299805,0.822266,-5.9375,-6.1875,-4.3125,-0.394277,-0.409138,-1.7692
928,-10,-3,-3,-2,2,-1,-2,-2,0.393555,-0.299805,0.822266,-5.9375,-6.1875,-4.3125,-0.394277,-0.409138,-1.7692
950,-8,-2,-1,-3,-3,-4,12,-12,0.393555,-0.299805,0.822266,-5.9375,-6.1875,-4.3125,-0.394277,-0.409138,-1.7692
950,-28,-24,-4,-1,3,1,8,9,0.393555,-0.299805,0.822266,-5.9375,-6.1875,-4.3125,-0.394277,-0.409138,-1.7692
951,2,-6,1,-1,-1,-2,-22,1,0.418945,-0.291504,0.819336,-8.125,-5.6875,-4.625,-0.395449,-0.412472,-1.77051
951,-8,-14,-6,-3,-3,-3,2,-3,0.418945,-0.291504,0.819336,-8.125,-5.6875,-4.625,-0.395449,-0.412472,-1.77051
963,4,2,1,0,-2,1,-8,1,0.418945,-0.291504,0.819336,-8.125,-5.6875,-4.625,-0.395449,-0.412472,-1.77051
963,-9,7,-2,-3,-1,-2,7,-7,0.418945,-0.291504,0.819336,-8.125,-5.6875,-4.625,-0.395449,-0.412472,-1.77051
971,-8,7,1,-1,-1,3,16,15,0.437012,-0.318848,0.835449,-8.3125,-4.1875,-4.75,-0.397105,-0.415428,-1.77181
971,62,16,6,1,-4,-3,-1,12,0.437012,-0.318848,0.835449,-8.3125,-4.1875,-4.75,-0.397105,-0.415428,-1.77181
987,15,11,6,2,-3,-8,-27,-10,0.437012,-0.318848,0.835449,-8.3125,-4.1875,-4.75,-0.397105,-0.415428,-1.77181
987,-25,-3,0,4,5,5,-2,2,0.437012,-0.318848,0.835449,-8.3125,-4.1875,-4.75,-0.397105,-0.415428,-1.77181
989,-18,-5,0,5,5,5,6,2,0.424316,-0.322754,0.837891,-5.6875,-2.625,-4.875,-0.397874,-0.417427,-1.77344
989,31,9,2,1,-7,-3,-1,-2,0.424316,-0.322754,0.837891,-5.6875,-2.625,-4.875,-0.397874,-0.417427,-1.77344
1010,-28,-6,0,3,3,4,12,2,0.424316,-0.322754,0.837891,-5.6875,-2.625,-4.875,-0.397874,-0.417427,-1.77344
1010,-4,3,2,1,1,1,8,13,0.424316,-0.322754,0.837891,-5.6875,-2.625,-4.875,-0.397874,-0.417427,-1.77344
1011,2,-9,-1,-10,-5,-8,-1,-5,0.408691,-0.304199,0.833008,-1.8125,-2.1875,-3.3125,-0.397074,-0.41896,-1.77478
1011,-37,-11,-6,-2,-2,-6,-41,-10,0.408691,-0.304199,0.833008,-1.8125,-2.1875,-3.3125,-0.397074,-0.41896,-1.77478
1025,8,-7,-3,-3,-3,0,23,0,0.408691,-0.304199,0.833008,-1.8125,-2.1875,-3.3125,-0.397074,-0.41896,-1.77478
1025,6,2,1,0,-1,-1,-8,3,0.408691,-0.304199,0.833008,-1.8125,-2.1875,-3.3125,-0.397074,-0.41896,-1.77478
1031,-21,-4,-2,-3,-4,0,13,-6,0.41748,-0.303223,0.822754,-1.375,-1.625,-1.25,-0.396434,-0.420188,-1.77546
1031,-19,-3,-3,1,-2,-1,-1,0,0.41748,-0.303223,0.822754,-1.375,-1.625,-1.25,-0.396434,-0.420188,-1.77546
1047,24,7,1,0,-6,-7,-15,-2,0.41748,-0.303223,0.822754,-1.375,-1.625,-1.25,-0.396434,-0.420188,-1.77546
1047,32,-10,-9,-5,-5,-3,-10,-3,0.41748,-0.303223,0.822754,-1.375,-1.625,-1.25,-0.396434,-0.420188,-1.77546
1049,59,3,1,-1,-2,-2,10,3,0.401855,-0.32666,0.814941,-6.0625,-1.6875,-1.25,-0.398038,-0.421125,-1.77579
1049,-7,-5,1,-2,2,2,9,-8,0.401855,-0.32666,0.814941,-6.0625,-1.6875,-1.25,-0.398038,-0.421125,-1.77579
1069,-1,23,2,-1,2,1,11,3,0.401855,-0.32666,0.814941,-6.0625,-1.6875,-1.25,-0.398038,-0.421125,-1.77579
1069,-38,-9,-7,-2,2,2,14,3,0.401855,-0.32666,0.814941,-6.0625,-1.6875,-1.25,-0.398038,-0.421125,-1.77579
1071,-22,-6,3,8,4,1,-11,6,0.407227,-0.348633,0.803711,-3.9375,-1.5,-1.9375,-0.399349,-0.422115,-1.77613
1071,9,16,2,0,2,-1,6,1,0.407227,-0.348633,0.803711,-3.9375,-1.5,-1.9375,-0.399349,-0.422115,-1.77613
1084,-48,-14,-8,-6,-1,-2,-27,2,0.407227,-0.348633,0.803711,-3.9375,-1.5,-1.9375,-0.399349,-0.422115,-1.77613
1084,5,-1,0,-2,-1,0,6,-11,0.407227,-0.348633,0.803711,-3.9375,-1.5,-1.9375,-0.399349,-0.422115,-1.77613
1091,-10,0,-1,0,1,5,18,-7,0.417969,-0.335449,0.818359,-0.0625,0.1875,-2.3125,-0.398766,-0.422768,-1.77701
1091,-30,6,3,1,2,-1,-22,-4,0.417969,-0.335449,0.818359,-0.0625,0.1875,-2.3125,-0.398766,-0.422768,-1.77701
1105,-14,-12,-8,-5,-4,-1,42,-13,0.417969,-0.335449,0.818359,-0.0625,0.1875,-2.3125,-0.398766,-0.422768,-1.77701
1105,-23,-4,-3,-3,-2,-2,-4,2,0.417969,-0.335449,0.818359,-0.0625,0.1875,-2.3125,-0.398766,-0.422768,-1.77701
1115,-1,9,2,0,1,-1,-1,7,0.411133,-0.317871,0.803711,-3.8125,1.5625,-3,-0.399189,-0.423169,-1.77853
1115,43,2,-2,-4,-2,-2,-8,-10,0.411133,-0.317871,0.803711,-3.8125,1.5625,-3,-0.399189,-0.423169,-1.77853
1130,-19,-6,-5,1,6,2,-8,-3,0.411133,-0.317871,0.803711,-3.8125,1.5625,-3,-0.399189,-0.423169,-1.77853
1130,31,11,0,-6,-10,-7,-3,-4,0.411133,-0.317871,0.803711,-3.8125,1.5625,-3,-0.399189,-0.423169,-1.77853
1131,-45,-8,-6,1,1,1,-8,-3,0.397461,-0.327148,0.817383,-10.3125,1.9375,-3.8125,-0.401562,-0.423024,-1.78034
1131,0,-5,-3,1,1,7,30,-1,0.397461,-0.327148,0.817383,-10.3125,1.9375,-3.8125,-0.401562,-0.423024,-1.78034
1152,44,-2,5,4,1,-2,5,7,0.397461,-0.327148,0.817383,-10.3125,1.9375,-3.8125,-0.401562,-0.423024,-1.78034
1152,-10,6,-2,-4,0,-3,-8,5,0.397461,-0.327148,0.817383,-10.3125,1.9375,-3.8125,-0.401562,-0.423024,-1.78034
1154,21,1,1,-4,-7,-6,-18,-8,0.387207,-0.370605,0.818359,-10.375,0.9375,-3.875,-0.404954,-0.422941,-1.78174
1154,-15,4,0,2,3,4,7,-14,0.387207,-0.370605,0.818359,-10.375,0.9375,-3.875,-0.404954,-0.422941,-1.78174
1166,0,-12,-4,-3,0,-1,-11,8,0.387207,-0.370605,0.818359,-10.375,0.9375,-3.875,-0.404954,-0.422941,-1.78174
1166,28,17,9,3,2,1,13,16,0.387207,-0.370605,0.818359,-10.375,0.9375,-3.875,-0.404954,-0.422941,-1.78174
1175,63,9,2,-5,-7,-6,2,-18,0.406738,-0.355469,0.808105,-9.9375,1.4375,-3.6875,-0.408022,-0.423099,-1.78318
1175,-26,-5,-4,0,-2,0,2,-3,0.406738,-0.355469,0.808105,-9.9375,1.4375,-3.6875,-0.408022,-0.423099,-1.78318
1190,-13,10,2,5,2,5,-11,3,0.406738,-0.355469,0.808105,-9.9375,1.4375,-3.6875,-0.408022,-0.423099,-1.78318
1190,63,3,5,-1,-6,-4,-8,-9,0.406738,-0.355469,0.808105,-9.9375,1.4375,-3.6875,-0.408022,-0.423099,-1.78318
1191,-40,-21,-4,-2,-1,1,3,-3,0.382812,-0.354492,0.80127,-11.1875,3.0625,-3.8125,-0.411284,-0.422471,-1.78499
1191,-13,-23,-3,-1,1,-2,-5,-1,0.382812,-0.354492,0.80127,-11.1875,3.0625,-3.8125,-0.411284,-0.422471,-1.78499
1212,20,-9,-1,-1,-5,-4,-10,9,0.382812,-0.354492,0.80127,-11.1875,3.0625,-3.8125,-0.411284,-0.422471,-1.78499
1212,-20,-15,3,3,0,2,12,-6,0.382812,-0.354492,0.80127,-11.1875,3.0625,-3.8125,-0.411284,-0.422471,-1.78499
1213,33,42,7,2,3,4,12,15,0.375,-0.382324,0.816406,-15.375,3.4375,-4.9375,-0.416245,-0.421328,-1.78691
1213,-30,25,-2,-5,-2,-1,28,12,0.375,-0.382324,0.816406,-15.375,3.4375,-4.9375,-0.416245,-0.421328,-1.78691
1226,-16,40,1,-1,0,-4,-18,-28,0.375,-0.382324,0.816406,-15.375,3.4375,-4.9375,-0.416245,-0.421328,-1.78691
1226,-9,18,-1,-1,-2,-4,-21,1,0.375,-0.382324,0.816406,-15.375,3.4375,-4.9375,-0.416245,-0.421328,-1.78691
1235,-36,19,-6,1,2,2,-3,3,0.38623,-0.416504,0.822754,-15.0625,3.25,-6.25,-0.421514,-0.420668,-1.78911
1235,10,6,0,0,-4,-2,-1,5,0.38623,-0.416504,0.822754,-15.0625,3.25,-6.25,-0.421514,-0.420668,-1.78911
1249,28,0,1,-1,3,2,7,9,0.38623,-0.416504,0.822754,-15.0625,3.25,-6.25,-0.421514,-0.420668,-1.78911
1249,11,22,-4,-4,-4,-4,-36,-18,0.38623,-0.416504,0.822754,-15.0625,3.25,-6.25,-0.421514,-0.420668,-1.78911
1250,-9,-26,-4,-3,0,-2,23,10,0.389648,-0.377441,0.817871,-12.125,3.4375,-4.6875,-0.425022,-0.419898,-1.7912
1250,9,-6,-1,-1,-4,-3,-6,-1,0.389648,-0.377441,0.817871,-12.125,3.4375,-4.6875,-0.425022,-0.419898,-1.7912
1272,-11,-35,-2,-1,-4,2,-1,-7,0.389648,-0.377441,0.817871,-12.125,3.4375,-4.6875,-0.425022,-0.419898,-1.7912
1272,-3,-5,-5,4,1,3,19,22,0.389648,-0.377441,0.817871,-12.125,3.4375,-4.6875,-0.425022,-0.419898,-1.7912
1274,13,4,4,0,-4,-5,-35,6,0.381348,-0.359863,0.806641,-13.1875,3.625,-2.5625,-0.428793,-0.418903,-1.7929
1274,-2,-16,-4,3,3,2,-4,-9,0.381348,-0.359863,0.806641,-13.1875,3.625,-2.5625,-0.428793,-0.418903,-1.7929
1294,-14,-18,-6,-7,-5,-3,2,1,0.381348,-0.359863,0.806641,-13.1875,3.625,-2.5625,-0.428793,-0.418903,-1.7929
1294,4,-22,-7,-1,1,1,23,0,0.381348,-0.359863,0.806641,-13.1875,3.625,-2.5625,-0.428793,-0.418903,-1.7929
1296,3,-4,-2,-1,-5,-5,-7,-8,0.388184,-0.380859,0.806152,-10.8125,4.5,-0.4375,-0.432395,-0.417315,-1.79371
1296,19,-9,-2,-1,-1,-1,4,0,0.388184,-0.380859,0.806152,-10.8125,4.5,-0.4375,-0.432395,-0.417315,-1.79371
1309,33,-4,3,0,-1,2,-10,1,0.388184,-0.380859,0.806152,-10.8125,4.5,-0.4375,-0.432395,-0.417315,-1.79371
1309,-49,-26,-8,-8,-2,-3,-8,7,0.388184,-0.380859,0.806152,-10.8125,4.5,-0.4375,-0.432395,-0.417315,-1.79371
1310,-1,-6,-1,-1,-1,-1,-8,-22,0.396973,-0.37793,0.790039,-4.625,4.8125,1.0625,-0.434093,-0.415836,-1.79397
1310,3,-5,2,1,3,1,-8,1,0.396973,-0.37793,0.790039,-4.625,4.8125,1.0625,-0.434093,-0.415836,-1.79397
1332,-15,6,-2,5,5,8,23,5,0.396973,-0.37793,0.790039,-4.625,4.8125,1.0625,-0.434093,-0.415836,-1.79397
1332,-4,7,2,-1,-6,-7,-44,-9,0.396973,-0.37793,0.790039,-4.625,4.8125,1.0625,-0.434093,-0.415836,-1.79397
1334,2,-10,1,-2,-2,-2,-5,9,0.40332,-0.339355,0.782227,-2.25,2.8125,1.125,-0.434353,-0.415299,-1.79418
1334,-12,4,-2,0,-3,3,44,-17,0.40332,-0.339355,0.782227,-2.25,2.8125,1.125,-0.434353,-0.415299,-1.79418
1355,45,19,4,2,1,-4,-33,0,0.40332,-0.339355,0.782227,-2.25,2.8125,1.125,-0.434353,-0.415299,-1.79418
1355,-54,4,-2,-3,1,0,3,-1,0.40332,-0.339355,0.782227,-2.25,2.8125,1.125,-0.434353,-0.415299,-1.79418
1356,28,-7,-9,-7,-3,-3,-8,-3,0.408203,-0.345703,0.766602,-3.125,0.625,1.25,-0.435276,-0.415769,-1.79404
1356,-5,-7,-7,-5,-5,-4,-31,-11,0.408203,-0.345703,0.766602,-3.125,0.625,1.25,-0.435276,-0.415769,-1.79404
1370,-16,-4,0,6,6,4,16,6,0.408203,-0.345703,0.766602,-3.125,0.625,1.25,-0.435276,-0.415769,-1.79404
1370,-9,-1,2,-1,-1,-2,4,-5,0.408203,-0.345703,0.766602,-3.125,0.625,1.25,-0.435276,-0.415769,-1.79404
1371,10,-1,-2,-3,-3,1,0,4,0.41748,-0.333008,0.760742,-1.25,-0.8125,-0.375,-0.435253,-0.417141,-1.79411
1371,58,25,9,-1,-3,-6,-6,8,0.41748,-0.333008,0.760742,-1.25,-0.8125,-0.375,-0.435253,-0.417141,-1.79411
1392,-24,2,2,1,2,2,5,2,0.41748,-0.333008,0.760742,-1.25,-0.8125,-0.375,-0.435253,-0.417141,-1.79411
1392,5,-12,-11,-8,-9,-8,-14,-18,0.41748,-0.333008,0.760742,-1.25,-0.8125,-0.375,-0.435253,-0.417141,-1.79411
1394,-4,-10,-2,1,-3,-1,8,3,0.410645,-0.352539,0.780273,0.375,-0.75,-0.75,-0.435122,-0.4174,-1.79413
1394,-1,-11,0,-4,-2,-5,-36,1,0.410645,-0.352539,0.780273,0.375,-0.75,-0.75,-0.435122,-0.4174,-1.79413
1413,0,8,2,1,0,0,5,1,0.410645,-0.352539,0.780273,0.375,-0.75,-0.75,-0.435122,-0.4174,-1.79413
1413,0,-5,1,1,-1,0,-2,3,0.410645,-0.352539,0.780273,0.375,-0.75,-0.75,-0.435122,-0.4174,-1.79413
1416,2,6,-2,-3,-3,-2,0,-1,0.413574,-0.376465,0.784668,2.75,-0.5,-0.375,-0.434437,-0.418103,-1.79412
1416,1,-3,0,2,-2,-2,-19,11,0.413574,-0.376465,0.784668,2.75,-0.5,-0.375,-0.434437,-0.418103,-1.79412
1428,9,1,-1,0,-3,-2,25,-19,0.413574,-0.376465,0.784668,2.75,-0.5,-0.375,-0.434437,-0.418103,-1.79412
1428,-22,-2,-1,1,3,4,-1,0,0.413574,-0.376465,0.784668,2.75,-0.5,-0.375,-0.434437,-0.418103,-1.79412
1443,-7,-14,-3,2,-1,-1,-4,-1,0.414062,-0.364746,0.797363,4,-0.25,0.0625,-0.432965,-0.418751,-1.79404
1443,-1,6,0,0,0,-2,-1,7,0.414062,-0.364746,0.797363,4,-0.25,0.0625,-0.432965,-0.418751,-1.79404
1451,7,4,3,1,3,3,-3,5,0.414062,-0.364746,0.797363,4,-0.25,0.0625,-0.432965,-0.418751,-1.79404
1451,-8,-3,-2,1,0,2,12,2,0.414062,-0.364746,0.797363,4,-0.25,0.0625,-0.432965,-0.418751,-1.79404
1453,-7,1,4,-1,0,-1,2,-1,0.404297,-0.34375,0.794922,8.5625,-0.1875,1.1875,-0.429583,-0.418989,-1.79384
1453,14,0,3,2,0,1,10,-3,0.404297,-0.34375,0.794922,8.5625,-0.1875,1.1875,-0.429583,-0.418989,-1.79384
1474,-22,-13,-6,-4,-6,-7,-12,-3,0.404297,-0.34375,0.794922,8.5625,-0.1875,1.1875,-0.429583,-0.418989,-1.79384
1474,-4,-8,-1,0,-1,-1,8,-1,0.404297,-0.34375,0.794922,8.5625,-0.1875,1.1875,-0.429583,-0.418989,-1.79384
1475,-1,-6,1,-1,1,1,-7,1,0.398926,-0.345703,0.795898,11.8125,-1.1875,1.875,-0.425418,-0.41934,-1.79315
1475,-2,10,-5,-3,-5,-1,5,-2,0.398926,-0.345703,0.795898,11.8125,-1.1875,1.875,-0.425418,-0.41934,-1.79315
1489,0,-22,-4,-5,-4,-1,-3,-1,0.398926,-0.345703,0.795898,11.8125,-1.1875,1.875,-0.425418,-0.41934,-1.79315
1489,14,-24,3,-2,0,0,-2,6,0.398926,-0.345703,0.795898,11.8125,-1.1875,1.875,-0.425418,-0.41934,-1.79315
1495,15,-3,-5,-2,1,-1,-1,-6,0.414551,-0.365234,0.800293,12.4375,-2.125,4.1875,-0.422006,-0.419889,-1.79124
1495,-24,4,1,0,1,1,6,-1,0.414551,-0.365234,0.800293,12.4375,-2.125,4.1875,-0.422006,-0.419889,-1.79124
1512,0,-5,-10,-4,-6,-4,-7,0,0.414551,-0.365234,0.800293,12.4375,-2.125,4.1875,-0.422006,-0.419889,-1.79124
1512,7,-5,-4,1,-2,1,16,-13,0.414551,-0.365234,0.800293,12.4375,-2.125,4.1875,-0.422006,-0.419889,-1.79124
1513,-2,-3,0,0,-1,0,-9,-1,0.411621,-0.348145,0.79248,19.4375,-0.8125,7.0625,-0.416205,-0.419759,-1.78874
1513,6,0,2,-6,0,-3,6,-2,0.411621,-0.348145,0.79248,19.4375,-0.8125,7.0625,-0.416205,-0.419759,-1.78874
1534,-18,-2,-4,-3,-2,-3,-10,-4,0.411621,-0.348145,0.79248,19.4375,-0.8125,7.0625,-0.416205,-0.419759,-1.78874
1534,5,12,0,1,-1,-2,5,2,0.411621,-0.348145,0.79248,19.4375,-0.8125,7.0625,-0.416205,-0.419759,-1.78874
1535,-11,31,2,4,3,2,-7,1,0.408691,-0.32373,0.771973,19.8125,0.1875,10.875,-0.410471,-0.419011,-1.78498
1535,-11,8,-2,-2,-1,-1,6,-6,0.408691,-0.32373,0.771973,19.8125,0.1875,10.875,-0.410471,-0.419011,-1.78498
1548,-4,9,-2,0,-2,-3,2,2,0.408691,-0.32373,0.771973,19.8125,0.1875,10.875,-0.410471,-0.419011,-1.78498
1548,4,14,4,1,0,-1,-2,2,0.408691,-0.32373,0.771973,19.8125,0.1875,10.875,-0.410471,-0.419011,-1.78498
1557,16,1,3,1,0,0,-2,2,0.389648,-0.349121,0.786621,19.5,2.1875,12.5625,-0.405584,-0.416597,-1.78077
1557,34,1,3,-2,-2,-3,-1,6,0.389648,-0.349121,0.786621,19.5,2.1875,12.5625,-0.405584,-0.416597,-1.78077
1572,11,-13,-6,-4,3,-1,-6,-4,0.389648,-0.349121,0.786621,19.5,2.1875,12.5625,-0.405584,-0.416597,-1.78077
1572,84,11,-1,1,0,2,-2,-2,0.389648,-0.349121,0.786621,19.5,2.1875,12.5625,-0.405584,-0.416597,-1.78077
1573,23,-4,-2,0,0,-1,2,2,0.373535,-0.322754,0.785156,16.875,4.4375,11.75,-0.400867,-0.413649,-1.77758
1573,16,-3,-1,-1,-1,-2,1,-1,0.373535,-0.322754,0.785156,16.875,4.4375,11.75,-0.400867,-0.413649,-1.77758
1594,-11,8,3,-2,-4,-3,-1,1,0.373535,-0.322754,0.785156,16.875,4.4375,11.75,-0.400867,-0.413649,-1.77758
1594,-39,-1,1,1,0,-2,-7,2,0.373535,-0.322754,0.785156,16.875,4.4375,11.75,-0.400867,-0.413649,-1.77758
1596,-43,-1,-3,-3,-2,-1,6,-1,0.38623,-0.327637,0.778809,13.8125,7.1875,14.6875,-0.397604,-0.409818,-1.77341
1596,-36,-6,-2,0,1,0,0,-2,0.38623,-0.327637,0.778809,13.8125,7.1875,14.6875,-0.397604,-0.409818,-1.77341
1608,30,7,2,-1,-4,-4,-3,0,0.38623,-0.327637,0.778809,13.8125,7.1875,14.6875,-0.397604,-0.409818,-1.77341
1608,-22,-2,0,-2,-2,1,-1,1,0.38623,-0.327637,0.778809,13.8125,7.1875,14.6875,-0.397604,-0.409818,-1.77341
1617,-10,6,-1,-2,-6,-3,-1,-3,0.393066,-0.344727,0.826172,7.1875,11.25,18.125,-0.396948,-0.403933,-1.7688
1617,-34,-14,-7,1,0,2,-1,-3,0.393066,-0.344727,0.826172,7.1875,11.25,18.125,-0.396948,-0.403933,-1.7688
1632,3,-9,-4,-2,-1,-3,-5,0,0.393066,-0.344727,0.826172,7.1875,11.25,18.125,-0.396948,-0.403933,-1.7688
1632,19,4,6,2,0,-1,1,3,0.393066,-0.344727,0.826172,7.1875,11.25,18.125,-0.396948,-0.403933,-1.7688
1633,-34,-5,-2,2,2,4,1,-2,0.374023,-0.379395,0.831055,12.75,13.25,19.25,-0.395121,-0.396868,-1.76355
1633,-14,18,-5,-5,-3,0,-7,-1,0.374023,-0.379395,0.831055,12.75,13.25,19.25,-0.395121,-0.396868,-1.76355
1654,3,-14,-1,-3,-3,-2,-1,-4,0.374023,-0.379395,0.831055,12.75,13.25,19.25,-0.395121,-0.396868,-1.76355
1654,-15,-23,-1,1,-1,-1,1,-2,0.374023,-0.379395,0.831055,12.75,13.25,19.25,-0.395121,-0.396868,-1.76355
1655,12,-2,5,-1,1,-1,0,1,0.362793,-0.356934,0.86084,14.8125,14.25,18.0625,-0.391604,-0.389361,-1.7593
1655,-36,-13,-4,1,1,0,2,-2,0.362793,-0.356934,0.86084,14.8125,14.25,18.0625,-0.391604,-0.389361,-1.7593
1668,19,11,-1,-1,-6,-4,-2,-1,0.362793,-0.356934,0.86084,14.8125,14.25,18.0625,-0.391604,-0.389361,-1.7593
1668,-48,23,-3,1,3,0,-2,1,0.362793,-0.356934,0.86084,14.8125,14.25,18.0625,-0.391604,-0.389361,-1.7593
1677,-14,19,-1,-1,-1,0,1,-1,0.330078,-0.327148,0.879395,10.375,13.5625,14,-0.388302,-0.382102,-1.75677
1677,18,-27,-2,-1,-3,0,0,1,0.330078,-0.327148,0.879395,10.375,13.5625,14,-0.388302,-0.382102,-1.75677
1691,7,-8,1,-2,-4,-4,-3,0,0.330078,-0.327148,0.879395,10.375,13.5625,14,-0.388302,-0.382102,-1.75677
1691,-33,22,3,-1,-1,2,-2,-1,0.330078,-0.327148,0.879395,10.375,13.5625,14,-0.388302,-0.382102,-1.75677
1694,-8,-7,-7,-4,-2,-2,1,-3,0.308594,-0.348145,0.880371,11.75,9.5,12.25,-0.38501,-0.375861,-1.75389
1694,23,-4,2,2,2,0,0,-2,0.308594,-0.348145,0.880371,11.75,9.5,12.25,-0.38501,-0.375861,-1.75389
1714,-9,-3,-5,-1,2,-1,-1,-2,0.308594,-0.348145,0.880371,11.75,9.5,12.25,-0.38501,-0.375861,-1.75389
1714,20,-7,4,-1,-2,-2,-1,5,0.308594,-0.348145,0.880371,11.75,9.5,12.25,-0.38501,-0.375861,-1.75389
1716,-42,-17,-3,2,2,2,-1,-2,0.32373,-0.37793,0.859375,17.375,5.625,12.1875,-0.381014,-0.371506,-1.75006
1716,-22,-13,-3,1,-1,0,-1,-2,0.32373,-0.37793,0.859375,17.375,5.625,12.1875,-0.381014,-0.371506,-1.75006
1728,22,38,1,0,-4,0,-2,2,0.32373,-0.37793,0.859375,17.375,5.625,12.1875,-0.381014,-0.371506,-1.75006
1728,-10,-20,-5,-1,-3,-2,0,0,0.32373,-0.37793,0.859375,17.375,5.625,12.1875,-0.381014,-0.371506,-1.75006
1736,-1,2,1,1,0,-1,0,-2,0.333008,-0.364258,0.846191,16.25,3.75,11.625,-0.377322,-0.368295,-1.74629
1736,26,-3,0,-1,-3,-4,-1,1,0.333008,-0.364258,0.846191,16.25,3.75,11.625,-0.377322,-0.368295,-1.74629
1752,-11,23,2,-1,2,1,0,-1,0.333008,-0.364258,0.846191,16.25,3.75,11.625,-0.377322,-0.368295,-1.74629
1752,11,12,1,-5,-1,-2,-1,0,0.333008,-0.364258,0.846191,16.25,3.75,11.625,-0.377322,-0.368295,-1.74629
1754,-30,0,-2,-1,0,1,-2,-2,0.317871,-0.361328,0.886719,6.5,2.8125,10.8125,-0.376479,-0.364799,-1.74285
1754,-3,-5,-3,-2,-2,-1,-3,-1,0.317871,-0.361328,0.886719,6.5,2.8125,10.8125,-0.376479,-0.364799,-1.74285
1781,0,-8,-1,-1,-2,1,0,1,0.317871,-0.361328,0.886719,6.5,2.8125,10.8125,-0.376479,-0.364799,-1.74285
1781,8,-3,-2,-2,-1,-1,-2,0,0.317871,-0.361328,0.886719,6.5,2.8125,10.8125,-0.376479,-0.364799,-1.74285
1783,-6,-12,-5,-3,-3,-1,-3,-4,0.285645,-0.398926,0.919434,3.5625,-0.375,7.75,-0.377049,-0.361814,-1.73973
1783,8,3,3,-2,-1,-2,0,2,0.285645,-0.398926,0.919434,3.5625,-0.375,7.75,-0.377049,-0.361814,-1.73973
1787,-3,-12,-1,1,0,-1,0,0,0.285645,-0.398926,0.919434,3.5625,-0.375,7.75,-0.377049,-0.361814,-1.73973
1787,-22,-3,-10,-2,-5,-4,-5,-8,0.285645,-0.398926,0.919434,3.5625,-0.375,7.75,-0.377049,-0.361814,-1.73973
1797,11,0,1,3,1,1,0,1,0.286621,-0.42334,0.90918,9.75,-3.3125,5.5625,-0.376004,-0.360014,-1.73678
1797,-3,3,-3,-1,-2,-2,0,0,0.286621,-0.42334,0.90918,9.75,-3.3125,5.5625,-0.376004,-0.360014,-1.73678
1812,-4,-11,-2,-1,-2,-1,-3,-4,0.286621,-0.42334,0.90918,9.75,-3.3125,5.5625,-0.376004,-0.360014,-1.73678
1812,-16,-13,-2,-5,0,-1,0,-4,0.286621,-0.42334,0.90918,9.75,-3.3125,5.5625,-0.376004,-0.360014,-1.73678
1813,17,5,1,-3,2,-3,0,1,0.307129,-0.38916,0.876953,14.5,-3.6875,2.5625,-0.372642,-0.359702,-1.735
1813,-13,5,-2,-2,1,-3,-2,-2,0.307129,-0.38916,0.876953,14.5,-3.6875,2.5625,-0.372642,-0.359702,-1.735
1834,-11,-25,-6,-1,-1,-1,-1,-2,0.307129,-0.38916,0.876953,14.5,-3.6875,2.5625,-0.372642,-0.359702,-1.735
1834,4,14,-3,3,0,0,-1,-1,0.307129,-0.38916,0.876953,14.5,-3.6875,2.5625,-0.372642,-0.359702,-1.735
1836,27,7,4,-2,-4,-2,0,4,0.333496,-0.369141,0.874023,10.875,-4.0625,0.5,-0.369824,-0.360346,-1.73407
1836,6,5,2,1,-1,1,0,1,0.333496,-0.369141,0.874023,10.875,-4.0625,0.5,-0.369824,-0.360346,-1.73407
1848,-5,-1,-5,-1,-2,1,-1,-2,0.333496,-0.369141,0.874023,10.875,-4.0625,0.5,-0.369824,-0.360346,-1.73407
1848,20,-1,0,-1,-1,-3,0,3,0.333496,-0.369141,0.874023,10.875,-4.0625,0.5,-0.369824,-0.360346,-1.73407
1857,58,4,1,-5,-4,-2,-1,1,0.347168,-0.337891,0.839355,8.1875,-4.1875,-1.1875,-0.367354,-0.361889,-1.73383
1857,-36,-2,-3,-1,-1,-1,0,-2,0.347168,-0.337891,0.839355,8.1875,-4.1875,-1.1875,-0.367354,-0.361889,-1.73383
1872,12,-4,1,0,-2,-1,-2,0,0.347168,-0.337891,0.839355,8.1875,-4.1875,-1.1875,-0.367354,-0.361889,-1.73383
1872,0,-4,0,0,2,1,-1,0,0.347168,-0.337891,0.839355,8.1875,-4.1875,-1.1875,-0.367354,-0.361889,-1.73383
1874,-1,-6,-5,-2,-4,-1,-2,-3,0.356934,-0.313477,0.838867,8.5,-4.0625,-3,-0.364014,-0.364026,-1.73439
1874,10,-6,-4,-3,0,0,-1,-2,0.356934,-0.313477,0.838867,8.5,-4.0625,-3,-0.364014,-0.364026,-1.73439
1894,-8,-8,3,1,1,-1,2,-3,0.356934,-0.313477,0.838867,8.5,-4.0625,-3,-0.364014,-0.364026,-1.73439
1894,-5,37,-1,-1,-2,-1,-2,0,0.356934,-0.313477,0.838867,8.5,-4.0625,-3,-0.364014,-0.364026,-1.73439
1896,-6,-21,-2,-1,-2,1,-1,-1,0.37793,-0.281738,0.813477,6.0625,-2.5,-3.375,-0.360938,-0.36628,-1.73539
1896,21,-5,-3,-2,-1,-1,-2,0,0.37793,-0.281738,0.813477,6.0625,-2.5,-3.375,-0.360938,-0.36628,-1.73539
1908,6,2,0,1,1,0,1,0,0.37793,-0.281738,0.813477,6.0625,-2.5,-3.375,-0.360938,-0.36628,-1.73539
1908,-33,-12,-2,-4,-1,-2,-3,-5,0.37793,-0.281738,0.813477,6.0625,-2.5,-3.375,-0.360938,-0.36628,-1.73539
1917,-10,1,-1,-2,-1,-4,-3,-1,0.37207,-0.29248,0.806641,1.625,-1,-2.0625,-0.359947,-0.367809,-1.73603
1917,-27,2,1,1,1,0,-3,-2,0.37207,-0.29248,0.806641,1.625,-1,-2.0625,-0.359947,-0.367809,-1.73603
1932,10,-4,-1,1,1,0,0,1,0.37207,-0.29248,0.806641,1.625,-1,-2.0625,-0.359947,-0.367809,-1.73603
1932,-4,-20,-5,-1,0,-2,-2,-4,0.37207,-0.29248,0.806641,1.625,-1,-2.0625,-0.359947,-0.367809,-1.73603
1933,-16,-1,-2,-1,0,0,-1,-1,0.35791,-0.305176,0.812012,1.75,-0.3125,-0.125,-0.359285,-0.368358,-1.73603
1933,2,-7,0,-1,-2,-1,0,-1,0.35791,-0.305176,0.812012,1.75,-0.3125,-0.125,-0.359285,-0.368358,-1.73603
1954,23,9,0,-2,-1,-2,-1,-1,0.35791,-0.305176,0.812012,1.75,-0.3125,-0.125,-0.359285,-0.368358,-1.73603
1954,-21,-7,-1,-2,-1,0,1,-3,0.35791,-0.305176,0.812012,1.75,-0.3125,-0.125,-0.359285,-0.368358,-1.73603
1955,-37,-5,-2,0,-1,0,2,-1,0.356934,-0.314453,0.817871,3.375,0.625,2.125,-0.358637,-0.368417,-1.73538
1955,24,17,6,2,1,-1,-1,2,0.356934,-0.314453,0.817871,3.375,0.625,2.125,-0.358637,-0.368417,-1.73538
1967,-23,-1,-2,-1,0,0,0,-4,0.356934,-0.314453,0.817871,3.375,0.625,2.125,-0.358637,-0.368417,-1.73538
1967,-8,5,-2,-2,-2,-2,0,1,0.356934,-0.314453,0.817871,3.375,0.625,2.125,-0.358637,-0.368417,-1.73538
1977,-29,-4,-5,-3,1,0,-2,-5,0.343262,-0.330078,0.827637,3.875,0.5625,3.25,-0.358068,-0.367838,-1.73412
1977,-3,6,1,-2,-1,-1,2,2,0.343262,-0.330078,0.827637,3.875,0.5625,3.25,-0.358068,-0.367838,-1.73412
1991,-1,-5,-4,-5,-3,-1,-2,-1,0.343262,-0.330078,0.827637,3.875,0.5625,3.25,-0.358068,-0.367838,-1.73412
1991,-1,-7,2,-2,1,-1,-1,-1,0.343262,-0.330078,0.827637,3.875,0.5625,3.25,-0.358068,-0.367838,-1.73412
1994,5,9,3,1,-2,-2,0,0,0.345703,-0.337402,0.834473,2.625,0.6875,3.6875,-0.358162,-0.367032,-1.73268
1994,9,-5,-2,-1,-1,-2,-2,-2,0.345703,-0.337402,0.834473,2.625,0.6875,3.6875,-0.358162,-0.367032,-1.73268
2015,-10,-5,-2,1,-1,0,-1,1,0.345703,-0.337402,0.834473,2.625,0.6875,3.6875,-0.358162,-0.367032,-1.73268
2015,-17,2,0,2,0,-1,0,-1,0.345703,-0.337402,0.834473,2.625,0.6875,3.6875,-0.358162,-0.367032,-1.73268
2015,-21,-6,-3,-2,-1,0,0,-1,0.338867,-0.350098,0.839355,-0.4375,1.25,3.9375,-0.35962,-0.365907,-1.73108
2015,-72,-24,-9,-3,-1,-1,-2,-5,0.338867,-0.350098,0.839355,-0.4375,1.25,3.9375,-0.35962,-0.365907,-1.73108
2028,6,5,-4,-2,-1,-2,-2,-1,0.338867,-0.350098,0.839355,-0.4375,1.25,3.9375,-0.35962,-0.365907,-1.73108
2028,1,7,3,2,0,-1,1,2,0.338867,-0.350098,0.839355,-0.4375,1.25,3.9375,-0.35962,-0.365907,-1.73108
2037,0,-1,-1,-1,1,-2,1,1,0.323242,-0.343262,0.856934,-0.125,0.25,2.375,-0.360386,-0.364931,-1.73023
2037,13,-4,0,-1,-3,-3,-2,-1,0.323242,-0.343262,0.856934,-0.125,0.25,2.375,-0.360386,-0.364931,-1.73023
2052,1,-8,-2,-1,-3,-1,-2,-1,0.323242,-0.343262,0.856934,-0.125,0.25,2.375,-0.360386,-0.364931,-1.73023
2052,-4,-4,-2,-1,-1,1,-2,-1,0.323242,-0.343262,0.856934,-0.125,0.25,2.375,-0.360386,-0.364931,-1.73023
2053,13,6,2,0,2,0,0,1,0.33252,-0.337402,0.855469,-0.5625,1.125,1.5,-0.361157,-0.363917,-1.72962
2053,18,7,0,-1,0,0,1,0,0.33252,-0.337402,0.855469,-0.5625,1.125,1.5,-0.361157,-0.363917,-1.72962
2074,23,3,2,1,-2,-1,0,3,0.33252,-0.337402,0.855469,-0.5625,1.125,1.5,-0.361157,-0.363917,-1.72962
2074,14,7,1,-2,-2,-2,0,0,0.33252,-0.337402,0.855469,-0.5625,1.125,1.5,-0.361157,-0.363917,-1.72962
2076,-5,-9,-1,0,0,0,-2,-1,0.32666,-0.338379,0.861816,-1.3125,0.6875,0.875,-0.361871,-0.362972,-1.7294
2076,-10,-15,-8,-3,-2,0,-3,-3,0.32666,-0.338379,0.861816,-1.3125,0.6875,0.875,-0.361871,-0.362972,-1.7294
2088,-13,-12,-1,-1,-1,-2,1,-2,0.32666,-0.338379,0.861816,-1.3125,0.6875,0.875,-0.361871,-0.362972,-1.7294
2088,32,41,2,0,-1,0,-1,2,0.32666,-0.338379,0.861816,-1.3125,0.6875,0.875,-0.361871,-0.362972,-1.7294
2096,24,1,3,2,0,0,-1,2,0.324219,-0.330078,0.864258,2.0625,0,0.6875,-0.361311,-0.362205,-1.72898
2096,-16,-1,-1,-1,-2,-2,-2,-2,0.324219,-0.330078,0.864258,2.0625,0,0.6875,-0.361311,-0.362205,-1.72898
2111,-15,2,-1,-2,0,0,0,-2,0.324219,-0.330078,0.864258,2.0625,0,0.6875,-0.361311,-0.362205,-1.72898
2111,15,-14,0,-3,-1,-2,-1,3,0.324219,-0.330078,0.864258,2.0625,0,0.6875,-0.361311,-0.362205,-1.72898
2113,3,-4,-3,-2,-5,-2,-2,-2,0.339844,-0.308594,0.847168,3.1875,0.3125,0.5,-0.360096,-0.362055,-1.72892
2113,2,16,5,1,-1,0,-2,0,0.339844,-0.308594,0.847168,3.1875,0.3125,0.5,-0.360096,-0.362055,-1.72892
2134,7,-3,1,0,0,-2,-1,0,0.339844,-0.308594,0.847168,3.1875,0.3125,0.5,-0.360096,-0.362055,-1.72892
2134,-53,-10,-1,1,3,1,1,-2,0.339844,-0.308594,0.847168,3.1875,0.3125,0.5,-0.360096,-0.362055,-1.72892
2136,-15,-5,-5,0,-2,-3,-3,-3,0.339355,-0.294922,0.836914,0.8125,0.5625,-0.25,-0.359908,-0.362067,-1.7291
2136,17,-2,-2,-4,-3,-1,-2,-2,0.339355,-0.294922,0.836914,0.8125,0.5625,-0.25,-0.359908,-0.362067,-1.7291
2148,-9,4,-1,-1,0,-2,0,0,0.339355,-0.294922,0.836914,0.8125,0.5625,-0.25,-0.359908,-0.362067,-1.7291
2148,-15,-17,-3,-1,-1,1,0,-2,0.339355,-0.294922,0.836914,0.8125,0.5625,-0.25,-0.359908,-0.362067,-1.7291
2157,18,0,-1,0,0,-3,0,-1,0.339844,-0.311523,0.841309,-1.25,0.3125,0.1875,-0.360162,-0.362011,-1.72912
2157,-11,0,-1,2,0,2,1,0,0.339844,-0.311523,0.841309,-1.25,0.3125,0.1875,-0.360162,-0.362011,-1.72912
2171,5,3,1,-3,-3,0,-2,0,0.339844,-0.311523,0.841309,-1.25,0.3125,0.1875,-0.360162,-0.362011,-1.72912
2171,7,-5,-3,-5,-3,0,-2,-3,0.339844,-0.311523,0.841309,-1.25,0.3125,0.1875,-0.360162,-0.362011,-1.72912
2173,-2,-5,-1,-5,-1,0,0,-1,0.344238,-0.313965,0.847168,-2.375,0.8125,-0.75,-0.36074,-0.361887,-1.72953
2173,-1,0,0,0,-1,-1,1,-1,0.344238,-0.313965,0.847168,-2.375,0.8125,-0.75,-0.36074,-0.361887,-1.72953
2194,-5,1,-1,0,0,0,-2,-2,0.344238,-0.313965,0.847168,-2.375,0.8125,-0.75,-0.36074,-0.361887,-1.72953
2194,4,-10,1,2,0,-2,1,1,0.344238,-0.313965,0.847168,-2.375,0.8125,-0.75,-0.36074,-0.361887,-1.72953
2195,-16,-3,1,3,0,0,-8,-3,0.345215,-0.318359,0.84082,-1.75,1.1875,-1.3125,-0.361163,-0.361703,-1.73015
2195,13,0,-6,-3,-2,-4,16,1,0.345215,-0.318359,0.84082,-1.75,1.1875,-1.3125,-0.361163,-0.361703,-1.73015
2217,20,4,0,-1,-2,-2,-5,9,0.345215,-0.318359,0.84082,-1.75,1.1875,-1.3125,-0.361163,-0.361703,-1.73015
2217,-10,-9,0,-2,-2,-3,-5,-12,0.345215,-0.318359,0.84082,-1.75,1.1875,-1.3125,-0.361163,-0.361703,-1.73015
2218,5,10,1,0,-3,-1,0,0,0.345703,-0.31543,0.84082,-1.5625,1.375,-0.9375,-0.361454,-0.361461,-1.73057
2218,-7,-1,-1,2,2,1,-6,-1,0.345703,-0.31543,0.84082,-1.5625,1.375,-0.9375,-0.361454,-0.361461,-1.73057
2232,14,-3,-2,1,-1,0,-3,1,0.345703,-0.31543,0.84082,-1.5625,1.375,-0.9375,-0.361454,-0.361461,-1.73057
2232,10,0,-4,-4,-3,0,13,4,0.345703,-0.31543,0.84082,-1.5625,1.375,-0.9375,-0.361454,-0.361461,-1.73057
2233,6,-4,-1,0,-1,-1,-16,-2,0.337402,-0.312988,0.846191,-2.8125,1,-1.875,-0.361947,-0.361266,-1.73157
2233,1,1,1,-2,-2,-1,-4,1,0.337402,-0.312988,0.846191,-2.8125,1,-1.875,-0.361947,-0.361266,-1.73157
2254,-7,2,-2,-3,0,-2,8,-3,0.337402,-0.312988,0.846191,-2.8125,1,-1.875,-0.361947,-0.361266,-1.73157
2254,-18,-14,-4,-3,-1,-1,-12,-2,0.337402,-0.312988,0.846191,-2.8125,1,-1.875,-0.361947,-0.361266,-1.73157
2256,-12,-2,-2,0,0,-1,9,-1,0.346191,-0.316406,0.856934,-2.4375,1.1875,-2.125,-0.362248,-0.361197,-1.7324
2256,15,-11,-3,-1,1,0,-3,1,0.346191,-0.316406,0.856934,-2.4375,1.1875,-2.125,-0.362248,-0.361197,-1.7324
2277,-39,-4,-6,-3,-2,-1,-1,-7,0.346191,-0.316406,0.856934,-2.4375,1.1875,-2.125,-0.362248,-0.361197,-1.7324
2277,18,-54,1,0,1,0,7,2,0.346191,-0.316406,0.856934,-2.4375,1.1875,-2.125,-0.362248,-0.361197,-1.7324
2278,15,-63,1,3,1,0,0,3,0.350098,-0.31543,0.855957,-0.25,0.75,-2,-0.361821,-0.361254,-1.73339
2278,-26,-9,-1,0,1,-3,0,-3,0.350098,-0.31543,0.855957,-0.25,0.75,-2,-0.361821,-0.361254,-1.73339
2292,7,-6,0,1,0,-2,-2,-1,0.350098,-0.31543,0.855957,-0.25,0.75,-2,-0.361821,-0.361254,-1.73339
2292,-30,32,-3,-3,-2,-1,-5,-1,0.350098,-0.31543,0.855957,-0.25,0.75,-2,-0.361821,-0.361254,-1.73339
2293,-1,39,-1,0,-1,-1,-5,1,0.34668,-0.300293,0.848633,1.625,0.3125,-1.1875,-0.360624,-0.361411,-1.73397
2293,27,22,4,-2,-2,-2,-4,1,0.34668,-0.300293,0.848633,1.625,0.3125,-1.1875,-0.360624,-0.361411,-1.73397
2315,-15,14,-3,-4,-3,-3,-3,-7,0.34668,-0.300293,0.848633,1.625,0.3125,-1.1875,-0.360624,-0.361411,-1.73397
2315,3,22,0,0,-1,-2,-4,1,0.34668,-0.300293,0.848633,1.625,0.3125,-1.1875,-0.360624,-0.361411,-1.73397
2316,-9,12,-4,-5,-4,-1,-1,-1,0.351562,-0.306641,0.844238,0.6875,0.1875,-0.3125,-0.36053,-0.36149,-1.73398
2316,-15,10,0,1,0,1,-1,-1,0.351562,-0.306641,0.844238,0.6875,0.1875,-0.3125,-0.36053,-0.36149,-1.73398
2337,27,0,1,0,-1,-1,-2,-1,0.351562,-0.306641,0.844238,0.6875,0.1875,-0.3125,-0.36053,-0.36149,-1.73398
2337,11,4,1,0,0,-3,-3,2,0.351562,-0.306641,0.844238,0.6875,0.1875,-0.3125,-0.36053,-0.36149,-1.73398
2339,-3,7,-2,-3,-2,-1,2,0,0.341797,-0.320312,0.840332,-1.3125,0.1875,-0.25,-0.360976,-0.361455,-1.73399
2339,-42,-12,-4,-2,0,0,-2,-7,0.341797,-0.320312,0.840332,-1.3125,0.1875,-0.25,-0.360976,-0.361455,-1.73399
2350,-5,-3,-3,-2,-1,-2,2,2,0.341797,-0.320312,0.840332,-1.3125,0.1875,-0.25,-0.360976,-0.361455,-1.73399
2350,11,-5,0,-2,-3,-2,0,0,0.341797,-0.320312,0.840332,-1.3125,0.1875,-0.25,-0.360976,-0.361455,-1.73399
2359,37,8,1,-3,-4,-2,2,1,0.334961,-0.331543,0.848145,-0.5,0.3125,0,-0.36107,-0.361376,-1.73399
2359,-29,-3,-2,2,-3,0,-1,-2,0.334961,-0.331543,0.848145,-0.5,0.3125,0,-0.36107,-0.361376,-1.73399
2374,-10,-5,0,0,-2,0,-3,0,0.334961,-0.331543,0.848145,-0.5,0.3125,0,-0.36107,-0.361376,-1.73399
2374,-9,3,0,-2,0,-1,-2,-4,0.334961,-0.331543,0.848145,-0.5,0.3125,0,-0.36107,-0.361376,-1.73399
2375,20,10,1,1,-1,-1,2,1,0.34082,-0.331543,0.836914,0.8125,0.3125,0.1875,-0.361167,-0.361475,-1.73399
2375,15,-10,0,1,-1,-1,0,2,0.34082,-0.331543,0.836914,0.8125,0.3125,0.1875,-0.361167,-0.361475,-1.73399
2396,29,22,-1,-2,1,0,-3,-4,0.34082,-0.331543,0.836914,0.8125,0.3125,0.1875,-0.361167,-0.361475,-1.73399
2396,-48,2,-2,1,2,0,-1,-2,0.34082,-0.331543,0.836914,0.8125,0.3125,0.1875,-0.361167,-0.361475,-1.73399
2398,-6,1,0,1,0,2,1,-1,0.344238,-0.32373,0.832031,0.5625,0.4375,0.1875,-0.361167,-0.361475,-1.73399
2398,8,-4,0,-2,-2,-1,-2,1,0.344238,-0.32373,0.832031,0.5625,0.4375,0.1875,-0.361167,-0.361475,-1.73399
2411,-11,-7,-3,0,-2,-3,-1,0,0.344238,-0.32373,0.832031,0.5625,0.4375,0.1875,-0.361167,-0.361475,-1.73399
2411,21,5,1,-2,-2,0,-1,1,0.344238,-0.32373,0.832031,0.5625,0.4375,0.1875,-0.361167,-0.361475,-1.73399
2418,-23,0,2,0,2,0,-1,-1,0.34082,-0.333008,0.837402,-0.8125,0.4375,0.1875,-0.361357,-0.361496,-1.73399
2418,-4,0,-1,1,-1,-1,0,-2,0.34082,-0.333008,0.837402,-0.8125,0.4375,0.1875,-0.361357,-0.361496,-1.73399
2435,4,-3,2,0,0,1,0,0,0.34082,-0.333008,0.837402,-0.8125,0.4375,0.1875,-0.361357,-0.361496,-1.73399
2435,2,6,3,0,1,-2,-2,0,0.34082,-0.333008,0.837402,-0.8125,0.4375,0.1875,-0.361357,-0.361496,-1.73399
2435,-19,-20,-7,-4,-2,-5,-8,-6,0.339355,-0.337402,0.848633,-0.9375,0.75,0.5,-0.361355,-0.361463,-1.73381
2435,14,3,-2,-2,-1,-3,-2,0,0.339355,-0.337402,0.848633,-0.9375,0.75,0.5,-0.361355,-0.361463,-1.73381
2457,-6,-14,-1,-1,-1,0,-2,-2,0.339355,-0.337402,0.848633,-0.9375,0.75,0.5,-0.361355,-0.361463,-1.73381
2457,5,1,-4,-3,-1,0,-1,-1,0.339355,-0.337402,0.848633,-0.9375,0.75,0.5,-0.361355,-0.361463,-1.73381
2458,0,0,1,-3,-1,-1,-2,-1,0.34375,-0.32959,0.850586,1,0.375,0.0625,-0.361193,-0.361263,-1.73379
2458,7,0,0,-2,-3,-3,0,0,0.34375,-0.32959,0.850586,1,0.375,0.0625,-0.361193,-0.361263,-1.73379
2471,-6,-2,1,-2,-1,-4,0,-1,0.34375,-0.32959,0.850586,1,0.375,0.0625,-0.361193,-0.361263,-1.73379
2471,0,-8,-2,-1,-1,2,-2,-1,0.34375,-0.32959,0.850586,1,0.375,0.0625,-0.361193,-0.361263,-1.73379
2478,23,6,1,0,1,1,2,4,0.342773,-0.315918,0.848145,0.9375,0.5,0.0625,-0.361193,-0.361263,-1.73379
2478,-2,-2,-5,-4,1,2,0,-3,0.342773,-0.315918,0.848145,0.9375,0.5,0.0625,-0.361193,-0.361263,-1.73379
2494,-9,9,0,3,2,1,1,-1,0.342773,-0.315918,0.848145,0.9375,0.5,0.0625,-0.361193,-0.361263,-1.73379
2494,3,-8,-3,1,-2,-2,3,-3,0.342773,-0.315918,0.848145,0.9375,0.5,0.0625,-0.361193,-0.361263,-1.73379
2496,-15,-15,-9,-3,-1,-1,7,-6,0.335449,-0.321289,0.853516,1.125,0.125,0.1875,-0.360773,-0.36094,-1.73376
2496,32,-8,-1,-2,0,-1,-5,0,0.335449,-0.321289,0.853516,1.125,0.125,0.1875,-0.360773,-0.36094,-1.73376
2516,2,8,-2,-2,-1,-1,-7,-2,0.335449,-0.321289,0.853516,1.125,0.125,0.1875,-0.360773,-0.36094,-1.73376
2516,1,3,-2,1,-1,0,11,3,0.335449,-0.321289,0.853516,1.125,0.125,0.1875,-0.360773,-0.36094,-1.73376
2519,18,10,2,0,-2,-2,6,1,0.334473,-0.314941,0.850098,2.125,-0.5,0.3125,-0.359976,-0.360932,-1.73373
2519,6,-5,3,-1,-2,-2,1,1,0.334473,-0.314941,0.850098,2.125,-0.5,0.3125,-0.359976,-0.360932,-1.73373
2531,-9,-8,0,-1,-3,1,-5,-1,0.334473,-0.314941,0.850098,2.125,-0.5,0.3125,-0.359976,-0.360932,-1.73373
2531,5,4,1,-2,-2,-1,0,0,0.334473,-0.314941,0.850098,2.125,-0.5,0.3125,-0.359976,-0.360932,-1.73373
2538,-8,-9,-1,-1,0,0,-3,-2,0.349609,-0.307129,0.846191,-1.8125,0.0625,0.75,-0.360261,-0.361019,-1.73355
2538,2,5,-1,-1,-1,-2,1,1,0.349609,-0.307129,0.846191,-1.8125,0.0625,0.75,-0.360261,-0.361019,-1.73355
2554,-8,-3,0,-2,0,-2,-1,0,0.349609,-0.307129,0.846191,-1.8125,0.0625,0.75,-0.360261,-0.361019,-1.73355
2554,7,2,-3,-3,-5,-1,-6,1,0.349609,-0.307129,0.846191,-1.8125,0.0625,0.75,-0.360261,-0.361019,-1.73355
2556,-10,-2,-3,-2,-4,-2,-5,-4,0.337891,-0.315918,0.852051,-0.75,0.5,-0.6875,-0.360261,-0.361019,-1.73355
2556,-42,19,-5,-1,-2,-1,-5,-4,0.337891,-0.315918,0.852051,-0.75,0.5,-0.6875,-0.360261,-0.361019,-1.73355
2576,-16,-46,-7,-3,-2,-1,2,-5,0.337891,-0.315918,0.852051,-0.75,0.5,-0.6875,-0.360261,-0.361019,-1.73355
2576,-1,7,-8,-5,-3,-5,-8,-6,0.337891,-0.315918,0.852051,-0.75,0.5,-0.6875,-0.360261,-0.361019,-1.73355
2578,19,4,0,0,1,-1,-2,2,0.33252,-0.317383,0.846191,0.6875,0.75,-0.8125,-0.360355,-0.36094,-1.73355
2578,31,11,2,1,-2,0,1,1,0.33252,-0.317383,0.846191,0.6875,0.75,-0.8125,-0.360355,-0.36094,-1.73355
2592,-7,-32,0,-1,-2,-1,1,1,0.33252,-0.317383,0.846191,0.6875,0.75,-0.8125,-0.360355,-0.36094,-1.73355
2592,-2,-36,2,0,0,1,-3,0,0.33252,-0.317383,0.846191,0.6875,0.75,-0.8125,-0.360355,-0.36094,-1.73355
2598,11,-27,2,1,-1,-2,-1,1,0.335449,-0.314453,0.839844,1.9375,0.25,-0.4375,-0.359528,-0.360789,-1.73372
2598,2,-5,2,1,0,-3,0,0,0.335449,-0.314453,0.839844,1.9375,0.25,-0.4375,-0.359528,-0.360789,-1.73372
2614,3,20,-4,-1,0,-1,-2,-1,0.335449,-0.314453,0.839844,1.9375,0.25,-0.4375,-0.359528,-0.360789,-1.73372
2614,4,14,1,0,0,0,-4,2,0.335449,-0.314453,0.839844,1.9375,0.25,-0.4375,-0.359528,-0.360789,-1.73372
2615,-5,21,-1,0,1,1,2,0,0.346191,-0.308105,0.836914,-1.3125,0.125,-0.1875,-0.359759,-0.361124,-1.73393
2615,-11,-5,1,2,0,4,1,1,0.346191,-0.308105,0.836914,-1.3125,0.125,-0.1875,-0.359759,-0.361124,-1.73393
2636,-12,37,-1,0,0,0,-5,0,0.346191,-0.308105,0.836914,-1.3125,0.125,-0.1875,-0.359759,-0.361124,-1.73393
2636,-16,24,0,-2,-1,-3,0,-2,0.346191,-0.308105,0.836914,-1.3125,0.125,-0.1875,-0.359759,-0.361124,-1.73393
2638,-19,7,-3,-2,-2,-2,-2,-3,0.337402,-0.313477,0.841797,-4.625,0.875,-0.8125,-0.361133,-0.360833,-1.73437
2638,-2,3,-1,0,-1,-1,-1,-1,0.337402,-0.313477,0.841797,-4.625,0.875,-0.8125,-0.361133,-0.360833,-1.73437
2650,12,-3,-1,-1,-1,-3,-1,0,0.337402,-0.313477,0.841797,-4.625,0.875,-0.8125,-0.361133,-0.360833,-1.73437
2650,-1,4,1,0,-2,-1,-1,-1,0.337402,-0.313477,0.841797,-4.625,0.875,-0.8125,-0.361133,-0.360833,-1.73437
2657,3,-4,-2,0,-1,-1,-2,-2,0.33252,-0.33252,0.853516,-3.75,1.1875,-0.75,-0.362468,-0.360229,-1.7346
2657,10,-5,-4,-1,-1,-2,-3,-2,0.33252,-0.33252,0.853516,-3.75,1.1875,-0.75,-0.362468,-0.360229,-1.7346
2674,27,5,1,-1,0,1,1,1,0.33252,-0.33252,0.853516,-3.75,1.1875,-0.75,-0.362468,-0.360229,-1.7346
2674,6,-17,-1,0,1,1,12,2,0.33252,-0.33252,0.853516,-3.75,1.1875,-0.75,-0.362468,-0.360229,-1.7346
2676,-24,11,-3,-3,-3,-3,-24,-3,0.336914,-0.330566,0.856934,-1.4375,1.0625,-1.25,-0.362825,-0.359768,-1.73522
2676,-12,-2,-1,-3,-5,-3,0,-4,0.336914,-0.330566,0.856934,-1.4375,1.0625,-1.25,-0.362825,-0.359768,-1.73522
2697,-15,-37,-5,-1,-4,-4,-1,-2,0.336914,-0.330566,0.856934,-1.4375,1.0625,-1.25,-0.362825,-0.359768,-1.73522
2697,2,-1,-2,0,-1,-1,-1,-1,0.336914,-0.330566,0.856934,-1.4375,1.0625,-1.25,-0.362825,-0.359768,-1.73522
2698,16,-14,-2,0,-2,-2,6,0,0.335938,-0.328125,0.853027,0.6875,0,-1.0625,-0.362605,-0.359606,-1.73542
2698,12,31,4,0,2,2,0,3,0.335938,-0.328125,0.853027,0.6875,0,-1.0625,-0.362605,-0.359606,-1.73542
2710,2,5,3,-2,-2,0,0,2,0.335938,-0.328125,0.853027,0.6875,0,-1.0625,-0.362605,-0.359606,-1.73542
2710,-18,-6,-4,-6,-3,0,-6,-5,0.335938,-0.328125,0.853027,0.6875,0,-1.0625,-0.362605,-0.359606,-1.73542
2719,-23,-9,-2,-4,-1,0,12,-2,0.345215,-0.313965,0.851074,-0.75,-0.25,-0.1875,-0.36251,-0.359684,-1.73542
2719,-5,-10,-3,-2,0,-1,-1,-1,0.345215,-0.313965,0.851074,-0.75,-0.25,-0.1875,-0.36251,-0.359684,-1.73542
2734,15,-1,-2,-2,0,0,2,-2,0.345215,-0.313965,0.851074,-0.75,-0.25,-0.1875,-0.36251,-0.359684,-1.73542
2734,0,-4,-1,0,-2,-1,0,1,0.345215,-0.313965,0.851074,-0.75,-0.25,-0.1875,-0.36251,-0.359684,-1.73542
2736,-6,-4,-1,-3,-2,1,0,-1,0.332031,-0.320801,0.847168,-0.9375,-0.1875,-0.125,-0.36251,-0.359684,-1.73542
2736,10,-13,1,3,1,0,3,0,0.332031,-0.320801,0.847168,-0.9375,-0.1875,-0.125,-0.36251,-0.359684,-1.73542
2757,-10,9,1,1,1,0,1,1,0.332031,-0.320801,0.847168,-0.9375,-0.1875,-0.125,-0.36251,-0.359684,-1.73542
2757,-4,4,3,1,1,-2,-3,1,0.332031,-0.320801,0.847168,-0.9375,-0.1875,-0.125,-0.36251,-0.359684,-1.73542
2758,-1,20,-1,-1,2,-1,0,-1,0.333984,-0.32959,0.846191,-0.25,-0.125,-0.375,-0.362605,-0.359606,-1.73542
2758,5,-27,-2,-3,0,1,17,1,0.333984,-0.32959,0.846191,-0.25,-0.125,-0.375,-0.362605,-0.359606,-1.73542
2770,-7,18,3,1,1,-2,-37,-6,0.333984,-0.32959,0.846191,-0.25,-0.125,-0.375,-0.362605,-0.359606,-1.73542
2770,-5,-4,-3,-2,-1,-3,-2,0,0.333984,-0.32959,0.846191,-0.25,-0.125,-0.375,-0.362605,-0.359606,-1.73542
2779,-2,0,2,1,0,0,12,2,0.333984,-0.319336,0.833008,1.5,0.0625,-0.4375,-0.362035,-0.359576,-1.7356
2779,2,9,-1,-2,0,-3,-8,-2,0.333984,-0.319336,0.833008,1.5,0.0625,-0.4375,-0.362035,-0.359576,-1.7356
2795,-2,1,-4,-3,-3,0,6,0,0.333984,-0.319336,0.833008,1.5,0.0625,-0.4375,-0.362035,-0.359576,-1.7356
2795,-27,3,-1,-2,-1,1,1,-1,0.333984,-0.319336,0.833008,1.5,0.0625,-0.4375,-0.362035,-0.359576,-1.7356
2796,-4,-4,-1,-1,-1,-2,-7,0,0.335938,-0.314941,0.844727,0.125,-0.1875,-0.375,-0.362035,-0.359576,-1.7356
2796,9,-8,0,-1,-2,-1,-1,-3,0.335938,-0.314941,0.844727,0.125,-0.1875,-0.375,-0.362035,-0.359576,-1.7356
2816,5,-4,0,1,1,1,7,1,0.335938,-0.314941,0.844727,0.125,-0.1875,-0.375,-0.362035,-0.359576,-1.7356
2816,3,9,2,1,-2,-2,-9,-2,0.335938,-0.314941,0.844727,0.125,-0.1875,-0.375,-0.362035,-0.359576,-1.7356
2818,16,2,-1,-1,-3,-2,0,-1,0.342773,-0.323242,0.838867,-0.0625,-0.0625,0,-0.362035,-0.359576,-1.7356
2818,-34,-7,-4,-1,-1,0,2,-2,0.342773,-0.323242,0.838867,-0.0625,-0.0625,0,-0.362035,-0.359576,-1.7356
2831,1,22,-2,0,-4,-2,-9,2,0.342773,-0.323242,0.838867,-0.0625,-0.0625,0,-0.362035,-0.359576,-1.7356
2831,19,-11,-3,0,-2,0,2,1,0.342773,-0.323242,0.838867,-0.0625,-0.0625,0,-0.362035,-0.359576,-1.7356
2840,5,4,1,0,1,-2,-4,0,0.342285,-0.324707,0.841309,0.5625,0.375,0.25,-0.362131,-0.359675,-1.7356
2840,6,4,-2,-3,-2,-2,-3,-2,0.342285,-0.324707,0.841309,0.5625,0.375,0.25,-0.362131,-0.359675,-1.7356
2854,7,-2,0,1,1,1,7,0,0.342285,-0.324707,0.841309,0.5625,0.375,0.25,-0.362131,-0.359675,-1.7356
2854,-4,-11,1,1,-1,0,0,-2,0.342285,-0.324707,0.841309,0.5625,0.375,0.25,-0.362131,-0.359675,-1.7356
2856,-6,0,3,-1,0,0,-4,-1,0.34375,-0.32373,0.836426,0.625,0.4375,0.6875,-0.362131,-0.359675,-1.7356
2856,20,17,1,0,-2,0,-2,2,0.34375,-0.32373,0.836426,0.625,0.4375,0.6875,-0.362131,-0.359675,-1.7356
2877,-9,3,-6,-3,-3,-3,6,-3,0.34375,-0.32373,0.836426,0.625,0.4375,0.6875,-0.362131,-0.359675,-1.7356
2877,11,-2,2,-2,-3,-3,-5,-2,0.34375,-0.32373,0.836426,0.625,0.4375,0.6875,-0.362131,-0.359675,-1.7356
2879,-17,-2,-4,-2,2,5,10,0,0.344238,-0.318359,0.84668,-0.375,0.25,0.25,-0.362131,-0.359675,-1.7356
2879,-6,1,-2,-3,-2,-2,-20,-4,0.344238,-0.318359,0.84668,-0.375,0.25,0.25,-0.362131,-0.359675,-1.7356
2891,2,-8,1,-1,0,-2,1,-1,0.344238,-0.318359,0.84668,-0.375,0.25,0.25,-0.362131,-0.359675,-1.7356
2891,7,4,0,0,0,-2,1,1,0.344238,-0.318359,0.84668,-0.375,0.25,0.25,-0.362131,-0.359675,-1.7356
2900,17,-3,0,3,-3,-2,-10,-2,0.335449,-0.32959,0.852051,-1.4375,0.4375,0.625,-0.362823,-0.359269,-1.7354
2900,-19,-14,-3,1,1,1,6,-3,0.335449,-0.32959,0.852051,-1.4375,0.4375,0.625,-0.362823,-0.359269,-1.7354
2914,-4,2,1,1,2,2,6,2,0.335449,-0.32959,0.852051,-1.4375,0.4375,0.625,-0.362823,-0.359269,-1.7354
2914,4,-1,2,-2,1,-2,-4,-2,0.335449,-0.32959,0.852051,-1.4375,0.4375,0.625,-0.362823,-0.359269,-1.7354
2915,-34,-10,-4,0,-3,0,7,-1,0.333008,-0.327637,0.851074,-0.25,0,0.6875,-0.362823,-0.359269,-1.7354
2915,-2,4,-3,-1,-1,0,-12,0,0.333008,-0.327637,0.851074,-0.25,0,0.6875,-0.362823,-0.359269,-1.7354
2937,7,-13,-4,-2,-2,-3,-1,-4,0.333008,-0.327637,0.851074,-0.25,0,0.6875,-0.362823,-0.359269,-1.7354
2937,-2,10,0,0,2,1,1,0,0.333008,-0.327637,0.851074,-0.25,0,0.6875,-0.362823,-0.359269,-1.7354
2938,11,-6,0,-2,-1,-3,-6,-2,0.330566,-0.317383,0.84668,0.75,-0.375,-0.375,-0.362823,-0.359269,-1.7354
2938,5,3,4,-1,0,-2,0,2,0.330566,-0.317383,0.84668,0.75,-0.375,-0.375,-0.362823,-0.359269,-1.7354
2950,-14,-1,0,-1,2,0,-3,-2,0.330566,-0.317383,0.84668,0.75,-0.375,-0.375,-0.362823,-0.359269,-1.7354
2950,-10,-4,-2,1,-4,1,0,0,0.330566,-0.317383,0.84668,0.75,-0.375,-0.375,-0.362823,-0.359269,-1.7354
2959,15,1,-1,-3,0,-2,-4,-3,0.342773,-0.321777,0.843262,-1.6875,0.375,0.0625,-0.363363,-0.359156,-1.73542
2959,2,-6,-2,-2,-2,-1,0,2,0.342773,-0.321777,0.843262,-1.6875,0.375,0.0625,-0.363363,-0.359156,-1.73542
2974,8,-7,1,0,-2,-1,3,0,0.342773,-0.321777,0.843262,-1.6875,0.375,0.0625,-0.363363,-0.359156,-1.73542
2974,-3,0,-3,-4,1,1,10,0,0.342773,-0.321777,0.843262,-1.6875,0.375,0.0625,-0.363363,-0.359156,-1.73542
2976,-24,-2,-3,-1,0,2,-9,0,0.334961,-0.319824,0.845215,-1.6875,0.625,-0.6875,-0.363874,-0.358901,-1.73563
2976,-20,-7,-4,-2,0,-2,-5,-4,0.334961,-0.319824,0.845215,-1.6875,0.625,-0.6875,-0.363874,-0.358901,-1.73563
2997,-4,-14,0,0,-4,-2,10,0,0.334961,-0.319824,0.845215,-1.6875,0.625,-0.6875,-0.363874,-0.358901,-1.73563
2997,-2,1,-6,-2,-4,-5,-30,-6,0.334961,-0.319824,0.845215,-1.6875,0.625,-0.6875,-0.363874,-0.358901,-1.73563
2998,4,-12,2,2,1,0,1,2,0.337402,-0.324219,0.852051,-1.8125,0.875,-0.875,-0.364262,-0.358583,-1.73605
2998,5,21,-1,1,-2,-3,0,0,0.337402,-0.324219,0.852051,-1.8125,0.875,-0.875,-0.364262,-0.358583,-1.73605
3011,-21,-16,-2,-2,-1,-2,-4,-3,0.337402,-0.324219,0.852051,-1.8125,0.875,-0.875,-0.364262,-0.358583,-1.73605
3011,7,2,0,-2,-2,-2,6,-1,0.337402,-0.324219,0.852051,-1.8125,0.875,-0.875,-0.364262,-0.358583,-1.73605
3020,19,-1,-1,-1,-2,-1,2,-1,0.337891,-0.330566,0.845703,-0.3125,0.5625,-0.0625,-0.364262,-0.358583,-1.73605
3020,-11,-8,-2,-2,-2,-1,-2,-3,0.337891,-0.330566,0.845703,-0.3125,0.5625,-0.0625,-0.364262,-0.358583,-1.73605
3035,12,4,2,0,1,0,4,1,0.337891,-0.330566,0.845703,-0.3125,0.5625,-0.0625,-0.364262,-0.358583,-1.73605
3035,-8,0,3,3,1,-1,0,-1,0.337891,-0.330566,0.845703,-0.3125,0.5625,-0.0625,-0.364262,-0.358583,-1.73605
3036,-64,-5,-1,-1,-1,0,-10,-4,0.341797,-0.325195,0.845703,-0.4375,0.4375,0.4375,-0.364262,-0.358583,-1.73605
3036,4,-29,-3,-1,-2,-1,11,0,0.341797,-0.325195,0.845703,-0.4375,0.4375,0.4375,-0.364262,-0.358583,-1.73605
3057,25,19,2,1,-2,-2,-3,0,0.341797,-0.325195,0.845703,-0.4375,0.4375,0.4375,-0.364262,-0.358583,-1.73605
3057,-15,0,1,2,2,1,1,0,0.341797,-0.325195,0.845703,-0.4375,0.4375,0.4375,-0.364262,-0.358583,-1.73605
3058,21,6,2,0,0,-3,5,2,0.334961,-0.322754,0.852051,-0.625,0.1875,0.125,-0.364262,-0.358583,-1.73605
3058,-7,4,-3,-3,-2,-3,-6,-1,0.334961,-0.322754,0.852051,-0.625,0.1875,0.125,-0.364262,-0.358583,-1.73605
3070,-24,-2,-2,2,0,1,16,0,0.334961,-0.322754,0.852051,-0.625,0.1875,0.125,-0.364262,-0.358583,-1.73605
3070,3,-2,-2,-1,0,-4,-22,-2,0.334961,-0.322754,0.852051,-0.625,0.1875,0.125,-0.364262,-0.358583,-1.73605
3079,26,-4,-4,0,-3,-2,7,-1,0.335449,-0.334473,0.852051,-0.3125,0.0625,-0.125,-0.364356,-0.358505,-1.73605
3079,-3,6,0,1,2,2,0,-1,0.335449,-0.334473,0.852051,-0.3125,0.0625,-0.125,-0.364356,-0.358505,-1.73605
3095,-14,-1,-4,-3,-3,1,-10,0,0.335449,-0.334473,0.852051,-0.3125,0.0625,-0.125,-0.364356,-0.358505,-1.73605
3095,-19,-4,-2,-2,0,2,12,1,0.335449,-0.334473,0.852051,-0.3125,0.0625,-0.125,-0.364356,-0.358505,-1.73605
3096,2,-7,-2,-2,-2,-2,-3,-2,0.336426,-0.325684,0.858398,-0.375,0.1875,-0.6875,-0.364356,-0.358505,-1.73605
3096,-2,-1,1,-1,-2,-1,0,-2,0.336426,-0.325684,0.858398,-0.375,0.1875,-0.6875,-0.364356,-0.358505,-1.73605
3116,-23,-4,-1,-3,0,-1,-11,-5,0.336426,-0.325684,0.858398,-0.375,0.1875,-0.6875,-0.364356,-0.358505,-1.73605
3116,-1,-3,-1,-5,-2,-1,0,-2,0.336426,-0.325684,0.858398,-0.375,0.1875,-0.6875,-0.364356,-0.358505,-1.73605
3119,7,1,2,-1,-2,1,4,0,0.334961,-0.322754,0.854004,-1.8125,-0.0625,-0.9375,-0.364842,-0.358464,-1.73647
3119,13,6,-2,1,-3,-2,4,4,0.334961,-0.322754,0.854004,-1.8125,-0.0625,-0.9375,-0.364842,-0.358464,-1.73647
3130,-10,2,-8,-5,-5,-7,-29,-4,0.334961,-0.322754,0.854004,-1.8125,-0.0625,-0.9375,-0.364842,-0.358464,-1.73647
3130,-12,-7,-2,-1,0,0,4,-1,0.334961,-0.322754,0.854004,-1.8125,-0.0625,-0.9375,-0.364842,-0.358464,-1.73647
3139,12,-1,-3,-3,-1,0,0,-1,0.336914,-0.324707,0.851074,-1.5,-0.1875,-1,-0.365136,-0.358547,-1.7367
3139,-8,-9,-1,-1,-4,-3,-1,-4,0.336914,-0.324707,0.851074,-1.5,-0.1875,-1,-0.365136,-0.358547,-1.7367
3153,13,3,1,0,-1,-1,6,2,0.336914,-0.324707,0.851074,-1.5,-0.1875,-1,-0.365136,-0.358547,-1.7367
3153,-8,-3,-1,-1,0,-1,4,1,0.336914,-0.324707,0.851074,-1.5,-0.1875,-1,-0.365136,-0.358547,-1.7367
3156,-2,7,-3,1,-1,-4,-16,-11,0.333496,-0.318848,0.847656,-0.75,-0.4375,-0.5625,-0.365042,-0.35848,-1.73688
3156,1,-4,-1,0,2,2,-9,4,0.333496,-0.318848,0.847656,-0.75,-0.4375,-0.5625,-0.365042,-0.35848,-1.73688
3177,17,-4,-1,-3,-1,-3,17,0,0.333496,-0.318848,0.847656,-0.75,-0.4375,-0.5625,-0.365042,-0.35848,-1.73688
3177,-16,-6,0,-1,-2,-2,-3,-3,0.333496,-0.318848,0.847656,-0.75,-0.4375,-0.5625,-0.365042,-0.35848,-1.73688
3178,-8,1,-1,2,0,2,6,0,0.326172,-0.325684,0.851074,-1.75,-0.5625,-0.25,-0.365675,-0.358257,-1.73672
3178,6,-1,0,1,-2,0,-3,-3,0.326172,-0.325684,0.851074,-1.75,-0.5625,-0.25,-0.365675,-0.358257,-1.73672
3199,9,-1,1,-2,-1,1,-1,-1,0.326172,-0.325684,0.851074,-1.75,-0.5625,-0.25,-0.365675,-0.358257,-1.73672
3199,-2,2,1,-3,0,3,16,1,0.326172,-0.325684,0.851074,-1.75,-0.5625,-0.25,-0.365675,-0.358257,-1.73672
3200,8,-6,0,-2,-1,0,18,5,0.335449,-0.332031,0.848145,-0.5,-0.3125,-0.5,-0.365675,-0.358257,-1.73672
3200,4,-18,-6,-2,1,-3,-17,-6,0.335449,-0.332031,0.848145,-0.5,-0.3125,-0.5,-0.365675,-0.358257,-1.73672
3214,-29,-3,-2,-1,1,-1,5,-1,0.335449,-0.332031,0.848145,-0.5,-0.3125,-0.5,-0.365675,-0.358257,-1.73672
3214,17,6,-3,1,-4,-2,-4,-3,0.335449,-0.332031,0.848145,-0.5,-0.3125,-0.5,-0.365675,-0.358257,-1.73672
3216,4,-10,0,1,-2,-1,3,1,0.343262,-0.321777,0.836914,-0.4375,-0.0625,-0.6875,-0.365771,-0.358356,-1.73672
3216,0,19,2,-1,-2,0,9,-1,0.343262,-0.321777,0.836914,-0.4375,-0.0625,-0.6875,-0.365771,-0.358356,-1.73672
3236,5,0,-3,-3,-1,0,0,-4,0.343262,-0.321777,0.836914,-0.4375,-0.0625,-0.6875,-0.365771,-0.358356,-1.73672
3236,6,17,-1,-4,-5,-3,-6,-1,0.343262,-0.321777,0.836914,-0.4375,-0.0625,-0.6875,-0.365771,-0.358356,-1.73672
3238,-14,2,-3,-1,0,-1,-3,-2,0.335449,-0.328125,0.840332,0.125,-0.0625,-0.5,-0.365771,-0.358356,-1.73672
3238,-6,-5,0,-1,0,1,0,0,0.335449,-0.328125,0.840332,0.125,-0.0625,-0.5,-0.365771,-0.358356,-1.73672
3259,25,6,4,2,-1,-2,-5,-1,0.335449,-0.328125,0.840332,0.125,-0.0625,-0.5,-0.365771,-0.358356,-1.73672
3259,6,-1,-1,-2,-1,-1,-3,4,0.335449,-0.328125,0.840332,0.125,-0.0625,-0.5,-0.365771,-0.358356,-1.73672
3260,-24,-6,-4,1,0,-2,-8,-3,0.336914,-0.334961,0.844727,-0.6875,-0.125,-0.4375,-0.365866,-0.358278,-1.73672
3260,6,5,-1,0,-2,-2,-7,1,0.336914,-0.334961,0.844727,-0.6875,-0.125,-0.4375,-0.365866,-0.358278,-1.73672
3274,-15,-9,-1,-1,-3,0,-2,-9,0.336914,-0.334961,0.844727,-0.6875,-0.125,-0.4375,-0.365866,-0.358278,-1.73672
3274,17,3,1,0,2,2,2,3,0.336914,-0.334961,0.844727,-0.6875,-0.125,-0.4375,-0.365866,-0.358278,-1.73672
3276,-13,2,0,2,1,-3,-5,-2,0.337402,-0.333496,0.844727,0.75,-0.0625,-0.375,-0.365866,-0.358278,-1.73672
3276,-13,-11,0,0,0,-1,8,-1,0.337402,-0.333496,0.844727,0.75,-0.0625,-0.375,-0.365866,-0.358278,-1.73672
3297,19,13,-2,-1,-1,-1,-7,-1,0.337402,-0.333496,0.844727,0.75,-0.0625,-0.375,-0.365866,-0.358278,-1.73672
3297,-17,1,-3,-2,0,-1,2,-1,0.337402,-0.333496,0.844727,0.75,-0.0625,-0.375,-0.365866,-0.358278,-1.73672
3298,13,9,0,-3,-1,-1,-4,1,0.340332,-0.325195,0.845703,0.625,-0.0625,-0.4375,-0.365866,-0.358278,-1.73672
3298,5,4,-1,-1,2,2,5,0,0.340332,-0.325195,0.845703,0.625,-0.0625,-0.4375,-0.365866,-0.358278,-1.73672
3319,-6,-13,-4,-1,-2,-1,-2,1,0.340332,-0.325195,0.845703,0.625,-0.0625,-0.4375,-0.365866,-0.358278,-1.73672
3319,2,32,1,-4,-3,0,11,-1,0.340332,-0.325195,0.845703,0.625,-0.0625,-0.4375,-0.365866,-0.358278,-1.73672
3320,9,-5,-2,0,0,-1,-2,-2,0.339355,-0.320312,0.851562,0,-0.375,-0.5,-0.365866,-0.358278,-1.73672
3320,13,12,5,2,1,-1,2,2,0.339355,-0.320312,0.851562,0,-0.375,-0.5,-0.365866,-0.358278,-1.73672
3334,-13,-5,-2,1,2,1,0,0,0.339355,-0.320312,0.851562,0,-0.375,-0.5,-0.365866,-0.358278,-1.73672
3334,-18,-15,-1,1,1,-1,-4,-2,0.339355,-0.320312,0.851562,0,-0.375,-0.5,-0.365866,-0.358278,-1.73672
3341,-10,-6,-5,-3,-3,-1,-2,-2,0.337891,-0.331543,0.84375,-0.625,-0.125,-0.125,-0.365866,-0.358278,-1.73672
3341,13,1,-1,-2,-2,1,15,1,0.337891,-0.331543,0.84375,-0.625,-0.125,-0.125,-0.365866,-0.358278,-1.73672
3357,-1,4,0,0,-1,-2,-35,-5,0.337891,-0.331543,0.84375,-0.625,-0.125,-0.125,-0.365866,-0.358278,-1.73672
3357,-8,-5,1,1,-1,-1,-1,-1,0.337891,-0.331543,0.84375,-0.625,-0.125,-0.125,-0.365866,-0.358278,-1.73672
3359,5,1,1,-2,-1,-1,-2,1,0.332031,-0.328613,0.845703,0.5,-0.375,-0.3125,-0.365991,-0.358197,-1.7367
3359,20,13,-1,-3,-2,-4,-12,0,0.332031,-0.328613,0.845703,0.5,-0.375,-0.3125,-0.365991,-0.358197,-1.7367
3380,36,-6,-1,0,-2,2,40,-1,0.332031,-0.328613,0.845703,0.5,-0.375,-0.3125,-0.365991,-0.358197,-1.7367
3380,2,2,0,-2,-1,-2,-8,-3,0.332031,-0.328613,0.845703,0.5,-0.375,-0.3125,-0.365991,-0.358197,-1.7367
3380,-7,-3,-1,-2,-4,0,-6,-3,0.334961,-0.324219,0.842773,0.6875,0,-0.4375,-0.365991,-0.358197,-1.7367
3380,5,-6,1,1,-1,0,-3,0,0.334961,-0.324219,0.842773,0.6875,0,-0.4375,-0.365991,-0.358197,-1.7367
3394,12,6,-1,0,0,-1,4,7,0.334961,-0.324219,0.842773,0.6875,0,-0.4375,-0.365991,-0.358197,-1.7367
3394,9,-4,-2,1,-2,-1,-5,-1,0.334961,-0.324219,0.842773,0.6875,0,-0.4375,-0.365991,-0.358197,-1.7367
3400,10,-8,-3,1,0,1,8,0,0.339844,-0.319824,0.850098,-1.0625,0.375,-0.8125,-0.366,-0.358193,-1.73711
3400,1,15,-1,-4,-2,-2,-3,-1,0.339844,-0.319824,0.850098,-1.0625,0.375,-0.8125,-0.366,-0.358193,-1.73711
3416,-14,-22,-6,-1,0,-1,-3,2,0.339844,-0.319824,0.850098,-1.0625,0.375,-0.8125,-0.366,-0.358193,-1.73711
3416,-1,4,-3,-1,0,0,2,-2,0.339844,-0.319824,0.850098,-1.0625,0.375,-0.8125,-0.366,-0.358193,-1.73711
3418,7,9,0,-1,0,-1,-4,2,0.32959,-0.325195,0.849121,-1,0.25,-0.5,-0.366095,-0.358114,-1.73712
3418,-16,-11,-1,-2,0,-1,-7,-3,0.32959,-0.325195,0.849121,-1,0.25,-0.5,-0.366095,-0.358114,-1.73712
3447,-16,-3,1,-3,-1,1,18,2,0.32959,-0.325195,0.849121,-1,0.25,-0.5,-0.366095,-0.358114,-1.73712
3447,-16,-5,2,-2,-1,-2,-16,4,0.32959,-0.325195,0.849121,-1,0.25,-0.5,-0.366095,-0.358114,-1.73712
3449,2,-3,0,-2,0,0,-7,-5,0.334473,-0.332031,0.852539,0.125,0,-0.75,-0.366095,-0.358114,-1.73712
3449,-16,-1,-3,-3,-2,-2,-6,-2,0.334473,-0.332031,0.852539,0.125,0,-0.75,-0.366095,-0.358114,-1.73712
3454,-15,2,-4,-2,-2,0,4,-2,0.334473,-0.332031,0.852539,0.125,0,-0.75,-0.366095,-0.358114,-1.73712
3454,43,-7,1,0,-3,-1,0,1,0.334473,-0.332031,0.852539,0.125,0,-0.75,-0.366095,-0.358114,-1.73712
3461,-3,12,0,-1,-2,-2,0,4,0.33252,-0.330566,0.848145,-0.4375,0.25,-0.0625,-0.365998,-0.358015,-1.73712
3461,9,-14,-2,-2,-1,0,10,0,0.33252,-0.330566,0.848145,-0.4375,0.25,-0.0625,-0.365998,-0.358015,-1.73712
3477,-26,0,-1,-1,0,-3,-17,0,0.33252,-0.330566,0.848145,-0.4375,0.25,-0.0625,-0.365998,-0.358015,-1.73712
3477,0,-4,1,2,2,0,-4,2,0.33252,-0.330566,0.848145,-0.4375,0.25,-0.0625,-0.365998,-0.358015,-1.73712
3478,-2,-4,-4,0,-3,-2,-8,-6,0.32959,-0.330078,0.849609,-0.1875,0,-0.5625,-0.366123,-0.357934,-1.7371
3478,24,-1,0,1,-1,-1,10,4,0.32959,-0.330078,0.849609,-0.1875,0,-0.5625,-0.366123,-0.357934,-1.7371
3500,-3,-5,1,1,-1,0,-4,-3,0.32959,-0.330078,0.849609,-0.1875,0,-0.5625,-0.366123,-0.357934,-1.7371
3500,-8,5,-4,-3,-2,-2,-6,0,0.32959,-0.330078,0.849609,-0.1875,0,-0.5625,-0.366123,-0.357934,-1.7371
3501,-12,-11,-2,-2,-1,0,15,1,0.333496,-0.333984,0.854004,-0.3125,0.1875,-0.5,-0.366123,-0.357934,-1.7371
3501,-18,24,-1,0,-1,-2,-31,-11,0.333496,-0.333984,0.854004,-0.3125,0.1875,-0.5,-0.366123,-0.357934,-1.7371
3514,-6,4,-2,-2,0,-1,-1,1,0.333496,-0.333984,0.854004,-0.3125,0.1875,-0.5,-0.366123,-0.357934,-1.7371
3514,-10,-10,-4,-3,-1,-1,5,-3,0.333496,-0.333984,0.854004,-0.3125,0.1875,-0.5,-0.366123,-0.357934,-1.7371
3521,16,-1,0,0,1,0,-1,1,0.328613,-0.333496,0.864258,0.25,-0.3125,-0.875,-0.366218,-0.357856,-1.7371
3521,33,-5,2,3,1,3,10,4,0.328613,-0.333496,0.864258,0.25,-0.3125,-0.875,-0.366218,-0.357856,-1.7371
3537,-6,9,2,1,-1,-2,-34,0,0.328613,-0.333496,0.864258,0.25,-0.3125,-0.875,-0.366218,-0.357856,-1.7371
3537,-55,-12,-3,0,-1,-1,9,6,0.328613,-0.333496,0.864258,0.25,-0.3125,-0.875,-0.366218,-0.357856,-1.7371
3539,-5,-2,-2,-2,-1,0,-5,-12,0.32959,-0.347656,0.866699,-0.75,-0.75,-0.6875,-0.366216,-0.357679,-1.7371
3539,-2,-3,1,-4,-2,-3,0,-4,0.32959,-0.347656,0.866699,-0.75,-0.75,-0.6875,-0.366216,-0.357679,-1.7371
3559,-4,-1,-3,-3,-2,-1,9,-5,0.32959,-0.347656,0.866699,-0.75,-0.75,-0.6875,-0.366216,-0.357679,-1.7371
3559,17,-6,1,-3,0,-1,3,-2,0.32959,-0.347656,0.866699,-0.75,-0.75,-0.6875,-0.366216,-0.357679,-1.7371
3561,4,1,0,-1,-1,-3,-8,2,0.331055,-0.350586,0.854004,-1.0625,-1.5,-0.75,-0.36714,-0.35793,-1.73694
3561,-15,-9,-1,1,0,1,5,9,0.331055,-0.350586,0.854004,-1.0625,-1.5,-0.75,-0.36714,-0.35793,-1.73694
3574,22,21,-1,-1,-3,0,10,-2,0.331055,-0.350586,0.854004,-1.0625,-1.5,-0.75,-0.36714,-0.35793,-1.73694
3574,-11,2,0,-1,-3,0,-1,-4,0.331055,-0.350586,0.854004,-1.0625,-1.5,-0.75,-0.36714,-0.35793,-1.73694
3580,-20,2,0,0,1,2,1,-1,0.331543,-0.325195,0.841309,-2,-1,-0.3125,-0.367842,-0.358164,-1.73679
3580,-8,-9,-4,1,0,0,11,-1,0.331543,-0.325195,0.841309,-2,-1,-0.3125,-0.367842,-0.358164,-1.73679
3597,7,-5,0,1,0,1,-16,-6,0.331543,-0.325195,0.841309,-2,-1,-0.3125,-0.367842,-0.358164,-1.73679
3597,28,3,1,-2,0,0,15,-1,0.331543,-0.325195,0.841309,-2,-1,-0.3125,-0.367842,-0.358164,-1.73679
3598,-16,-2,-2,-1,-1,-1,-4,0,0.330078,-0.321289,0.841797,-2.9375,-1.125,-0.8125,-0.368805,-0.358409,-1.73702
3598,-4,-17,-5,-4,-5,-3,2,-4,0.330078,-0.321289,0.841797,-2.9375,-1.125,-0.8125,-0.368805,-0.358409,-1.73702
3620,-15,5,-1,0,-1,1,13,-3,0.330078,-0.321289,0.841797,-2.9375,-1.125,-0.8125,-0.368805,-0.358409,-1.73702
3620,-17,-1,-1,2,-1,-3,-41,1,0.330078,-0.321289,0.841797,-2.9375,-1.125,-0.8125,-0.368805,-0.358409,-1.73702
3621,10,-5,-4,-1,-3,-3,28,3,0.333496,-0.336914,0.837891,-4.8125,-0.4375,-0.625,-0.370563,-0.358457,-1.73711
3621,43,4,2,0,-1,2,20,18,0.333496,-0.336914,0.837891,-4.8125,-0.4375,-0.625,-0.370563,-0.358457,-1.73711
3633,3,-6,-1,0,-2,-4,-16,-5,0.333496,-0.336914,0.837891,-4.8125,-0.4375,-0.625,-0.370563,-0.358457,-1.73711
3633,-10,-2,1,0,2,2,6,-6,0.333496,-0.336914,0.837891,-4.8125,-0.4375,-0.625,-0.370563,-0.358457,-1.73711
3642,9,4,-2,0,-1,0,-2,6,0.342773,-0.325684,0.828125,-3.75,0.5,-0.375,-0.371874,-0.358538,-1.73718
3642,-12,-6,-5,-2,0,-3,-5,-7,0.342773,-0.325684,0.828125,-3.75,0.5,-0.375,-0.371874,-0.358538,-1.73718
3657,3,-1,-1,1,0,-1,10,4,0.342773,-0.325684,0.828125,-3.75,0.5,-0.375,-0.371874,-0.358538,-1.73718
3657,12,-1,0,0,-1,1,12,-1,0.342773,-0.325684,0.828125,-3.75,0.5,-0.375,-0.371874,-0.358538,-1.73718
3659,-2,-2,0,-1,-4,-2,-18,0,0.337891,-0.316406,0.835449,-8.375,1,-1.5,-0.374285,-0.358461,-1.73807
3659,-5,7,0,-2,-4,-1,-6,-7,0.337891,-0.316406,0.835449,-8.375,1,-1.5,-0.374285,-0.358461,-1.73807
3680,8,-10,0,-2,-2,-2,0,4,0.337891,-0.316406,0.835449,-8.375,1,-1.5,-0.374285,-0.358461,-1.73807
3680,-25,-10,-5,0,2,-3,-2,-3,0.337891,-0.316406,0.835449,-8.375,1,-1.5,-0.374285,-0.358461,-1.73807
3681,1,10,1,1,3,0,15,-1,0.347168,-0.347656,0.839844,-12.4375,1.0625,-2.5,-0.378618,-0.358609,-1.7389
3681,-14,2,1,4,0,-2,-38,-9,0.347168,-0.347656,0.839844,-12.4375,1.0625,-2.5,-0.378618,-0.358609,-1.7389
3693,-27,-15,-5,-1,-2,-1,4,-2,0.347168,-0.347656,0.839844,-12.4375,1.0625,-2.5,-0.378618,-0.358609,-1.7389
3693,29,6,2,1,0,-1,-23,1,0.347168,-0.347656,0.839844,-12.4375,1.0625,-2.5,-0.378618,-0.358609,-1.7389
3702,21,-5,1,-2,-4,-1,13,1,0.349121,-0.356445,0.848633,-11.4375,1.8125,-2.125,-0.382628,-0.358361,-1.7397
3702,-3,0,-1,-1,2,-1,16,-3,0.349121,-0.356445,0.848633,-11.4375,1.8125,-2.125,-0.382628,-0.358361,-1.7397
3716,-12,4,0,0,-1,-1,4,23,0.349121,-0.356445,0.848633,-11.4375,1.8125,-2.125,-0.382628,-0.358361,-1.7397
3716,-1,-3,-2,-2,-2,0,-11,-19,0.349121,-0.356445,0.848633,-11.4375,1.8125,-2.125,-0.382628,-0.358361,-1.7397
3724,-17,-5,-4,-2,1,0,-5,1,0.330566,-0.357422,0.850098,-8.6875,1.375,-1.9375,-0.385581,-0.357801,-1.74046
3724,8,-3,-1,-1,-1,0,8,5,0.330566,-0.357422,0.850098,-8.6875,1.375,-1.9375,-0.385581,-0.357801,-1.74046
3739,9,-10,-2,-5,-2,-1,-12,-21,0.330566,-0.357422,0.850098,-8.6875,1.375,-1.9375,-0.385581,-0.357801,-1.74046
3739,-5,15,-1,3,0,4,19,10,0.330566,-0.357422,0.850098,-8.6875,1.375,-1.9375,-0.385581,-0.357801,-1.74046
3740,11,1,-1,1,-2,-7,-29,-7,0.32959,-0.344727,0.848633,-7.0625,0.125,-1.875,-0.38774,-0.35776,-1.74118
3740,7,-1,-2,-1,-1,1,3,-2,0.32959,-0.344727,0.848633,-7.0625,0.125,-1.875,-0.38774,-0.35776,-1.74118
3753,-8,-3,-4,-3,-3,-3,-7,-6,0.32959,-0.344727,0.848633,-7.0625,0.125,-1.875,-0.38774,-0.35776,-1.74118
3753,9,3,1,-2,0,-1,-1,-3,0.32959,-0.344727,0.848633,-7.0625,0.125,-1.875,-0.38774,-0.35776,-1.74118
3762,-13,3,-2,-3,-4,-2,4,-5,0.329102,-0.355957,0.842773,-7.0625,0.25,-1.4375,-0.390275,-0.357521,-1.74154
3762,1,-3,-4,-3,-3,-1,-8,0,0.329102,-0.355957,0.842773,-7.0625,0.25,-1.4375,-0.390275,-0.357521,-1.74154
3777,13,0,0,-1,-2,-2,1,-3,0.329102,-0.355957,0.842773,-7.0625,0.25,-1.4375,-0.390275,-0.357521,-1.74154
3777,3,-8,-1,-4,-3,-3,5,-5,0.329102,-0.355957,0.842773,-7.0625,0.25,-1.4375,-0.390275,-0.357521,-1.74154
3779,-25,19,-2,-1,1,-2,-3,1,0.337891,-0.347656,0.836914,-5.4375,0.6875,-0.5,-0.392138,-0.35736,-1.74184
3779,25,4,2,-1,0,0,2,-2,0.337891,-0.347656,0.836914,-5.4375,0.6875,-0.5,-0.392138,-0.35736,-1.74184
3799,-9,2,-1,-3,1,0,1,-3,0.337891,-0.347656,0.836914,-5.4375,0.6875,-0.5,-0.392138,-0.35736,-1.74184
3799,-15,-7,-4,-1,0,0,-2,-1,0.337891,-0.347656,0.836914,-5.4375,0.6875,-0.5,-0.392138,-0.35736,-1.74184
3801,-2,-13,-1,1,-1,6,15,-9,0.338379,-0.34668,0.834473,-3.1875,0.4375,-0.0625,-0.39313,-0.357223,-1.74189
3801,-6,8,4,2,-1,-5,-35,-7,0.338379,-0.34668,0.834473,-3.1875,0.4375,-0.0625,-0.39313,-0.357223,-1.74189
3813,-4,5,1,2,-2,-2,2,2,0.338379,-0.34668,0.834473,-3.1875,0.4375,-0.0625,-0.39313,-0.357223,-1.74189
3813,3,1,1,-1,-2,-4,12,12,0.338379,-0.34668,0.834473,-3.1875,0.4375,-0.0625,-0.39313,-0.357223,-1.74189
3822,-1,-15,-4,-4,-1,0,6,-15,0.350586,-0.352051,0.825195,-4.875,0.625,-0.4375,-0.394963,-0.357389,-1.74202
3822,-7,-2,-2,-3,0,-2,-4,7,0.350586,-0.352051,0.825195,-4.875,0.625,-0.4375,-0.394963,-0.357389,-1.74202
3836,-1,1,-3,0,-1,1,6,19,0.350586,-0.352051,0.825195,-4.875,0.625,-0.4375,-0.394963,-0.357389,-1.74202
3836,20,5,1,-1,0,1,-4,-2,0.350586,-0.352051,0.825195,-4.875,0.625,-0.4375,-0.394963,-0.357389,-1.74202
3838,0,-5,-1,-1,-3,0,-5,7,0.339355,-0.359375,0.833496,-7.375,0.5,-1,-0.397633,-0.357427,-1.74237
3838,0,-13,0,1,-1,0,0,-10,0.339355,-0.359375,0.833496,-7.375,0.5,-1,-0.397633,-0.357427,-1.74237
3860,-8,4,-2,0,2,0,0,-3,0.339355,-0.359375,0.833496,-7.375,0.5,-1,-0.397633,-0.357427,-1.74237
3860,-19,0,-1,-1,-3,1,6,3,0.339355,-0.359375,0.833496,-7.375,0.5,-1,-0.397633,-0.357427,-1.74237
3861,17,4,4,0,-1,-3,-15,3,0.325684,-0.349609,0.833008,-6.3125,0.0625,-1.8125,-0.399606,-0.357375,-1.7431
3861,-6,-17,-5,-2,-2,-1,37,-1,0.325684,-0.349609,0.833008,-6.3125,0.0625,-1.8125,-0.399606,-0.357375,-1.7431
3873,-2,-5,-2,2,0,-3,-26,-9,0.325684,-0.349609,0.833008,-6.3125,0.0625,-1.8125,-0.399606,-0.357375,-1.7431
3873,-20,-9,-7,-4,-4,-2,-5,4,0.325684,-0.349609,0.833008,-6.3125,0.0625,-1.8125,-0.399606,-0.357375,-1.7431
3881,-10,-16,-3,-2,-2,0,-2,0,0.324707,-0.353027,0.845215,-7,0.625,-2,-0.401545,-0.356977,-1.74385
3881,-21,-2,0,1,0,2,-6,-5,0.324707,-0.353027,0.845215,-7,0.625,-2,-0.401545,-0.356977,-1.74385
3897,2,11,5,-3,0,2,9,-4,0.324707,-0.353027,0.845215,-7,0.625,-2,-0.401545,-0.356977,-1.74385
3897,-37,-17,-7,-4,1,-2,0,-10,0.324707,-0.353027,0.845215,-7,0.625,-2,-0.401545,-0.356977,-1.74385
3898,5,1,1,0,-1,-1,-12,3,0.331543,-0.352051,0.831055,-6.0625,0.8125,-1.125,-0.40345,-0.356792,-1.74439
3898,11,7,-1,-1,-1,0,11,6,0.331543,-0.352051,0.831055,-6.0625,0.8125,-1.125,-0.40345,-0.356792,-1.74439
3920,-13,-12,-4,-3,-3,-3,-1,-7,0.331543,-0.352051,0.831055,-6.0625,0.8125,-1.125,-0.40345,-0.356792,-1.74439
3920,2,-2,1,-2,-2,-1,-10,-7,0.331543,-0.352051,0.831055,-6.0625,0.8125,-1.125,-0.40345,-0.356792,-1.74439
3921,13,2,-2,-3,-2,-2,5,5,0.338379,-0.343262,0.842285,-6.5625,0.625,-1.5,-0.405041,-0.356703,-1.74511
3921,-7,9,-7,-3,-3,-3,-10,-8,0.338379,-0.343262,0.842285,-6.5625,0.625,-1.5,-0.405041,-0.356703,-1.74511
3933,13,2,1,3,2,2,-4,-2,0.338379,-0.343262,0.842285,-6.5625,0.625,-1.5,-0.405041,-0.356703,-1.74511
3933,17,1,0,-2,-2,-3,5,13,0.338379,-0.343262,0.842285,-6.5625,0.625,-1.5,-0.405041,-0.356703,-1.74511
3950,-18,-3,-2,2,0,-1,19,-8,0.338379,-0.364258,0.845215,-7.25,0,-2.625,-0.407223,-0.357007,-1.74608
3950,17,3,0,-2,-1,-3,-9,-1,0.338379,-0.364258,0.845215,-7.25,0,-2.625,-0.407223,-0.357007,-1.74608
3957,-21,-14,-4,-3,-4,-2,-3,-2,0.338379,-0.364258,0.845215,-7.25,0,-2.625,-0.407223,-0.357007,-1.74608
3957,23,14,-3,-4,-4,-2,4,-3,0.338379,-0.364258,0.845215,-7.25,0,-2.625,-0.407223,-0.357007,-1.74608
3959,-23,2,0,0,0,1,-4,-2,0.347168,-0.361328,0.837402,-4.75,0.5625,-2.5625,-0.408506,-0.357369,-1.747
3959,-2,-1,0,1,1,1,4,-17,0.347168,-0.361328,0.837402,-4.75,0.5625,-2.5625,-0.408506,-0.357369,-1.747
3980,-31,8,5,3,2,2,2,16,0.347168,-0.361328,0.837402,-4.75,0.5625,-2.5625,-0.408506,-0.357369,-1.747
3980,10,1,3,4,0,-1,-6,-4,0.347168,-0.361328,0.837402,-4.75,0.5625,-2.5625,-0.408506,-0.357369,-1.747
3981,-18,1,0,2,5,5,4,-4,0.341309,-0.350586,0.840332,-2.25,0.375,-2.5,-0.408601,-0.357522,-1.74804
3981,-25,-14,-6,-2,0,-1,-11,-1,0.341309,-0.350586,0.840332,-2.25,0.375,-2.5,-0.408601,-0.357522,-1.74804
4002,-21,4,-2,-2,1,2,3,-3,0.341309,-0.350586,0.840332,-2.25,0.375,-2.5,-0.408601,-0.357522,-1.74804
4002,27,-11,-4,-3,-4,-2,10,0,0.341309,-0.350586,0.840332,-2.25,0.375,-2.5,-0.408601,-0.357522,-1.74804
4003,41,2,3,0,-2,-4,-15,-4,0.32959,-0.351074,0.833984,-3.9375,-0.75,-2.4375,-0.409434,-0.357914,-1.74892
4003,-35,-4,2,3,2,2,7,10,0.32959,-0.351074,0.833984,-3.9375,-0.75,-2.4375,-0.409434,-0.357914,-1.74892
4017,-22,3,1,-4,-2,-2,3,-6,0.32959,-0.351074,0.833984,-3.9375,-0.75,-2.4375,-0.409434,-0.357914,-1.74892
4017,2,-15,-3,-1,-1,1,6,10,0.32959,-0.351074,0.833984,-3.9375,-0.75,-2.4375,-0.409434,-0.357914,-1.74892
4018,15,-6,-3,-4,-4,-3,-8,-9,0.341309,-0.364746,0.830566,-5.5,-1.3125,-3.3125,-0.411139,-0.358753,-1.74969
4018,25,2,6,6,1,2,5,-1,0.341309,-0.364746,0.830566,-5.5,-1.3125,-3.3125,-0.411139,-0.358753,-1.74969
4040,0,12,5,0,2,1,20,3,0.341309,-0.364746,0.830566,-5.5,-1.3125,-3.3125,-0.411139,-0.358753,-1.74969
4040,18,0,-1,-3,-2,-1,-4,-12,0.341309,-0.364746,0.830566,-5.5,-1.3125,-3.3125,-0.411139,-0.358753,-1.74969
4041,-23,-8,-4,-3,-6,-2,31,-4,0.344727,-0.380371,0.847656,-4.3125,-1.8125,-2.6875,-0.412651,-0.359633,-1.75039
4041,-4,-4,-1,6,3,4,-5,-2,0.344727,-0.380371,0.847656,-4.3125,-1.8125,-2.6875,-0.412651,-0.359633,-1.75039
4053,-6,11,0,-1,-2,-4,-1,5,0.344727,-0.380371,0.847656,-4.3125,-1.8125,-2.6875,-0.412651,-0.359633,-1.75039
4053,25,7,-1,-1,-5,-5,-26,-3,0.344727,-0.380371,0.847656,-4.3125,-1.8125,-2.6875,-0.412651,-0.359633,-1.75039
4062,41,-17,-9,-1,2,3,-9,-10,0.339355,-0.376953,0.835938,-3.8125,-1.1875,-2.5,-0.413864,-0.360181,-1.75092
4062,3,13,4,3,1,3,-13,7,0.339355,-0.376953,0.835938,-3.8125,-1.1875,-2.5,-0.413864,-0.360181,-1.75092
4077,-22,-2,-5,-7,-7,-4,18,-7,0.339355,-0.376953,0.835938,-3.8125,-1.1875,-2.5,-0.413864,-0.360181,-1.75092
4077,-71,-14,-6,-1,8,2,-4,-2,0.339355,-0.376953,0.835938,-3.8125,-1.1875,-2.5,-0.413864,-0.360181,-1.75092
4079,5,8,0,1,0,-1,-7,4,0.347168,-0.354492,0.81543,-4.9375,-0.5,-1.9375,-0.415338,-0.360858,-1.75147
4079,6,15,1,-2,-1,2,11,8,0.347168,-0.354492,0.81543,-4.9375,-0.5,-1.9375,-0.415338,-0.360858,-1.75147
4099,-41,-2,-6,-3,-1,0,-17,-5,0.347168,-0.354492,0.81543,-4.9375,-0.5,-1.9375,-0.415338,-0.360858,-1.75147
4099,71,19,6,0,-6,-5,1,-1,0.347168,-0.354492,0.81543,-4.9375,-0.5,-1.9375,-0.415338,-0.360858,-1.75147
4101,-35,53,1,0,2,1,1,6,0.337891,-0.365234,0.819336,-6.625,-0.625,-1.375,-0.417447,-0.361207,-1.75182
4101,-32,26,-2,1,4,1,-2,-1,0.337891,-0.365234,0.819336,-6.625,-0.625,-1.375,-0.417447,-0.361207,-1.75182
4122,18,19,0,-2,-2,1,18,-12,0.337891,-0.365234,0.819336,-6.625,-0.625,-1.375,-0.417447,-0.361207,-1.75182
4122,28,7,-2,-2,-4,-5,2,5,0.337891,-0.365234,0.819336,-6.625,-0.625,-1.375,-0.417447,-0.361207,-1.75182
4124,-45,-15,-2,1,-1,-3,10,19,0.348145,-0.400879,0.827637,-5.8125,-0.6875,-0.875,-0.420129,-0.361557,-1.75183
4124,-31,-9,0,2,2,1,3,4,0.348145,-0.400879,0.827637,-5.8125,-0.6875,-0.875,-0.420129,-0.361557,-1.75183
4137,29,-18,-6,-3,-4,-5,-7,-5,0.348145,-0.400879,0.827637,-5.8125,-0.6875,-0.875,-0.420129,-0.361557,-1.75183
4137,-34,-23,-1,3,3,4,10,2,0.348145,-0.400879,0.827637,-5.8125,-0.6875,-0.875,-0.420129,-0.361557,-1.75183
4139,11,-3,4,0,-3,-1,-8,2,0.352539,-0.410645,0.82666,-5.625,-0.75,-0.75,-0.42297,-0.361961,-1.75162
4139,17,-2,8,2,3,1,8,8,0.352539,-0.410645,0.82666,-5.625,-0.75,-0.75,-0.42297,-0.361961,-1.75162
4158,-50,-8,-8,-5,-1,0,-16,-7,0.352539,-0.410645,0.82666,-5.625,-0.75,-0.75,-0.42297,-0.361961,-1.75162
4158,-34,-19,-4,-2,-1,2,-1,-13,0.352539,-0.410645,0.82666,-5.625,-0.75,-0.75,-0.42297,-0.361961,-1.75162
4160,3,-9,-3,-2,-2,-2,-2,-1,0.327637,-0.390625,0.826172,-10.125,-2,-2.875,-0.426642,-0.362558,-1.75213
4160,-1,-13,3,-2,0,-2,1,0,0.327637,-0.390625,0.826172,-10.125,-2,-2.875,-0.426642,-0.362558,-1.75213
4182,56,9,3,-4,-3,-2,-11,0,0.327637,-0.390625,0.826172,-10.125,-2,-2.875,-0.426642,-0.362558,-1.75213
4182,21,-9,4,3,-3,-1,-2,1,0.327637,-0.390625,0.826172,-10.125,-2,-2.875,-0.426642,-0.362558,-1.75213
4183,-17,-18,-4,0,3,1,6,3,0.322266,-0.399902,0.827637,-8.4375,-2.8125,-4.3125,-0.429621,-0.36342,-1.753
4183,6,-12,-3,0,0,3,13,-2,0.322266,-0.399902,0.827637,-8.4375,-2.8125,-4.3125,-0.429621,-0.36342,-1.753
4197,25,-8,0,-1,-3,-6,21,6,0.322266,-0.399902,0.827637,-8.4375,-2.8125,-4.3125,-0.429621,-0.36342,-1.753
4197,1,-14,-7,-3,-3,-5,-7,-12,0.322266,-0.399902,0.827637,-8.4375,-2.8125,-4.3125,-0.429621,-0.36342,-1.753
4198,30,-8,3,0,1,0,1,3,0.32959,-0.397949,0.829102,-7.625,-2.5,-4.6875,-0.432286,-0.364382,-1.75406
4198,-28,1,0,-3,1,-2,-7,3,0.32959,-0.397949,0.829102,-7.625,-2.5,-4.6875,-0.432286,-0.364382,-1.75406
4220,47,7,2,-2,-2,-2,-15,6,0.32959,-0.397949,0.829102,-7.625,-2.5,-4.6875,-0.432286,-0.364382,-1.75406
4220,-1,7,-2,-1,-2,0,-1,-4,0.32959,-0.397949,0.829102,-7.625,-2.5,-4.6875,-0.432286,-0.364382,-1.75406
4221,-4,-6,0,2,-1,-1,1,-1,0.34082,-0.360352,0.81543,-7.0625,-1.875,-4.1875,-0.433928,-0.365548,-1.75544
4221,22,-4,-2,-2,-2,3,-1,0,0.34082,-0.360352,0.81543,-7.0625,-1.875,-4.1875,-0.433928,-0.365548,-1.75544
4242,-6,-21,-7,-5,-4,-6,-8,-8,0.34082,-0.360352,0.81543,-7.0625,-1.875,-4.1875,-0.433928,-0.365548,-1.75544
4242,-13,-11,-3,0,2,1,-6,-2,0.34082,-0.360352,0.81543,-7.0625,-1.875,-4.1875,-0.433928,-0.365548,-1.75544
4243,1,5,-1,-1,0,0,-19,0,0.35498,-0.358887,0.816406,-6.3125,-2.4375,-3.375,-0.435438,-0.367137,-1.75639
4243,-20,8,-1,2,1,-3,-19,-1,0.35498,-0.358887,0.816406,-6.3125,-2.4375,-3.375,-0.435438,-0.367137,-1.75639
4256,13,2,-2,-4,-6,-3,-7,-4,0.35498,-0.358887,0.816406,-6.3125,-2.4375,-3.375,-0.435438,-0.367137,-1.75639
4256,26,20,2,0,1,2,9,0,0.35498,-0.358887,0.816406,-6.3125,-2.4375,-3.375,-0.435438,-0.367137,-1.75639
4258,-8,15,-1,-5,-4,-5,-6,9,0.358398,-0.370117,0.810547,-3.5625,-2.25,-2.8125,-0.436221,-0.368549,-1.75692
4258,49,16,4,0,-2,-2,1,-8,0.358398,-0.370117,0.810547,-3.5625,-2.25,-2.8125,-0.436221,-0.368549,-1.75692
4279,-33,13,-5,-1,-1,1,-10,-4,0.371582,-0.356445,0.804199,-4.6875,-1.875,-2.3125,-0.437208,-0.370198,-1.75763
4279,-13,0,-1,2,-1,3,-2,9,0.371582,-0.356445,0.804199,-4.6875,-1.875,-2.3125,-0.437208,-0.370198,-1.75763
4280,-1,3,1,0,0,0,9,-5,0.371582,-0.356445,0.804199,-4.6875,-1.875,-2.3125,-0.437208,-0.370198,-1.75763
4280,102,20,6,-3,-8,-10,-11,7,0.371582,-0.356445,0.804199,-4.6875,-1.875,-2.3125,-0.437208,-0.370198,-1.75763
4302,-50,-11,0,2,1,0,-13,-5,0.370605,-0.364746,0.804688,-1,-0.9375,-1.5625,-0.437173,-0.371284,-1.75805
4302,-7,-1,-3,-5,-1,-4,0,-6,0.370605,-0.364746,0.804688,-1,-0.9375,-1.5625,-0.437173,-0.371284,-1.75805
4302,-11,-11,-6,0,0,3,0,2,0.370605,-0.364746,0.804688,-1,-0.9375,-1.5625,-0.437173,-0.371284,-1.75805
4302,-37,-3,-4,-2,-1,2,15,-3,0.370605,-0.364746,0.804688,-1,-0.9375,-1.5625,-0.437173,-0.371284,-1.75805
4316,-16,-12,-4,-3,-2,-6,-33,-6,0.368652,-0.367188,0.821289,2.6875,-0.6875,-0.625,-0.435732,-0.371969,-1.75835
4316,4,4,3,-1,0,1,-4,3,0.368652,-0.367188,0.821289,2.6875,-0.6875,-0.625,-0.435732,-0.371969,-1.75835
4324,16,4,1,-1,-3,-2,8,-9,0.368652,-0.367188,0.821289,2.6875,-0.6875,-0.625,-0.435732,-0.371969,-1.75835
4324,-61,-5,-3,-1,-1,0,2,16,0.368652,-0.367188,0.821289,2.6875,-0.6875,-0.625,-0.435732,-0.371969,-1.75835
4338,-27,-4,-1,2,1,3,-3,-5,0.36084,-0.37207,0.818848,1.375,-0.8125,-0.5,-0.435064,-0.372538,-1.75849
4338,23,0,0,2,1,-1,-1,5,0.36084,-0.37207,0.818848,1.375,-0.8125,-0.5,-0.435064,-0.372538,-1.75849
4340,0,-7,-4,-2,-2,-3,-16,-6,0.36084,-0.37207,0.818848,1.375,-0.8125,-0.5,-0.435064,-0.372538,-1.75849
4340,-18,-10,-3,1,0,2,17,-1,0.36084,-0.37207,0.818848,1.375,-0.8125,-0.5,-0.435064,-0.372538,-1.75849
4361,16,6,1,-2,-1,-2,-5,1,0.35498,-0.386719,0.830566,0.8125,-1.125,-0.75,-0.434647,-0.372849,-1.75849
4361,23,12,3,-3,0,-4,-2,4,0.35498,-0.386719,0.830566,0.8125,-1.125,-0.75,-0.434647,-0.372849,-1.75849
4362,-9,3,-1,0,-2,-2,0,-3,0.35498,-0.386719,0.830566,0.8125,-1.125,-0.75,-0.434647,-0.372849,-1.75849
4362,-18,-11,-4,2,-1,1,-9,-8,0.35498,-0.386719,0.830566,0.8125,-1.125,-0.75,-0.434647,-0.372849,-1.75849
4375,2,7,5,1,-2,0,15,6,0.351562,-0.392578,0.825195,3.4375,-1,-0.3125,-0.433774,-0.373063,-1.75839
4375,10,-2,-6,-3,-2,0,-5,-9,0.351562,-0.392578,0.825195,3.4375,-1,-0.3125,-0.433774,-0.373063,-1.75839
4383,6,3,-1,-3,-4,-2,25,7,0.351562,-0.392578,0.825195,3.4375,-1,-0.3125,-0.433774,-0.373063,-1.75839
4383,-24,4,1,-1,2,-1,-11,-10,0.351562,-0.392578,0.825195,3.4375,-1,-0.3125,-0.433774,-0.373063,-1.75839
4398,-10,4,2,3,3,3,8,4,0.348145,-0.37207,0.814941,3.125,-0.0625,0.375,-0.432602,-0.372976,-1.75831
4398,-7,-1,-2,0,-1,-1,6,0,0.348145,-0.37207,0.814941,3.125,-0.0625,0.375,-0.432602,-0.372976,-1.75831
4399,33,-2,1,1,-1,-2,-12,-2,0.348145,-0.37207,0.814941,3.125,-0.0625,0.375,-0.432602,-0.372976,-1.75831
4399,16,1,-1,-1,-2,1,12,17,0.348145,-0.37207,0.814941,3.125,-0.0625,0.375,-0.432602,-0.372976,-1.75831
4421,51,5,1,-3,-3,-1,20,4,0.345215,-0.379883,0.83252,0.3125,-0.25,-0.125,-0.432503,-0.372876,-1.75831
4421,15,-3,1,0,-2,-4,-19,-11,0.345215,-0.379883,0.83252,0.3125,-0.25,-0.125,-0.432503,-0.372876,-1.75831
4422,-12,-10,-3,-2,0,0,-4,1,0.345215,-0.379883,0.83252,0.3125,-0.25,-0.125,-0.432503,-0.372876,-1.75831
4422,46,13,2,0,-2,-1,38,2,0.345215,-0.379883,0.83252,0.3125,-0.25,-0.125,-0.432503,-0.372876,-1.75831
4435,-18,4,1,3,5,2,-10,-4,0.331543,-0.405273,0.836914,0.8125,-0.8125,-0.4375,-0.432728,-0.372718,-1.7583
4435,-14,-7,-5,-4,-6,-2,1,6,0.331543,-0.405273,0.836914,0.8125,-0.8125,-0.4375,-0.432728,-0.372718,-1.7583
4444,-27,-5,1,0,4,5,9,1,0.331543,-0.405273,0.836914,0.8125,-0.8125,-0.4375,-0.432728,-0.372718,-1.7583
4444,-24,-7,-2,2,2,-1,0,3,0.331543,-0.405273,0.836914,0.8125,-0.8125,-0.4375,-0.432728,-0.372718,-1.7583
4459,35,-9,0,-2,-5,-1,8,-10,0.326172,-0.389648,0.825195,2.1875,-1.375,-0.375,-0.432134,-0.372491,-1.75805
4459,-15,-7,-2,-2,1,-1,-8,-8,0.326172,-0.389648,0.825195,2.1875,-1.375,-0.375,-0.432134,-0.372491,-1.75805
4459,-14,5,0,-3,-3,-2,-19,-9,0.326172,-0.389648,0.825195,2.1875,-1.375,-0.375,-0.432134,-0.372491,-1.75805
4459,-10,-9,-4,-1,0,-2,0,0,0.326172,-0.389648,0.825195,2.1875,-1.375,-0.375,-0.432134,-0.372491,-1.75805
4481,-18,-15,-6,-3,-1,-1,-3,-2,0.338379,-0.377441,0.813477,2.5,-2.3125,-0.375,-0.431422,-0.372877,-1.75779
4481,31,8,2,1,-1,1,53,10,0.338379,-0.377441,0.813477,2.5,-2.3125,-0.375,-0.431422,-0.372877,-1.75779
4482,53,7,2,-4,-7,-5,-17,2,0.338379,-0.377441,0.813477,2.5,-2.3125,-0.375,-0.431422,-0.372877,-1.75779
4482,-75,-9,-5,-3,3,1,-10,-15,0.338379,-0.377441,0.813477,2.5,-2.3125,-0.375,-0.431422,-0.372877,-1.75779
4496,-3,-10,-7,-6,-6,-6,-9,0,0.353027,-0.390137,0.824707,-1.6875,-1.5,-1.375,-0.432083,-0.373526,-1.75787
4496,-8,2,-2,-1,0,1,4,-4,0.353027,-0.390137,0.824707,-1.6875,-1.5,-1.375,-0.432083,-0.373526,-1.75787
4504,-1,3,0,2,-1,1,7,-8,0.353027,-0.390137,0.824707,-1.6875,-1.5,-1.375,-0.432083,-0.373526,-1.75787
4504,42,9,3,-2,-3,-3,-8,0,0.353027,-0.390137,0.824707,-1.6875,-1.5,-1.375,-0.432083,-0.373526,-1.75787
4519,-17,0,0,0,4,2,5,-3,0.350586,-0.394531,0.818848,-0.125,-1.8125,-1.8125,-0.432391,-0.374158,-1.75809
4519,-57,1,-2,1,5,3,-10,-1,0.350586,-0.394531,0.818848,-0.125,-1.8125,-1.8125,-0.432391,-0.374158,-1.75809
4519,-23,-16,-8,-1,-2,-2,-4,-3,0.350586,-0.394531,0.818848,-0.125,-1.8125,-1.8125,-0.432391,-0.374158,-1.75809
4519,54,4,1,-4,0,1,-58,-6,0.350586,-0.394531,0.818848,-0.125,-1.8125,-1.8125,-0.432391,-0.374158,-1.75809
4541,-8,1,3,2,-1,-1,27,-3,0.333984,-0.367676,0.839844,2.5,-2.625,-2,-0.431016,-0.374633,-1.75861
4541,58,5,2,-5,-9,-7,-21,7,0.333984,-0.367676,0.839844,2.5,-2.625,-2,-0.431016,-0.374633,-1.75861
4541,0,-17,-6,-3,-1,-4,-12,-3,0.333984,-0.367676,0.839844,2.5,-2.625,-2,-0.431016,-0.374633,-1.75861
4541,-1,-10,-7,-1,-5,-4,-1,-3,0.333984,-0.367676,0.839844,2.5,-2.625,-2,-0.431016,-0.374633,-1.75861
4555,-10,7,3,4,-1,3,3,-9,0.347168,-0.368652,0.819824,-1,-2.5,-1.8125,-0.431102,-0.3756,-1.75884
4555,-12,6,1,0,0,0,-4,2,0.347168,-0.368652,0.819824,-1,-2.5,-1.8125,-0.431102,-0.3756,-1.75884
4564,5,7,4,1,3,1,-3,-1,0.347168,-0.368652,0.819824,-1,-2.5,-1.8125,-0.431102,-0.3756,-1.75884
4564,-19,-17,-9,-5,-3,-3,-12,-21,0.347168,-0.368652,0.819824,-1,-2.5,-1.8125,-0.431102,-0.3756,-1.75884
4578,-10,-3,-3,-3,-1,-2,13,20,0.361328,-0.391602,0.829102,-1.5,-3.0625,-1.8125,-0.431773,-0.37678,-1.7589
4578,3,-3,2,-4,-1,1,0,-2,0.361328,-0.391602,0.829102,-1.5,-3.0625,-1.8125,-0.431773,-0.37678,-1.7589
4579,4,12,1,-2,0,-1,8,1,0.361328,-0.391602,0.829102,-1.5,-3.0625,-1.8125,-0.431773,-0.37678,-1.7589
4579,-28,-9,-5,-4,-3,-4,-15,-22,0.361328,-0.391602,0.829102,-1.5,-3.0625,-1.8125,-0.431773,-0.37678,-1.7589
4601,-9,1,0,3,3,1,-8,11,0.368164,-0.388184,0.8125,0.875,-1.25,-1.9375,-0.43157,-0.377659,-1.75931
4601,-22,-4,-1,1,-2,-3,-6,-4,0.368164,-0.388184,0.8125,0.875,-1.25,-1.9375,-0.43157,-0.377659,-1.75931
4602,24,9,4,1,-5,-2,6,8,0.368164,-0.388184,0.8125,0.875,-1.25,-1.9375,-0.43157,-0.377659,-1.75931
4602,-25,0,-7,-3,-4,0,19,-10,0.368164,-0.388184,0.8125,0.875,-1.25,-1.9375,-0.43157,-0.377659,-1.75931
4616,-35,-8,-6,-4,-1,-6,-39,-7,0.370605,-0.35498,0.812988,3,-0.1875,-1.9375,-0.429844,-0.378411,-1.76004
4616,-7,1,1,3,0,-2,-17,-2,0.370605,-0.35498,0.812988,3,-0.1875,-1.9375,-0.429844,-0.378411,-1.76004
4624,-2,-10,-4,1,1,3,37,-4,0.370605,-0.35498,0.812988,3,-0.1875,-1.9375,-0.429844,-0.378411,-1.76004
4624,1,-1,1,-1,-5,-2,13,10,0.370605,-0.35498,0.812988,3,-0.1875,-1.9375,-0.429844,-0.378411,-1.76004
4639,18,-3,4,-1,1,-2,-3,-3,0.375977,-0.364258,0.804688,0.375,0.9375,0,-0.429847,-0.378588,-1.76004
4639,-38,20,-6,-3,0,-1,-3,-5,0.375977,-0.364258,0.804688,0.375,0.9375,0,-0.429847,-0.378588,-1.76004
4640,-42,-10,-4,-2,-1,0,1,-13,0.375977,-0.364258,0.804688,0.375,0.9375,0,-0.429847,-0.378588,-1.76004
4640,-3,3,2,3,3,-3,-35,2,0.375977,-0.364258,0.804688,0.375,0.9375,0,-0.429847,-0.378588,-1.76004
4661,18,4,0,-3,-4,-1,9,-5,0.369629,-0.379883,0.810547,-1.8125,1.6875,0.4375,-0.430554,-0.378166,-1.7601
4661,3,-6,1,-2,-2,0,-3,-1,0.369629,-0.379883,0.810547,-1.8125,1.6875,0.4375,-0.430554,-0.378166,-1.7601
4662,4,-3,-4,0,-3,-3,-8,6,0.369629,-0.379883,0.810547,-1.8125,1.6875,0.4375,-0.430554,-0.378166,-1.7601
4662,17,16,10,6,4,5,4,12,0.369629,-0.379883,0.810547,-1.8125,1.6875,0.4375,-0.430554,-0.378166,-1.7601
4675,-16,3,-2,0,-1,-3,-10,-14,0.36084,-0.388672,0.801758,-1.5625,1.375,-0.25,-0.431461,-0.377946,-1.76017
4675,25,-5,-2,-1,-1,-4,-7,4,0.36084,-0.388672,0.801758,-1.5625,1.375,-0.25,-0.431461,-0.377946,-1.76017
4684,-8,0,0,0,-1,-4,-20,4,0.36084,-0.388672,0.801758,-1.5625,1.375,-0.25,-0.431461,-0.377946,-1.76017
4684,16,5,4,2,0,5,51,8,0.36084,-0.388672,0.801758,-1.5625,1.375,-0.25,-0.431461,-0.377946,-1.76017
4698,-8,1,0,0,0,-2,-25,-2,0.355469,-0.38623,0.808105,-1.875,1.25,-0.375,-0.432369,-0.377586,-1.76043
4698,32,-3,-3,-1,-1,2,8,-9,0.355469,-0.38623,0.808105,-1.875,1.25,-0.375,-0.432369,-0.377586,-1.76043
4699,-2,1,2,0,1,-2,-5,3,0.355469,-0.38623,0.808105,-1.875,1.25,-0.375,-0.432369,-0.377586,-1.76043
4699,28,5,2,-2,-8,-3,16,7,0.355469,-0.38623,0.808105,-1.875,1.25,-0.375,-0.432369,-0.377586,-1.76043
4722,9,-5,-5,-2,-2,-6,-27,-3,0.356445,-0.38623,0.813477,-1.875,0.75,-0.375,-0.43308,-0.377342,-1.7605
4722,-12,0,-3,2,-1,2,10,-8,0.356445,-0.38623,0.813477,-1.875,0.75,-0.375,-0.43308,-0.377342,-1.7605
4722,-9,-4,-4,2,1,-3,-13,3,0.356445,-0.38623,0.813477,-1.875,0.75,-0.375,-0.43308,-0.377342,-1.7605
4722,25,4,0,0,-1,-1,-6,-4,0.356445,-0.38623,0.813477,-1.875,0.75,-0.375,-0.43308,-0.377342,-1.7605
4736,30,4,3,-1,-2,1,7,-7,0.356445,-0.384277,0.828125,-2.875,0.9375,-0.25,-0.433956,-0.376988,-1.76077
4736,-55,-24,-2,0,2,-2,-8,1,0.356445,-0.384277,0.828125,-2.875,0.9375,-0.25,-0.433956,-0.376988,-1.76077
4744,-1,5,-1,-4,-4,-1,-2,-4,0.356445,-0.384277,0.828125,-2.875,0.9375,-0.25,-0.433956,-0.376988,-1.76077
4744,20,-1,0,-2,2,3,5,-13,0.356445,-0.384277,0.828125,-2.875,0.9375,-0.25,-0.433956,-0.376988,-1.76077
4759,14,-2,-1,-1,-3,-2,8,-1,0.349609,-0.391602,0.843262,-2.25,1.0625,-0.75,-0.434669,-0.376287,-1.76123
4759,-15,-4,-4,0,-1,1,2,7,0.349609,-0.391602,0.843262,-2.25,1.0625,-0.75,-0.434669,-0.376287,-1.76123
4759,18,4,5,2,-2,-1,3,-2,0.349609,-0.391602,0.843262,-2.25,1.0625,-0.75,-0.434669,-0.376287,-1.76123
4759,28,12,-2,-2,-4,-6,-8,6,0.349609,-0.391602,0.843262,-2.25,1.0625,-0.75,-0.434669,-0.376287,-1.76123
4781,-50,-13,-6,-5,1,3,12,1,0.346191,-0.397461,0.831543,0.25,0.9375,-0.5,-0.434766,-0.376211,-1.76123
4781,36,-5,1,-2,-2,-3,2,-10,0.346191,-0.397461,0.831543,0.25,0.9375,-0.5,-0.434766,-0.376211,-1.76123
4782,27,-9,-3,-1,0,-1,-8,0,0.346191,-0.397461,0.831543,0.25,0.9375,-0.5,-0.434766,-0.376211,-1.76123
4782,-21,-7,-6,-1,0,0,-4,4,0.346191,-0.397461,0.831543,0.25,0.9375,-0.5,-0.434766,-0.376211,-1.76123
4795,4,3,-3,-3,-1,-3,-2,1,0.344727,-0.367188,0.821289,-1.1875,0.75,-0.625,-0.434605,-0.375842,-1.76165
4795,11,4,-1,1,3,2,-7,-7,0.344727,-0.367188,0.821289,-1.1875,0.75,-0.625,-0.434605,-0.375842,-1.76165
4804,21,5,0,-3,-1,1,6,19,0.344727,-0.367188,0.821289,-1.1875,0.75,-0.625,-0.434605,-0.375842,-1.76165
4804,-40,-8,3,6,9,1,-32,-1,0.344727,-0.367188,0.821289,-1.1875,0.75,-0.625,-0.434605,-0.375842,-1.76165
4818,17,-4,-4,-2,-4,-3,27,4,0.339844,-0.375,0.823242,-2.5625,0.5,-0.75,-0.435187,-0.375365,-1.76193
4818,-30,16,-2,-1,-2,-3,-5,-14,0.339844,-0.375,0.823242,-2.5625,0.5,-0.75,-0.435187,-0.375365,-1.76193
4819,3,-7,-2,2,0,1,17,-3,0.339844,-0.375,0.823242,-2.5625,0.5,-0.75,-0.435187,-0.375365,-1.76193
4819,8,-4,0,0,0,0,1,8,0.339844,-0.375,0.823242,-2.5625,0.5,-0.75,-0.435187,-0.375365,-1.76193
4841,11,-2,-3,-5,-5,0,-4,-1,0.344238,-0.393555,0.828613,-1.8125,0.5625,-1.4375,-0.435781,-0.37496,-1.76257
4841,27,-1,1,-1,0,-2,-16,3,0.344238,-0.393555,0.828613,-1.8125,0.5625,-1.4375,-0.435781,-0.37496,-1.76257
4842,-25,0,2,0,0,1,-20,-15,0.344238,-0.393555,0.828613,-1.8125,0.5625,-1.4375,-0.435781,-0.37496,-1.76257
4842,-19,-9,-2,2,1,-2,30,12,0.344238,-0.393555,0.828613,-1.8125,0.5625,-1.4375,-0.435781,-0.37496,-1.76257
4856,13,9,-1,-2,-1,-2,2,5,0.355469,-0.394043,0.81543,-0.25,-0.1875,-1.1875,-0.436083,-0.375241,-1.76281
4856,23,4,5,1,0,-1,-18,0,0.355469,-0.394043,0.81543,-0.25,-0.1875,-1.1875,-0.436083,-0.375241,-1.76281
4863,-17,3,2,-1,0,-2,-6,-7,0.355469,-0.394043,0.81543,-0.25,-0.1875,-1.1875,-0.436083,-0.375241,-1.76281
4863,-15,-5,-4,-4,-2,-3,-8,-4,0.355469,-0.394043,0.81543,-0.25,-0.1875,-1.1875,-0.436083,-0.375241,-1.76281
4879,8,-32,-5,-2,-4,0,-7,-6,0.358398,-0.381836,0.807129,-0.1875,0.0625,-0.75,-0.436083,-0.375241,-1.76281
4879,3,-2,1,1,0,1,8,9,0.358398,-0.381836,0.807129,-0.1875,0.0625,-0.75,-0.436083,-0.375241,-1.76281
4880,12,9,0,-2,-1,-1,-4,-1,0.358398,-0.381836,0.807129,-0.1875,0.0625,-0.75,-0.436083,-0.375241,-1.76281
4880,-37,-5,0,-1,-3,-2,-10,-7,0.358398,-0.381836,0.807129,-0.1875,0.0625,-0.75,-0.436083,-0.375241,-1.76281
4901,-8,5,0,-1,1,0,-5,7,0.35791,-0.38916,0.817383,-1,0.4375,-0.6875,-0.436083,-0.375241,-1.76281
4901,11,-16,2,0,-4,-1,17,-6,0.35791,-0.38916,0.817383,-1,0.4375,-0.6875,-0.436083,-0.375241,-1.76281
4902,-37,20,-6,-4,-3,-2,-12,-2,0.35791,-0.38916,0.817383,-1,0.4375,-0.6875,-0.436083,-0.375241,-1.76281
4902,-39,2,-3,-3,0,0,15,-4,0.35791,-0.38916,0.817383,-1,0.4375,-0.6875,-0.436083,-0.375241,-1.76281
4924,-16,2,-2,-2,0,1,-4,-6,0.359863,-0.398926,0.825684,0.3125,0.5,0.125,-0.436273,-0.375229,-1.76263
4924,-2,1,1,0,2,2,23,-1,0.359863,-0.398926,0.825684,0.3125,0.5,0.125,-0.436273,-0.375229,-1.76263
4925,43,2,3,-1,-2,-1,-4,-28,0.359863,-0.398926,0.825684,0.3125,0.5,0.125,-0.436273,-0.375229,-1.76263
4925,-6,-27,-4,-3,-4,-3,-24,-5,0.359863,-0.398926,0.825684,0.3125,0.5,0.125,-0.436273,-0.375229,-1.76263
4938,-3,8,0,2,-2,0,0,-6,0.359863,-0.377441,0.821777,0.625,0.0625,-0.0625,-0.436278,-0.375265,-1.76282
4938,-13,-15,-10,-4,0,0,8,4,0.359863,-0.377441,0.821777,0.625,0.0625,-0.0625,-0.436278,-0.375265,-1.76282
4939,22,4,2,1,-1,0,15,10,0.359863,-0.377441,0.821777,0.625,0.0625,-0.0625,-0.436278,-0.375265,-1.76282
4939,-50,21,-1,0,-1,0,-24,-10,0.359863,-0.377441,0.821777,0.625,0.0625,-0.0625,-0.436278,-0.375265,-1.76282
4961,-4,-16,-4,-2,-4,-10,-7,6,0.359863,-0.367676,0.819824,-0.1875,0.1875,0,-0.436083,-0.375241,-1.76281
4961,10,-3,-1,-3,-2,-3,7,8,0.359863,-0.367676,0.819824,-0.1875,0.1875,0,-0.436083,-0.375241,-1.76281
4962,-10,13,1,0,1,-2,2,1,0.359863,-0.367676,0.819824,-0.1875,0.1875,0,-0.436083,-0.375241,-1.76281
4962,29,-3,-1,-3,1,0,-9,3,0.359863,-0.367676,0.819824,-0.1875,0.1875,0,-0.436083,-0.375241,-1.76281
4975,19,21,7,6,1,2,6,4,0.356445,-0.381836,0.831055,-1,0.625,0,-0.436083,-0.375241,-1.76281
4975,-65,4,-1,2,1,3,-5,-2,0.356445,-0.381836,0.831055,-1,0.625,0,-0.436083,-0.375241,-1.76281
4983,22,-4,1,-2,-2,-1,-10,3,0.356445,-0.381836,0.831055,-1,0.625,0,-0.436083,-0.375241,-1.76281
4983,-30,-7,-1,-1,-1,1,32,5,0.356445,-0.381836,0.831055,-1,0.625,0,-0.436083,-0.375241,-1.76281
4999,14,-4,-3,-3,-3,-1,1,-9,0.356934,-0.382812,0.825684,-0.875,0.6875,-0.125,-0.436083,-0.375241,-1.76281
4999,14,1,-2,-2,-1,-4,-5,0,0.356934,-0.382812,0.825684,-0.875,0.6875,-0.125,-0.436083,-0.375241,-1.76281
5000,7,-3,1,-2,-2,-1,17,-2,0.356934,-0.382812,0.825684,-0.875,0.6875,-0.125,-0.436083,-0.375241,-1.76281
5000,24,-5,-2,-6,-3,-1,25,-3,0.356934,-0.382812,0.825684,-0.875,0.6875,-0.125,-0.436083,-0.375241,-1.76281
5022,20,4,-2,-6,0,0,2,6,0.359375,-0.382812,0.816895,0.125,1.0625,0.5625,-0.436109,-0.374882,-1.76281
5022,-19,-4,-2,-3,-1,1,3,13,0.359375,-0.382812,0.816895,0.125,1.0625,0.5625,-0.436109,-0.374882,-1.76281
5022,-32,-10,-4,-2,-3,-3,8,0,0.359375,-0.382812,0.816895,0.125,1.0625,0.5625,-0.436109,-0.374882,-1.76281
5022,0,16,1,1,-3,0,-4,-3,0.359375,-0.382812,0.816895,0.125,1.0625,0.5625,-0.436109,-0.374882,-1.76281
5045,-47,-16,-3,-2,-1,-2,7,-13,0.352051,-0.390137,0.818848,-0.375,1.3125,0.625,-0.43642,-0.374259,-1.76264
5045,1,15,-2,1,-1,0,0,1,0.352051,-0.390137,0.818848,-0.375,1.3125,0.625,-0.43642,-0.374259,-1.76264
5045,12,-3,-1,-1,-2,-1,-8,8,0.352051,-0.390137,0.818848,-0.375,1.3125,0.625,-0.43642,-0.374259,-1.76264
5045,19,3,0,-3,-2,-3,2,10,0.352051,-0.390137,0.818848,-0.375,1.3125,0.625,-0.43642,-0.374259,-1.76264
5058,-23,-9,-6,-5,-4,-3,-21,-16,0.353027,-0.402344,0.818359,-1.9375,1.5,0.4375,-0.437477,-0.373563,-1.76251
5058,42,0,1,2,-1,2,24,8,0.353027,-0.402344,0.818359,-1.9375,1.5,0.4375,-0.437477,-0.373563,-1.76251
5059,-38,-2,0,3,2,2,-8,2,0.353027,-0.402344,0.818359,-1.9375,1.5,0.4375,-0.437477,-0.373563,-1.76251
5059,5,2,-1,-1,-1,-4,-10,-4,0.353027,-0.402344,0.818359,-1.9375,1.5,0.4375,-0.437477,-0.373563,-1.76251
5081,1,-1,-2,-5,-2,-2,4,10,0.355469,-0.396484,0.815918,-0.5,0.75,-0.0625,-0.437577,-0.373664,-1.76251
5081,-15,-4,2,3,2,1,10,-5,0.355469,-0.396484,0.815918,-0.5,0.75,-0.0625,-0.437577,-0.373664,-1.76251
5082,-41,-7,-3,1,3,2,-1,-7,0.355469,-0.396484,0.815918,-0.5,0.75,-0.0625,-0.437577,-0.373664,-1.76251
5082,18,-4,1,2,0,-3,-22,-16,0.355469,-0.396484,0.815918,-0.5,0.75,-0.0625,-0.437577,-0.373664,-1.76251
5104,11,10,4,0,-2,1,9,9,0.345703,-0.384766,0.822266,-0.0625,0.4375,-0.1875,-0.437574,-0.373488,-1.76252
5104,15,3,0,-2,-3,-4,-29,-20,0.345703,-0.384766,0.822266,-0.0625,0.4375,-0.1875,-0.437574,-0.373488,-1.76252
5111,-28,-16,-5,-2,2,2,18,0,0.345703,-0.384766,0.822266,-0.0625,0.4375,-0.1875,-0.437574,-0.373488,-1.76252
5111,-26,-16,-6,-1,-1,-2,-17,-10,0.345703,-0.384766,0.822266,-0.0625,0.4375,-0.1875,-0.437574,-0.373488,-1.76252
5118,35,0,-1,-3,-4,-5,-22,-7,0.353027,-0.380859,0.817871,-1.9375,0.875,-0.1875,-0.438095,-0.373257,-1.76276
5118,22,5,4,0,-3,-4,9,7,0.353027,-0.380859,0.817871,-1.9375,0.875,-0.1875,-0.438095,-0.373257,-1.76276
5119,-31,-4,-5,-2,0,4,-12,0,0.353027,-0.380859,0.817871,-1.9375,0.875,-0.1875,-0.438095,-0.373257,-1.76276
5119,15,-5,-2,1,0,5,31,-4,0.353027,-0.380859,0.817871,-1.9375,0.875,-0.1875,-0.438095,-0.373257,-1.76276
5141,11,-1,2,-1,1,-3,-3,10,0.352539,-0.38916,0.824707,-2.3125,0.9375,0.125,-0.438901,-0.372764,-1.76285
5141,-11,16,-2,-4,-1,0,-9,-11,0.352539,-0.38916,0.824707,-2.3125,0.9375,0.125,-0.438901,-0.372764,-1.76285
5142,20,-2,-2,-3,-3,-7,-11,1,0.352539,-0.38916,0.824707,-2.3125,0.9375,0.125,-0.438901,-0.372764,-1.76285
5142,-22,2,-1,-3,-2,1,18,0,0.352539,-0.38916,0.824707,-2.3125,0.9375,0.125,-0.438901,-0.372764,-1.76285
5164,-8,-8,1,3,1,0,16,2,0.356445,-0.391113,0.827148,-2.5625,1.8125,0.0625,-0.439809,-0.372231,-1.76312
5164,17,12,-4,-3,-4,-5,-24,22,0.356445,-0.391113,0.827148,-2.5625,1.8125,0.0625,-0.439809,-0.372231,-1.76312
5165,7,-3,-2,0,1,1,12,-17,0.356445,-0.391113,0.827148,-2.5625,1.8125,0.0625,-0.439809,-0.372231,-1.76312
5165,5,-7,-1,-1,-2,-3,-32,9,0.356445,-0.391113,0.827148,-2.5625,1.8125,0.0625,-0.439809,-0.372231,-1.76312
5179,-5,-4,1,-2,0,-2,17,1,0.355957,-0.398926,0.828125,-1.8125,1.9375,0.375,-0.440481,-0.371524,-1.76317
5179,-3,-2,-2,0,-3,-4,-12,-2,0.355957,-0.398926,0.828125,-1.8125,1.9375,0.375,-0.440481,-0.371524,-1.76317
5180,-4,13,-1,-6,-7,0,8,4,0.355957,-0.398926,0.828125,-1.8125,1.9375,0.375,-0.440481,-0.371524,-1.76317
5180,-11,-2,-4,-6,-6,-10,-31,-5,0.355957,-0.398926,0.828125,-1.8125,1.9375,0.375,-0.440481,-0.371524,-1.76317
5201,-29,-2,-3,1,1,2,-3,-26,0.344727,-0.39209,0.828125,-2.875,1.75,0.3125,-0.441416,-0.370632,-1.76345
5201,-2,-7,-3,0,2,0,5,9,0.344727,-0.39209,0.828125,-2.875,1.75,0.3125,-0.441416,-0.370632,-1.76345
5202,20,-4,2,-3,-2,-4,-43,-1,0.344727,-0.39209,0.828125,-2.875,1.75,0.3125,-0.441416,-0.370632,-1.76345
5202,16,33,2,0,1,1,3,-1,0.344727,-0.39209,0.828125,-2.875,1.75,0.3125,-0.441416,-0.370632,-1.76345
5225,3,3,-3,-5,-3,-3,-7,-2,0.350098,-0.388672,0.800781,-1.8125,2.8125,1.0625,-0.442176,-0.369638,-1.76333
5225,13,-14,-1,-2,-2,0,2,-2,0.350098,-0.388672,0.800781,-1.8125,2.8125,1.0625,-0.442176,-0.369638,-1.76333
5225,-39,-5,-3,2,1,2,29,-9,0.350098,-0.388672,0.800781,-1.8125,2.8125,1.0625,-0.442176,-0.369638,-1.76333
5225,20,4,2,1,-1,0,20,6,0.350098,-0.388672,0.800781,-1.8125,2.8125,1.0625,-0.442176,-0.369638,-1.76333
5239,-14,-2,-5,-1,-2,-2,24,9,0.345215,-0.38916,0.828125,-3.875,2.9375,0.9375,-0.443399,-0.368345,-1.76363
5239,25,3,4,2,-2,-6,-53,4,0.345215,-0.38916,0.828125,-3.875,2.9375,0.9375,-0.443399,-0.368345,-1.76363
5239,9,-2,-5,-5,-5,-4,-7,0,0.345215,-0.38916,0.828125,-3.875,2.9375,0.9375,-0.443399,-0.368345,-1.76363
5239,5,-8,-5,-4,-1,2,23,-7,0.345215,-0.38916,0.828125,-3.875,2.9375,0.9375,-0.443399,-0.368345,-1.76363
5261,25,8,5,1,2,1,-29,12,0.342773,-0.396484,0.819336,-3.875,2.8125,0.875,-0.444807,-0.36718,-1.76358
5261,-19,-17,0,3,5,8,43,-4,0.342773,-0.396484,0.819336,-3.875,2.8125,0.875,-0.444807,-0.36718,-1.76358
5262,8,5,-5,0,0,-3,-14,16,0.342773,-0.396484,0.819336,-3.875,2.8125,0.875,-0.444807,-0.36718,-1.76358
5262,-1,-7,-2,-2,-3,-4,-23,8,0.342773,-0.396484,0.819336,-3.875,2.8125,0.875,-0.444807,-0.36718,-1.76358
5285,-5,-1,-4,-5,-5,-4,-13,-1,0.361816,-0.395996,0.819336,-4.125,3.625,1.875,-0.446348,-0.36611,-1.7635
5285,-23,-15,-4,-7,-2,-5,-8,0,0.361816,-0.395996,0.819336,-4.125,3.625,1.875,-0.446348,-0.36611,-1.7635
5285,13,-30,-1,3,2,-2,-20,-8,0.361816,-0.395996,0.819336,-4.125,3.625,1.875,-0.446348,-0.36611,-1.7635
5285,-11,9,0,0,2,2,7,11,0.361816,-0.395996,0.819336,-4.125,3.625,1.875,-0.446348,-0.36611,-1.7635
5299,-34,1,-6,-1,0,-1,1,-3,0.347168,-0.399414,0.818848,-9.625,5.6875,0.875,-0.449522,-0.364115,-1.76423
5299,-30,-12,-6,1,3,6,9,-15,0.347168,-0.399414,0.818848,-9.625,5.6875,0.875,-0.449522,-0.364115,-1.76423
5299,-5,-18,-3,-5,-4,-5,1,12,0.347168,-0.399414,0.818848,-9.625,5.6875,0.875,-0.449522,-0.364115,-1.76423
5299,6,-28,2,0,0,0,5,3,0.347168,-0.399414,0.818848,-9.625,5.6875,0.875,-0.449522,-0.364115,-1.76423
5321,-12,-16,7,3,1,-1,-9,-6,0.322266,-0.420898,0.818848,-13.1875,5.5625,0.0625,-0.454383,-0.361799,-1.76493
5321,0,3,1,-1,0,2,8,-6,0.322266,-0.420898,0.818848,-13.1875,5.5625,0.0625,-0.454383,-0.361799,-1.76493
5322,-25,22,-3,-4,-4,-3,-6,-8,0.322266,-0.420898,0.818848,-13.1875,5.5625,0.0625,-0.454383,-0.361799,-1.76493
5322,28,35,-2,-5,-6,-1,0,11,0.322266,-0.420898,0.818848,-13.1875,5.5625,0.0625,-0.454383,-0.361799,-1.76493
5344,12,20,-6,-1,-4,-1,20,7,0.318848,-0.418945,0.826172,-12.9375,5.1875,0.3125,-0.458849,-0.359407,-1.76545
5344,-47,33,-2,2,3,0,-42,-10,0.318848,-0.418945,0.826172,-12.9375,5.1875,0.3125,-0.458849,-0.359407,-1.76545
5345,1,23,6,6,3,3,14,-8,0.318848,-0.418945,0.826172,-12.9375,5.1875,0.3125,-0.458849,-0.359407,-1.76545
5345,-23,-8,-5,-7,-2,-5,0,12,0.318848,-0.418945,0.826172,-12.9375,5.1875,0.3125,-0.458849,-0.359407,-1.76545
5359,18,-19,-7,-6,-3,0,13,-15,0.331543,-0.433105,0.8125,-12.9375,4.875,0.25,-0.463784,-0.357531,-1.76602
5359,-45,-27,-6,-2,-3,-12,-61,-4,0.331543,-0.433105,0.8125,-12.9375,4.875,0.25,-0.463784,-0.357531,-1.76602
5359,19,-6,5,1,1,1,10,1,0.331543,-0.433105,0.8125,-12.9375,4.875,0.25,-0.463784,-0.357531,-1.76602
5359,-30,3,0,6,5,4,0,-5,0.331543,-0.433105,0.8125,-12.9375,4.875,0.25,-0.463784,-0.357531,-1.76602
5381,0,-7,-7,-1,-2,0,25,-7,0.341309,-0.418457,0.823242,-13.8125,5.1875,-0.6875,-0.468156,-0.355961,-1.76699
5381,28,-11,3,1,1,4,14,1,0.341309,-0.418457,0.823242,-13.8125,5.1875,-0.6875,-0.468156,-0.355961,-1.76699
5382,11,19,-2,-6,-4,-4,-13,-9,0.341309,-0.418457,0.823242,-13.8125,5.1875,-0.6875,-0.468156,-0.355961,-1.76699
5382,-39,-8,-1,-1,0,-6,-19,-3,0.341309,-0.418457,0.823242,-13.8125,5.1875,-0.6875,-0.468156,-0.355961,-1.76699
5404,-2,3,3,-2,-3,2,19,1,0.329102,-0.433105,0.811035,-16.3125,4.625,-0.75,-0.473932,-0.354307,-1.76792
5404,1,-4,-1,-4,-7,-2,33,24,0.329102,-0.433105,0.811035,-16.3125,4.625,-0.75,-0.473932,-0.354307,-1.76792
5405,-51,-13,-1,4,3,-3,-20,5,0.329102,-0.433105,0.811035,-16.3125,4.625,-0.75,-0.473932,-0.354307,-1.76792
5405,-1,-19,-3,-1,-2,5,18,0,0.329102,-0.433105,0.811035,-16.3125,4.625,-0.75,-0.473932,-0.354307,-1.76792
5418,38,-5,-2,-7,-9,-4,37,-2,0.32373,-0.411621,0.814941,-13.75,3,-1.875,-0.477973,-0.353385,-1.7691
5418,-81,-38,-11,-9,-8,-5,-25,-21,0.32373,-0.411621,0.814941,-13.75,3,-1.875,-0.477973,-0.353385,-1.7691
5419,14,-39,-2,5,3,5,39,10,0.32373,-0.411621,0.814941,-13.75,3,-1.875,-0.477973,-0.353385,-1.7691
5419,13,2,1,2,0,0,-29,-18,0.32373,-0.411621,0.814941,-13.75,3,-1.875,-0.477973,-0.353385,-1.7691
5441,15,1,0,-1,-1,-3,-35,11,0.320312,-0.395996,0.813965,-6.5625,1.5625,-3.75,-0.479085,-0.353203,-1.77093
5441,61,12,0,-3,-1,-2,35,-1,0.320312,-0.395996,0.813965,-6.5625,1.5625,-3.75,-0.479085,-0.353203,-1.77093
5442,-14,-4,-1,-1,1,1,-28,-25,0.320312,-0.395996,0.813965,-6.5625,1.5625,-3.75,-0.479085,-0.353203,-1.77093
5442,-11,0,-1,-2,1,2,37,4,0.320312,-0.395996,0.813965,-6.5625,1.5625,-3.75,-0.479085,-0.353203,-1.77093
5464,-3,-2,-1,-3,-4,-10,-25,-4,0.339355,-0.410156,0.838867,-5.5625,0.125,-4.1875,-0.480003,-0.353659,-1.77252
5464,14,5,4,0,-1,2,8,1,0.339355,-0.410156,0.838867,-5.5625,0.125,-4.1875,-0.480003,-0.353659,-1.77252
5465,23,-1,2,-3,-5,-3,3,3,0.339355,-0.410156,0.838867,-5.5625,0.125,-4.1875,-0.480003,-0.353659,-1.77252
5465,19,8,4,-2,1,14,35,17,0.339355,-0.410156,0.838867,-5.5625,0.125,-4.1875,-0.480003,-0.353659,-1.77252
5479,-39,-6,3,7,8,-3,-32,-10,0.32373,-0.419922,0.861328,-4.375,-0.625,-3.0625,-0.480571,-0.353671,-1.77365
5479,-11,11,0,5,3,3,-34,-8,0.32373,-0.419922,0.861328,-4.375,-0.625,-3.0625,-0.480571,-0.353671,-1.77365
5480,-5,-10,-3,0,-2,2,17,10,0.32373,-0.419922,0.861328,-4.375,-0.625,-3.0625,-0.480571,-0.353671,-1.77365
5480,34,38,-2,-7,-8,-21,-4,-9,0.32373,-0.419922,0.861328,-4.375,-0.625,-3.0625,-0.480571,-0.353671,-1.77365
5501,37,-38,-12,-11,1,-6,69,12,0.311035,-0.435059,0.863281,1.125,-2.3125,-3,-0.479622,-0.353818,-1.77439
5501,-59,-2,-1,2,-2,17,13,8,0.311035,-0.435059,0.863281,1.125,-2.3125,-3,-0.479622,-0.353818,-1.77439
5502,8,9,2,5,4,5,18,-12,0.311035,-0.435059,0.863281,1.125,-2.3125,-3,-0.479622,-0.353818,-1.77439
5502,-1,11,4,5,-2,4,-7,-5,0.311035,-0.435059,0.863281,1.125,-2.3125,-3,-0.479622,-0.353818,-1.77439
5524,29,30,1,-7,2,3,-11,7,0.36084,-0.454102,0.853516,6.25,-3.125,-3,-0.477467,-0.355225,-1.77473
5524,-56,-20,-15,-11,0,-1,34,-17,0.36084,-0.454102,0.853516,6.25,-3.125,-3,-0.477467,-0.355225,-1.77473
5526,47,8,1,-11,0,14,-13,6,0.36084,-0.454102,0.853516,6.25,-3.125,-3,-0.477467,-0.355225,-1.77473
5526,-16,-16,1,7,-8,-30,-19,28,0.36084,-0.454102,0.853516,6.25,-3.125,-3,-0.477467,-0.355225,-1.77473
5539,-27,0,1,9,2,38,-75,-34,0.334961,-0.472656,0.870605,8.4375,-5.5625,-2.875,-0.475057,-0.3566,-1.7744
5539,30,3,-3,-9,-10,-26,23,3,0.334961,-0.472656,0.870605,8.4375,-5.5625,-2.875,-0.475057,-0.3566,-1.7744
5539,43,5,-4,-22,-29,-33,-53,17,0.334961,-0.472656,0.870605,8.4375,-5.5625,-2.875,-0.475057,-0.3566,-1.7744
5539,10,-4,5,-8,28,28,-31,-7,0.334961,-0.472656,0.870605,8.4375,-5.5625,-2.875,-0.475057,-0.3566,-1.7744
5561,-6,3,18,41,24,2,53,35,0.308105,-0.464355,0.888184,7.75,-6.3125,-1.625,-0.472829,-0.357315,-1.77389
5561,-34,9,9,38,17,21,-24,5,0.308105,-0.464355,0.888184,7.75,-6.3125,-1.625,-0.472829,-0.357315,-1.77389
5562,16,-11,-13,4,-23,-15,46,3,0.308105,-0.464355,0.888184,7.75,-6.3125,-1.625,-0.472829,-0.357315,-1.77389
5562,32,5,-37,-101,-55,-50,-76,-10,0.308105,-0.464355,0.888184,7.75,-6.3125,-1.625,-0.472829,-0.357315,-1.77389
5584,-37,-14,5,-2,30,32,75,-6,0.364746,-0.428223,0.806152,11.5,-5.125,-4.75,-0.468939,-0.36014,-1.77444
5584,-52,16,40,76,37,-21,-44,6,0.364746,-0.428223,0.806152,11.5,-5.125,-4.75,-0.468939,-0.36014,-1.77444
5585,-47,-1,10,57,23,-58,25,-12,0.364746,-0.428223,0.806152,11.5,-5.125,-4.75,-0.468939,-0.36014,-1.77444
5585,-25,-8,-22,-11,-49,-17,60,-14,0.364746,-0.428223,0.806152,11.5,-5.125,-4.75,-0.468939,-0.36014,-1.77444
5599,59,12,-57,-110,-71,-14,29,-9,0.373535,-0.34375,0.754395,9.75,-6.875,-11.25,-0.46378,-0.365343,-1.77722
5599,69,26,35,46,54,74,42,18,0.373535,-0.34375,0.754395,9.75,-6.875,-11.25,-0.46378,-0.365343,-1.77722
5599,-68,46,34,79,45,-85,26,-38,0.373535,-0.34375,0.754395,9.75,-6.875,-11.25,-0.46378,-0.365343,-1.77722
5599,-31,18,7,54,27,10,28,-27,0.373535,-0.34375,0.754395,9.75,-6.875,-11.25,-0.46378,-0.365343,-1.77722
5621,44,23,-11,-27,-51,-32,-37,7,0.419434,-0.368164,0.745605,6.0625,-1.875,-9.3125,-0.460719,-0.369574,-1.78005
5621,-16,19,-61,-128,-87,-10,50,-21,0.419434,-0.368164,0.745605,6.0625,-1.875,-9.3125,-0.460719,-0.369574,-1.78005
5622,11,-6,-6,-57,-7,50,-51,6,0.419434,-0.368164,0.745605,6.0625,-1.875,-9.3125,-0.460719,-0.369574,-1.78005
5622,2,13,43,105,44,-3,20,-3,0.419434,-0.368164,0.745605,6.0625,-1.875,-9.3125,-0.460719,-0.369574,-1.78005
5644,-13,-3,32,99,76,4,-56,24,0.352539,-0.383301,0.750977,-4.5,0.5,-8.6875,-0.461419,-0.371345,-1.7831
5644,-4,0,-3,18,-12,-8,-7,2,0.352539,-0.383301,0.750977,-4.5,0.5,-8.6875,-0.461419,-0.371345,-1.7831
5644,24,4,-39,-82,-51,9,14,11,0.352539,-0.383301,0.750977,-4.5,0.5,-8.6875,-0.461419,-0.371345,-1.7831
5644,-65,-90,-38,-106,-29,-36,-75,-10,0.352539,-0.383301,0.750977,-4.5,0.5,-8.6875,-0.461419,-0.371345,-1.7831
5668,-22,-49,32,42,-6,-9,-82,-14,0.255859,-0.421387,0.827148,-1.875,-0.625,-3.9375,-0.461766,-0.369795,-1.78423
5668,10,-40,12,59,40,1,-34,-35,0.255859,-0.421387,0.827148,-1.875,-0.625,-3.9375,-0.461766,-0.369795,-1.78423
5669,-5,3,12,23,3,9,-7,5,0.255859,-0.421387,0.827148,-1.875,-0.625,-3.9375,-0.461766,-0.369795,-1.78423
5669,25,12,-21,-43,-24,25,-9,-4,0.255859,-0.421387,0.827148,-1.875,-0.625,-3.9375,-0.461766,-0.369795,-1.78423
5681,25,-4,-50,-105,-39,-31,2,-2,0.306641,-0.411133,0.816895,8.75,-2.125,-5.8125,-0.458415,-0.370177,-1.78559
5681,57,-4,22,32,9,-5,-15,-10,0.306641,-0.411133,0.816895,8.75,-2.125,-5.8125,-0.458415,-0.370177,-1.78559
5681,-65,35,54,97,56,39,2,3,0.306641,-0.411133,0.816895,8.75,-2.125,-5.8125,-0.458415,-0.370177,-1.78559
5681,-5,52,-1,56,8,15,19,-16,0.306641,-0.411133,0.816895,8.75,-2.125,-5.8125,-0.458415,-0.370177,-1.78559
5704,-29,27,-26,-56,-32,-28,5,-15,0.367676,-0.338379,0.780273,8.875,-1.5625,-2.3125,-0.454053,-0.37185,-1.78662
5704,103,-32,-49,-120,-39,-25,-62,6,0.367676,-0.338379,0.780273,8.875,-1.5625,-2.3125,-0.454053,-0.37185,-1.78662
5705,77,-55,18,63,49,109,63,-1,0.367676,-0.338379,0.780273,8.875,-1.5625,-2.3125,-0.454053,-0.37185,-1.78662
5705,-31,5,54,92,37,9,69,28,0.367676,-0.338379,0.780273,8.875,-1.5625,-2.3125,-0.454053,-0.37185,-1.78662
5718,-53,9,-31,-31,-36,-7,-24,1,0.447266,-0.349121,0.779785,3.25,0.5625,0.6875,-0.45224,-0.37412,-1.78667
5718,58,-6,-23,-85,-62,1,-12,6,0.447266,-0.349121,0.779785,3.25,0.5625,0.6875,-0.45224,-0.37412,-1.78667
5726,11,-27,-14,-36,16,-44,-49,-14,0.447266,-0.349121,0.779785,3.25,0.5625,0.6875,-0.45224,-0.37412,-1.78667
5726,38,-20,23,41,49,45,77,-15,0.447266,-0.349121,0.779785,3.25,0.5625,0.6875,-0.45224,-0.37412,-1.78667
5741,-41,24,49,95,34,24,-22,19,0.344238,-0.400879,0.817871,5.1875,2.3125,3.0625,-0.450805,-0.372631,-1.78589
5741,-25,27,-19,-19,-13,22,42,-13,0.344238,-0.400879,0.817871,5.1875,2.3125,3.0625,-0.450805,-0.372631,-1.78589
5741,7,-13,-42,-90,-61,-3,-3,3,0.344238,-0.400879,0.817871,5.1875,2.3125,3.0625,-0.450805,-0.372631,-1.78589
5741,10,-16,-18,-58,-23,-16,-18,4,0.344238,-0.400879,0.817871,5.1875,2.3125,3.0625,-0.450805,-0.372631,-1.78589
5764,63,-31,-16,-17,26,41,68,-11,0.315918,-0.376465,0.800293,3.125,1.75,0.9375,-0.449429,-0.371179,-1.78596
5764,-99,-9,90,127,46,-44,22,12,0.315918,-0.376465,0.800293,3.125,1.75,0.9375,-0.449429,-0.371179,-1.78596
5765,-38,23,-16,-9,-36,-9,-17,0,0.315918,-0.376465,0.800293,3.125,1.75,0.9375,-0.449429,-0.371179,-1.78596
5765,-8,-6,-56,-96,-42,-15,-22,-11,0.315918,-0.376465,0.800293,3.125,1.75,0.9375,-0.449429,-0.371179,-1.78596
5778,69,-29,30,34,26,2,41,2,0.321289,-0.402344,0.826172,-1.375,0.5,0.6875,-0.450006,-0.370221,-1.78578
5778,38,-29,18,58,48,-3,-76,5,0.321289,-0.402344,0.826172,-1.375,0.5,0.6875,-0.450006,-0.370221,-1.78578
5787,-30,33,10,52,26,31,22,11,0.321289,-0.402344,0.826172,-1.375,0.5,0.6875,-0.450006,-0.370221,-1.78578
5787,19,36,-12,-28,-28,-14,-36,-3,0.321289,-0.402344,0.826172,-1.375,0.5,0.6875,-0.450006,-0.370221,-1.78578
5802,10,-21,-49,-88,-65,-9,7,-1,0.333496,-0.477539,0.824219,-0.4375,1.4375,1.875,-0.452082,-0.36865,-1.78472
5802,-31,-16,7,0,-3,-3,23,-40,0.333496,-0.477539,0.824219,-0.4375,1.4375,1.875,-0.452082,-0.36865,-1.78472
5802,-16,-32,35,54,38,7,-44,-4,0.333496,-0.477539,0.824219,-0.4375,1.4375,1.875,-0.452082,-0.36865,-1.78472
