0,1,-3,-6,-7,-1,0,0,0,0.869629,-0.169434,0.334961,-61.625,5.0625,-17.9375,0.210149,-1.43062,0.691916
0,0,-1,-3,-3,-1,-2,-2,0,0.869629,-0.169434,0.334961,-61.625,5.0625,-17.9375,0.210149,-1.43062,0.691916
1,-1,0,-2,-1,-1,-2,-1,0,0.869629,-0.169434,0.334961,-61.625,5.0625,-17.9375,0.210149,-1.43062,0.691916
1,-1,1,-2,-1,-1,0,0,0,0.869629,-0.169434,0.334961,-61.625,5.0625,-17.9375,0.210149,-1.43062,0.691916
2,-2,2,6,0,-1,-1,-2,-1,0.869629,-0.169434,0.334961,-61.625,5.0625,-17.9375,0.210149,-1.43062,0.691916
2,-3,-3,-10,-3,-1,-1,1,0,0.869629,-0.169434,0.334961,-61.625,5.0625,-17.9375,0.210149,-1.43062,0.691916
3,-1,-1,1,0,0,0,-2,0,0.869629,-0.169434,0.334961,-61.625,5.0625,-17.9375,0.210149,-1.43062,0.691916
3,-1,-1,2,0,0,0,-1,-1,0.869629,-0.169434,0.334961,-61.625,5.0625,-17.9375,0.210149,-1.43062,0.691916
7,-1,1,-5,1,-3,-2,-1,1,0.869629,-0.169434,0.334961,-61.625,5.0625,-17.9375,0.210149,-1.43062,0.691916
7,-3,0,6,-1,-1,0,0,-2,0.869629,-0.169434,0.334961,-61.625,5.0625,-17.9375,0.210149,-1.43062,0.691916
13,0,0,0,-1,0,-4,-2,-2,0.885742,-0.176758,0.365234,-51.875,2,-15.125,0.18482,-1.42429,0.698388
13,-1,-2,-3,-2,0,-1,-1,-2,0.885742,-0.176758,0.365234,-51.875,2,-15.125,0.18482,-1.42429,0.698388
21,-2,-2,5,0,-1,0,-1,-3,0.885742,-0.176758,0.365234,-51.875,2,-15.125,0.18482,-1.42429,0.698388
21,0,1,2,0,0,-2,-1,0,0.885742,-0.176758,0.365234,-51.875,2,-15.125,0.18482,-1.42429,0.698388
36,1,-3,2,1,-1,-1,0,1,0.902832,-0.178223,0.379395,-43.3125,-1.6875,-13.25,0.161123,-1.41876,0.70597
36,-1,-1,-2,-2,-1,-1,-1,-1,0.902832,-0.178223,0.379395,-43.3125,-1.6875,-13.25,0.161123,-1.41876,0.70597
44,1,-2,-4,-2,0,-2,-2,-1,0.902832,-0.178223,0.379395,-43.3125,-1.6875,-13.25,0.161123,-1.41876,0.70597
44,0,0,-4,-3,-2,-1,-1,-1,0.902832,-0.178223,0.379395,-43.3125,-1.6875,-13.25,0.161123,-1.41876,0.70597
51,-1,0,-2,-2,1,0,-1,-2,0.918945,-0.180176,0.400879,-35.0625,-6,-11.9375,0.140182,-1.41448,0.713818
51,-2,-2,0,0,0,-1,-1,-2,0.918945,-0.180176,0.400879,-35.0625,-6,-11.9375,0.140182,-1.41448,0.713818
67,0,-1,-4,-2,-1,0,0,-1,0.918945,-0.180176,0.400879,-35.0625,-6,-11.9375,0.140182,-1.41448,0.713818
67,0,0,0,0,0,-1,-1,-1,0.918945,-0.180176,0.400879,-35.0625,-6,-11.9375,0.140182,-1.41448,0.713818
73,0,-1,1,-4,-2,-1,1,-2,0.92627,-0.153809,0.385254,-27.6875,-9.1875,-11.0625,0.12601,-1.41188,0.717556
73,-1,-1,1,0,-3,-1,0,-1,0.92627,-0.153809,0.385254,-27.6875,-9.1875,-11.0625,0.12601,-1.41188,0.717556
121,-1,-3,0,0,-1,1,1,-1,0.931152,-0.0942383,0.334473,-15.8125,-10.3125,-6.875,0.106928,-1.40966,0.72261
121,0,4,3,1,-1,-1,-1,-1,0.931152,-0.0942383,0.334473,-15.8125,-10.3125,-6.875,0.106928,-1.40966,0.72261
123,0,-1,-1,-2,-2,-1,0,-1,0.931152,-0.0942383,0.334473,-15.8125,-10.3125,-6.875,0.106928,-1.40966,0.72261
123,0,-1,1,1,0,-1,-3,-1,0.931152,-0.0942383,0.334473,-15.8125,-10.3125,-6.875,0.106928,-1.40966,0.72261
126,-1,-2,-3,-2,0,-1,-2,0,0.931152,-0.0942383,0.334473,-15.8125,-10.3125,-6.875,0.106928,-1.40966,0.72261
126,-1,-4,-1,-1,0,0,-1,-1,0.931152,-0.0942383,0.334473,-15.8125,-10.3125,-6.875,0.106928,-1.40966,0.72261
127,0,2,2,-3,-2,0,-1,-2,0.931152,-0.0942383,0.334473,-15.8125,-10.3125,-6.875,0.106928,-1.40966,0.72261
127,-1,-1,-7,-4,-1,-1,0,-1,0.931152,-0.0942383,0.334473,-15.8125,-10.3125,-6.875,0.106928,-1.40966,0.72261
132,-1,-1,-1,0,1,-1,-2,-2,0.933594,-0.0605469,0.293457,-11.4375,-7.9375,-4.5,0.101237,-1.40941,0.724407
132,0,1,5,-1,0,-1,-2,1,0.933594,-0.0605469,0.293457,-11.4375,-7.9375,-4.5,0.101237,-1.40941,0.724407
139,0,1,25,4,1,-1,1,0,0.933594,-0.0605469,0.293457,-11.4375,-7.9375,-4.5,0.101237,-1.40941,0.724407
139,-5,-15,-77,-8,-3,-2,0,-4,0.933594,-0.0605469,0.293457,-11.4375,-7.9375,-4.5,0.101237,-1.40941,0.724407
148,-1,0,1,1,-2,0,-1,-1,0.947266,-0.0200195,0.259277,-8.625,-3.75,-2.25,0.0963707,-1.40792,0.72588
148,-1,-3,-5,-2,-2,-1,-1,0,0.947266,-0.0200195,0.259277,-8.625,-3.75,-2.25,0.0963707,-1.40792,0.72588
163,-1,1,6,1,-2,-1,-2,1,0.947266,-0.0200195,0.259277,-8.625,-3.75,-2.25,0.0963707,-1.40792,0.72588
163,-2,3,18,0,0,1,-1,0,0.947266,-0.0200195,0.259277,-8.625,-3.75,-2.25,0.0963707,-1.40792,0.72588
170,0,-1,-1,-1,-2,-1,0,-2,0.952637,0.00341797,0.22168,-8.6875,1.3125,0.25,0.0904744,-1.40628,0.728952
170,-1,-2,4,1,-1,-2,-1,1,0.952637,0.00341797,0.22168,-8.6875,1.3125,0.25,0.0904744,-1.40628,0.728952
178,0,-3,-15,0,-1,-1,1,-1,0.952637,0.00341797,0.22168,-8.6875,1.3125,0.25,0.0904744,-1.40628,0.728952
178,-1,1,14,-4,-1,-1,-1,0,0.952637,0.00341797,0.22168,-8.6875,1.3125,0.25,0.0904744,-1.40628,0.728952
192,0,2,-6,-2,-1,-1,0,-1,0.956055,0.019043,0.205078,-9.4375,7.4375,3.25,0.0790892,-1.40251,0.737021
192,-1,0,5,0,0,-1,0,-1,0.956055,0.019043,0.205078,-9.4375,7.4375,3.25,0.0790892,-1.40251,0.737021
200,-2,-1,-2,-1,-1,-2,-2,-1,0.956055,0.019043,0.205078,-9.4375,7.4375,3.25,0.0790892,-1.40251,0.737021
200,0,-3,7,1,0,0,-1,-1,0.956055,0.019043,0.205078,-9.4375,7.4375,3.25,0.0790892,-1.40251,0.737021
208,0,0,5,1,-1,0,-2,-1,0.966309,0.0161133,0.189453,-11,12.1875,6.625,0.0610592,-1.39774,0.751367
208,-2,1,-8,-1,0,-1,0,-2,0.966309,0.0161133,0.189453,-11,12.1875,6.625,0.0610592,-1.39774,0.751367
223,-3,-5,-7,-1,0,-1,-1,1,0.966309,0.0161133,0.189453,-11,12.1875,6.625,0.0610592,-1.39774,0.751367
223,0,2,6,2,-2,-1,0,0,0.966309,0.0161133,0.189453,-11,12.1875,6.625,0.0610592,-1.39774,0.751367
230,1,-2,1,-2,0,-2,2,0,0.97998,0.0307617,0.176758,-11.5625,16.625,9.1875,0.0402494,-1.39238,0.768726
230,-1,-1,-3,0,0,0,-2,-1,0.97998,0.0307617,0.176758,-11.5625,16.625,9.1875,0.0402494,-1.39238,0.768726
238,0,-1,-7,-2,-1,-1,0,-2,0.97998,0.0307617,0.176758,-11.5625,16.625,9.1875,0.0402494,-1.39238,0.768726
238,0,0,15,0,-2,-2,-1,0,0.97998,0.0307617,0.176758,-11.5625,16.625,9.1875,0.0402494,-1.39238,0.768726
252,-2,0,-4,0,-1,-1,-2,1,0.998535,0.0366211,0.186523,-12.125,20.8125,12.125,0.0165838,-1.38514,0.788564
252,-1,-2,-3,-1,-1,-1,1,-2,0.998535,0.0366211,0.186523,-12.125,20.8125,12.125,0.0165838,-1.38514,0.788564
260,0,-1,0,-1,-2,-1,-1,0,0.998535,0.0366211,0.186523,-12.125,20.8125,12.125,0.0165838,-1.38514,0.788564
260,1,0,4,1,-1,-1,-1,1,0.998535,0.0366211,0.186523,-12.125,20.8125,12.125,0.0165838,-1.38514,0.788564
268,-1,0,1,0,0,-1,-2,0,0.991211,0.0390625,0.194336,-11.625,23.6875,14.875,-0.00937657,-1.37682,0.81104
268,-3,-3,-6,-6,-2,-1,0,0,0.991211,0.0390625,0.194336,-11.625,23.6875,14.875,-0.00937657,-1.37682,0.81104
282,-1,0,-3,-2,-1,-1,-2,-1,0.991211,0.0390625,0.194336,-11.625,23.6875,14.875,-0.00937657,-1.37682,0.81104
282,-1,0,1,0,-1,0,0,0,0.991211,0.0390625,0.194336,-11.625,23.6875,14.875,-0.00937657,-1.37682,0.81104
290,-1,-2,-3,-2,-2,-1,0,-2,0.979004,0.0507812,0.199707,-10.125,25.375,16.5625,-0.0335221,-1.36777,0.832306
290,-1,0,2,0,-1,0,-1,-1,0.979004,0.0507812,0.199707,-10.125,25.375,16.5625,-0.0335221,-1.36777,0.832306
297,-1,0,-2,-2,0,-1,0,-1,0.979004,0.0507812,0.199707,-10.125,25.375,16.5625,-0.0335221,-1.36777,0.832306
297,-1,-1,0,0,-1,-1,1,0,0.979004,0.0507812,0.199707,-10.125,25.375,16.5625,-0.0335221,-1.36777,0.832306
320,-2,-1,0,1,-2,-2,0,0,0.971191,0.0483398,0.208008,-9.75,27.1875,19.5625,-0.0596584,-1.35813,0.855884
320,-1,-1,-4,-4,-1,0,-1,-1,0.971191,0.0483398,0.208008,-9.75,27.1875,19.5625,-0.0596584,-1.35813,0.855884
321,-2,1,-2,-1,0,-2,-1,-1,0.971191,0.0483398,0.208008,-9.75,27.1875,19.5625,-0.0596584,-1.35813,0.855884
321,-3,-2,-3,0,0,0,0,-2,0.971191,0.0483398,0.208008,-9.75,27.1875,19.5625,-0.0596584,-1.35813,0.855884
329,0,0,0,-1,-1,-1,-1,0,0.956543,0.0205078,0.199707,-7.3125,27,22.8125,-0.0906299,-1.34847,0.885189
329,1,-1,-1,-1,-1,-1,-1,-2,0.956543,0.0205078,0.199707,-7.3125,27,22.8125,-0.0906299,-1.34847,0.885189
351,-1,0,0,-1,0,0,-1,0,0.956543,0.0205078,0.199707,-7.3125,27,22.8125,-0.0906299,-1.34847,0.885189
351,1,1,4,-1,-1,-2,-1,-1,0.956543,0.0205078,0.199707,-7.3125,27,22.8125,-0.0906299,-1.34847,0.885189
353,0,-5,0,-1,-2,0,-1,-1,0.956543,0.00146484,0.202637,-1.6875,26.125,24.4375,-0.121374,-1.33908,0.916254
353,0,4,-2,0,-1,0,-1,-1,0.956543,0.00146484,0.202637,-1.6875,26.125,24.4375,-0.121374,-1.33908,0.916254
357,1,-1,-1,-1,-2,-2,-1,0,0.956543,0.00146484,0.202637,-1.6875,26.125,24.4375,-0.121374,-1.33908,0.916254
357,1,1,1,-1,0,-3,0,1,0.956543,0.00146484,0.202637,-1.6875,26.125,24.4375,-0.121374,-1.33908,0.916254
372,1,-1,-2,-2,-1,-1,-1,0,0.941895,-0.0126953,0.208008,0.6875,25.125,25.0625,-0.149691,-1.32963,0.945673
372,-1,-2,0,1,-1,-1,-1,0,0.941895,-0.0126953,0.208008,0.6875,25.125,25.0625,-0.149691,-1.32963,0.945673
388,-1,-1,-2,0,-2,0,2,-1,0.941895,-0.0126953,0.208008,0.6875,25.125,25.0625,-0.149691,-1.32963,0.945673
388,-1,2,0,0,-2,-3,-2,-1,0.941895,-0.0126953,0.208008,0.6875,25.125,25.0625,-0.149691,-1.32963,0.945673
390,0,-1,-2,-1,0,0,-1,-1,0.925781,-0.0419922,0.205566,4.9375,23.25,25.0625,-0.177632,-1.32105,0.976437
390,0,-2,0,-1,-3,0,-2,0,0.925781,-0.0419922,0.205566,4.9375,23.25,25.0625,-0.177632,-1.32105,0.976437
403,-1,-1,-1,-2,1,-1,-2,-1,0.925781,-0.0419922,0.205566,4.9375,23.25,25.0625,-0.177632,-1.32105,0.976437
403,-1,-3,-1,-2,0,0,0,-1,0.925781,-0.0419922,0.205566,4.9375,23.25,25.0625,-0.177632,-1.32105,0.976437
410,0,0,0,-1,0,-1,2,-1,0.938477,-0.0673828,0.214355,10.8125,20.875,24.3125,-0.203178,-1.31279,1.0065
410,0,-3,-2,-1,-3,-2,-1,0,0.938477,-0.0673828,0.214355,10.8125,20.875,24.3125,-0.203178,-1.31279,1.0065
418,-2,-2,-2,0,0,0,-2,-2,0.938477,-0.0673828,0.214355,10.8125,20.875,24.3125,-0.203178,-1.31279,1.0065
418,0,-1,0,1,-2,1,-2,-1,0.938477,-0.0673828,0.214355,10.8125,20.875,24.3125,-0.203178,-1.31279,1.0065
433,-2,-1,-2,-3,-2,0,-2,0,0.969238,-0.0644531,0.195312,10.625,20.1875,22.375,-0.223943,-1.30559,1.03178
433,0,0,0,1,-1,-1,0,-1,0.969238,-0.0644531,0.195312,10.625,20.1875,22.375,-0.223943,-1.30559,1.03178
440,0,0,-1,-1,-3,0,-1,-1,0.969238,-0.0644531,0.195312,10.625,20.1875,22.375,-0.223943,-1.30559,1.03178
440,0,1,0,-2,-2,0,-3,-1,0.969238,-0.0644531,0.195312,10.625,20.1875,22.375,-0.223943,-1.30559,1.03178
449,0,0,-2,0,-2,0,-1,-2,0.955078,-0.0703125,0.205566,8.25,20,21.0625,-0.242668,-1.29815,1.05396
449,1,-2,0,0,1,-1,-1,-1,0.955078,-0.0703125,0.205566,8.25,20,21.0625,-0.242668,-1.29815,1.05396
468,-1,-1,0,1,0,-2,-2,-2,0.955078,-0.0703125,0.205566,8.25,20,21.0625,-0.242668,-1.29815,1.05396
468,0,-2,-2,-1,-1,0,0,-1,0.955078,-0.0703125,0.205566,8.25,20,21.0625,-0.242668,-1.29815,1.05396
470,0,0,1,-3,-1,-1,-2,0,0.915039,-0.104492,0.218262,6,18.3125,19.375,-0.261947,-1.29102,1.07594
470,-2,-1,0,0,-2,0,-2,-1,0.915039,-0.104492,0.218262,6,18.3125,19.375,-0.261947,-1.29102,1.07594
478,0,-1,-2,-4,-1,1,-1,0,0.915039,-0.104492,0.218262,6,18.3125,19.375,-0.261947,-1.29102,1.07594
478,-1,1,1,0,1,0,-1,-2,0.915039,-0.104492,0.218262,6,18.3125,19.375,-0.261947,-1.29102,1.07594
492,0,1,1,0,-1,-1,-1,0,0.879395,-0.138672,0.233887,6.1875,15.6875,17.75,-0.281573,-1.28398,1.09809
492,-2,-1,-1,-1,1,-1,0,-1,0.879395,-0.138672,0.233887,6.1875,15.6875,17.75,-0.281573,-1.28398,1.09809
499,0,-1,-2,-1,-1,-2,0,0,0.879395,-0.138672,0.233887,6.1875,15.6875,17.75,-0.281573,-1.28398,1.09809
499,0,-2,-1,0,0,-2,-1,0,0.879395,-0.138672,0.233887,6.1875,15.6875,17.75,-0.281573,-1.28398,1.09809
508,-3,0,-3,-2,-1,-1,-1,-1,0.856445,-0.168945,0.240723,11.125,13.0625,15.5,-0.298518,-1.27759,1.11924
508,-1,-1,0,-3,0,0,0,0,0.856445,-0.168945,0.240723,11.125,13.0625,15.5,-0.298518,-1.27759,1.11924
524,-1,-1,1,-1,-1,0,-2,0,0.856445,-0.168945,0.240723,11.125,13.0625,15.5,-0.298518,-1.27759,1.11924
524,-1,-1,1,-1,-3,-1,0,1,0.856445,-0.168945,0.240723,11.125,13.0625,15.5,-0.298518,-1.27759,1.11924
530,-1,-1,-1,-1,0,-2,-1,-1,0.856445,-0.180664,0.25,16.8125,10.625,12.625,-0.310721,-1.27206,1.13744
530,1,0,0,-2,-1,-2,-1,-2,0.856445,-0.180664,0.25,16.8125,10.625,12.625,-0.310721,-1.27206,1.13744
538,1,0,-1,-1,-1,-1,-1,0,0.856445,-0.180664,0.25,16.8125,10.625,12.625,-0.310721,-1.27206,1.13744
538,-2,0,-2,0,-1,0,-1,-1,0.856445,-0.180664,0.25,16.8125,10.625,12.625,-0.310721,-1.27206,1.13744
554,-1,-3,0,0,0,-1,-1,-1,0.845215,-0.185059,0.253418,19.6875,8.3125,10.25,-0.319621,-1.26725,1.15311
554,-1,-2,-2,0,-2,-1,-1,-1,0.845215,-0.185059,0.253418,19.6875,8.3125,10.25,-0.319621,-1.26725,1.15311
560,1,-1,0,0,0,0,0,0,0.845215,-0.185059,0.253418,19.6875,8.3125,10.25,-0.319621,-1.26725,1.15311
560,-1,0,-2,-2,-2,-2,0,1,0.845215,-0.185059,0.253418,19.6875,8.3125,10.25,-0.319621,-1.26725,1.15311
569,-2,-2,-2,0,0,0,0,-4,0.833984,-0.186523,0.266113,19.625,5.75,8.5,-0.327029,-1.26336,1.16743
569,-2,-1,0,-2,-1,0,0,0,0.833984,-0.186523,0.266113,19.625,5.75,8.5,-0.327029,-1.26336,1.16743
583,0,-4,-1,0,-1,-1,-1,-1,0.833984,-0.186523,0.266113,19.625,5.75,8.5,-0.327029,-1.26336,1.16743
583,0,-1,-1,0,-1,0,-2,0,0.833984,-0.186523,0.266113,19.625,5.75,8.5,-0.327029,-1.26336,1.16743
590,-1,0,-2,-1,0,0,0,0,0.839355,-0.191406,0.257812,19.0625,3.9375,6.5,-0.333731,-1.26038,1.18073
590,0,-1,-1,-1,-1,-2,-2,0,0.839355,-0.191406,0.257812,19.0625,3.9375,6.5,-0.333731,-1.26038,1.18073
605,-1,-1,-1,1,-1,-1,0,-2,0.839355,-0.191406,0.257812,19.0625,3.9375,6.5,-0.333731,-1.26038,1.18073
605,-1,-1,-3,-5,0,0,-1,-1,0.839355,-0.191406,0.257812,19.0625,3.9375,6.5,-0.333731,-1.26038,1.18073
612,0,0,-1,0,-1,-1,-1,-1,0.881836,-0.177246,0.229004,16.0625,4,3.8125,-0.337853,-1.25869,1.19008
612,1,-1,-1,0,0,-1,1,-1,0.881836,-0.177246,0.229004,16.0625,4,3.8125,-0.337853,-1.25869,1.19008
620,-1,-2,-1,-1,-1,-1,-2,1,0.881836,-0.177246,0.229004,16.0625,4,3.8125,-0.337853,-1.25869,1.19008
620,-1,-2,-2,-1,-1,-1,0,-1,0.881836,-0.177246,0.229004,16.0625,4,3.8125,-0.337853,-1.25869,1.19008
628,-1,0,0,-1,-1,0,-1,0,0.901855,-0.160156,0.224121,6.9375,6.3125,0.5,-0.339494,-1.25731,1.19391
628,-2,-1,-1,-2,-1,0,-1,-3,0.901855,-0.160156,0.224121,6.9375,6.3125,0.5,-0.339494,-1.25731,1.19391
643,-2,0,-2,-1,-2,-1,-1,-1,0.901855,-0.160156,0.224121,6.9375,6.3125,0.5,-0.339494,-1.25731,1.19391
643,-1,-1,0,0,-2,-1,-2,0,0.901855,-0.160156,0.224121,6.9375,6.3125,0.5,-0.339494,-1.25731,1.19391
650,-2,-1,-2,-1,0,-2,-1,-3,0.903809,-0.20166,0.25293,-0.625,6.5,-1.125,-0.344875,-1.25492,1.19834
650,-1,-3,-1,1,0,-2,0,-1,0.903809,-0.20166,0.25293,-0.625,6.5,-1.125,-0.344875,-1.25492,1.19834
666,-2,-2,0,-2,0,-2,0,0,0.903809,-0.20166,0.25293,-0.625,6.5,-1.125,-0.344875,-1.25492,1.19834
666,-1,-1,0,-1,0,0,0,-1,0.903809,-0.20166,0.25293,-0.625,6.5,-1.125,-0.344875,-1.25492,1.19834
673,0,-1,0,1,-2,-1,0,0,0.975098,-0.258301,0.277344,-1.5625,3.25,-4.4375,-0.351468,-1.25386,1.20365
673,0,-1,-1,-3,-1,-1,1,-1,0.975098,-0.258301,0.277344,-1.5625,3.25,-4.4375,-0.351468,-1.25386,1.20365
680,-1,-1,-1,-1,-2,-1,-1,-1,0.975098,-0.258301,0.277344,-1.5625,3.25,-4.4375,-0.351468,-1.25386,1.20365
680,0,-1,-1,-2,1,-2,-1,-2,0.975098,-0.258301,0.277344,-1.5625,3.25,-4.4375,-0.351468,-1.25386,1.20365
689,-2,0,-1,0,-1,0,-1,-3,1.09961,-0.319824,0.314941,-2.5625,-1.125,-10.5,-0.356997,-1.25434,1.20705
689,-1,-1,-1,0,0,-1,-1,1,1.09961,-0.319824,0.314941,-2.5625,-1.125,-10.5,-0.356997,-1.25434,1.20705
703,0,0,-1,1,0,0,-1,-2,1.09961,-0.319824,0.314941,-2.5625,-1.125,-10.5,-0.356997,-1.25434,1.20705
703,-2,-2,0,-1,-1,0,-2,-1,1.09961,-0.319824,0.314941,-2.5625,-1.125,-10.5,-0.356997,-1.25434,1.20705
710,0,-2,0,-1,0,-1,-2,-1,1.22412,-0.37793,0.335938,-5.9375,-5.3125,-18.375,-0.361459,-1.2572,1.20771
710,0,0,-1,-1,0,-1,-2,-2,1.22412,-0.37793,0.335938,-5.9375,-5.3125,-18.375,-0.361459,-1.2572,1.20771
726,0,-1,-1,-2,0,-1,-1,0,1.22412,-0.37793,0.335938,-5.9375,-5.3125,-18.375,-0.361459,-1.2572,1.20771
726,0,0,0,-1,0,0,-1,1,1.22412,-0.37793,0.335938,-5.9375,-5.3125,-18.375,-0.361459,-1.2572,1.20771
732,-1,0,-2,-1,0,-1,-1,-1,1.24561,-0.34082,0.307129,-12,-7.3125,-26.1875,-0.358904,-1.26231,1.19885
732,-1,-1,1,-1,-1,0,-2,-2,1.24561,-0.34082,0.307129,-12,-7.3125,-26.1875,-0.358904,-1.26231,1.19885
740,0,0,-6,-4,-2,-1,-2,-2,1.24561,-0.34082,0.307129,-12,-7.3125,-26.1875,-0.358904,-1.26231,1.19885
740,-2,-2,-1,1,-2,-1,0,-2,1.24561,-0.34082,0.307129,-12,-7.3125,-26.1875,-0.358904,-1.26231,1.19885
748,-2,0,0,-2,0,0,0,0,1.13721,-0.212891,0.258789,-22.875,-5.6875,-30.0625,-0.347039,-1.26879,1.17719
748,0,-1,0,-2,0,-1,0,-1,1.13721,-0.212891,0.258789,-22.875,-5.6875,-30.0625,-0.347039,-1.26879,1.17719
763,-2,-2,0,-1,0,-2,-1,-1,1.13721,-0.212891,0.258789,-22.875,-5.6875,-30.0625,-0.347039,-1.26879,1.17719
763,1,-1,-1,0,0,-2,-1,-2,1.13721,-0.212891,0.258789,-22.875,-5.6875,-30.0625,-0.347039,-1.26879,1.17719
770,-1,-1,-2,-2,-3,-2,-2,0,0.979492,-0.108887,0.231445,-38.625,-2.875,-28.8125,-0.333364,-1.27442,1.14876
770,-1,-2,-2,-1,-2,0,-1,0,0.979492,-0.108887,0.231445,-38.625,-2.875,-28.8125,-0.333364,-1.27442,1.14876
786,1,0,2,-1,-1,0,0,-1,0.979492,-0.108887,0.231445,-38.625,-2.875,-28.8125,-0.333364,-1.27442,1.14876
786,-1,0,-2,-2,-1,-1,1,0,0.979492,-0.108887,0.231445,-38.625,-2.875,-28.8125,-0.333364,-1.27442,1.14876
792,0,0,0,1,-1,0,-1,-1,0.857422,-0.101074,0.212891,-49,-1.1875,-24.0625,-0.327109,-1.27803,1.12413
792,-1,2,-1,1,-1,0,-2,-1,0.857422,-0.101074,0.212891,-49,-1.1875,-24.0625,-0.327109,-1.27803,1.12413
800,0,-2,-2,-6,-2,0,1,0,0.857422,-0.101074,0.212891,-49,-1.1875,-24.0625,-0.327109,-1.27803,1.12413
800,-1,-2,1,-1,-1,0,0,-2,0.857422,-0.101074,0.212891,-49,-1.1875,-24.0625,-0.327109,-1.27803,1.12413
808,0,-1,-1,-1,0,1,-1,0,0.803711,-0.131348,0.202148,-46.375,0.6875,-17.25,-0.329054,-1.27998,1.1089
808,0,0,-1,0,0,-1,-1,1,0.803711,-0.131348,0.202148,-46.375,0.6875,-17.25,-0.329054,-1.27998,1.1089
823,-1,0,-1,2,0,0,-2,-2,0.803711,-0.131348,0.202148,-46.375,0.6875,-17.25,-0.329054,-1.27998,1.1089
823,-1,0,-1,0,-1,-1,-1,0,0.803711,-0.131348,0.202148,-46.375,0.6875,-17.25,-0.329054,-1.27998,1.1089
830,-1,-2,-1,-1,-1,-2,0,-1,0.782715,-0.148926,0.197754,-33.9375,2.4375,-10.875,-0.334436,-1.28017,1.10147
830,-2,-1,-1,0,-1,-1,-1,-2,0.782715,-0.148926,0.197754,-33.9375,2.4375,-10.875,-0.334436,-1.28017,1.10147
845,-2,-2,1,2,0,-1,-1,-1,0.782715,-0.148926,0.197754,-33.9375,2.4375,-10.875,-0.334436,-1.28017,1.10147
845,-2,-1,-2,0,-1,-1,-1,-1,0.782715,-0.148926,0.197754,-33.9375,2.4375,-10.875,-0.334436,-1.28017,1.10147
852,-1,0,-2,0,-2,0,-1,-1,0.760742,-0.15625,0.226562,-22,3.5,-6.0625,-0.340241,-1.27846,1.09885
852,-2,0,-3,-2,-1,-1,-2,-1,0.760742,-0.15625,0.226562,-22,3.5,-6.0625,-0.340241,-1.27846,1.09885
860,0,0,0,-1,0,-1,-2,-2,0.760742,-0.15625,0.226562,-22,3.5,-6.0625,-0.340241,-1.27846,1.09885
860,-1,-2,0,0,-1,-1,-1,-3,0.760742,-0.15625,0.226562,-22,3.5,-6.0625,-0.340241,-1.27846,1.09885
869,0,-1,-1,-1,-2,-1,-1,1,0.762207,-0.178711,0.25,-16.25,3.8125,-2.25,-0.348968,-1.27623,1.10154
869,-1,-2,-1,-2,-2,0,-1,-1,0.762207,-0.178711,0.25,-16.25,3.8125,-2.25,-0.348968,-1.27623,1.10154
882,-1,0,-3,0,-1,-2,-2,-1,0.762207,-0.178711,0.25,-16.25,3.8125,-2.25,-0.348968,-1.27623,1.10154
882,0,1,0,-2,-1,-1,-2,1,0.762207,-0.178711,0.25,-16.25,3.8125,-2.25,-0.348968,-1.27623,1.10154
890,-3,-1,0,-1,0,-1,0,-1,0.790039,-0.222656,0.257324,-13.5625,4.125,0.75,-0.362636,-1.27287,1.10999
890,0,-2,-1,0,-1,-1,1,-1,0.790039,-0.222656,0.257324,-13.5625,4.125,0.75,-0.362636,-1.27287,1.10999
906,-2,-2,0,0,-2,-1,-1,1,0.790039,-0.222656,0.257324,-13.5625,4.125,0.75,-0.362636,-1.27287,1.10999
906,1,-2,-1,1,-1,-1,-1,-2,0.790039,-0.222656,0.257324,-13.5625,4.125,0.75,-0.362636,-1.27287,1.10999
912,0,0,0,-1,-2,-1,-1,0,0.827637,-0.271973,0.270996,-11.8125,3.8125,1.8125,-0.379538,-1.26904,1.12219
912,-1,-1,-1,-2,0,-1,-1,0,0.827637,-0.271973,0.270996,-11.8125,3.8125,1.8125,-0.379538,-1.26904,1.12219
920,-1,-1,0,-1,0,0,-2,0,0.827637,-0.271973,0.270996,-11.8125,3.8125,1.8125,-0.379538,-1.26904,1.12219
920,0,0,-2,1,-1,-1,0,-2,0.827637,-0.271973,0.270996,-11.8125,3.8125,1.8125,-0.379538,-1.26904,1.12219
929,-1,-1,-2,0,0,-3,-1,-2,0.884766,-0.320312,0.285645,-12.125,2.875,-0.75,-0.397181,-1.26592,1.13499
929,-2,-1,-2,-2,-1,-1,-1,-3,0.884766,-0.320312,0.285645,-12.125,2.875,-0.75,-0.397181,-1.26592,1.13499
943,-2,1,0,-2,1,-1,-1,0,0.884766,-0.320312,0.285645,-12.125,2.875,-0.75,-0.397181,-1.26592,1.13499
943,0,-1,-1,-2,0,-1,-1,0,0.884766,-0.320312,0.285645,-12.125,2.875,-0.75,-0.397181,-1.26592,1.13499
951,-2,-2,0,0,-1,-1,-1,-1,0.944824,-0.34082,0.288574,-16.75,1.5625,-5.5625,-0.412736,-1.26388,1.14365
951,0,-1,-3,0,0,-2,-1,0,0.944824,-0.34082,0.288574,-16.75,1.5625,-5.5625,-0.412736,-1.26388,1.14365
965,-2,-1,-1,1,-1,-1,-1,-3,0.944824,-0.34082,0.288574,-16.75,1.5625,-5.5625,-0.412736,-1.26388,1.14365
965,-2,-2,-1,-2,-2,-1,-1,-1,0.944824,-0.34082,0.288574,-16.75,1.5625,-5.5625,-0.412736,-1.26388,1.14365
972,0,1,-1,-2,0,-1,-1,-1,0.987305,-0.340332,0.289551,-23.3125,0,-10.25,-0.425876,-1.26292,1.14728
972,-1,0,0,-1,1,-1,-1,-1,0.987305,-0.340332,0.289551,-23.3125,0,-10.25,-0.425876,-1.26292,1.14728
980,0,-1,-1,-1,-2,-1,-2,0,0.987305,-0.340332,0.289551,-23.3125,0,-10.25,-0.425876,-1.26292,1.14728
980,-1,1,-1,0,-1,-1,0,-2,0.987305,-0.340332,0.289551,-23.3125,0,-10.25,-0.425876,-1.26292,1.14728
995,0,-1,0,-1,-1,-1,-1,-1,1.01904,-0.323242,0.277832,-31.3125,-1.75,-13.4375,-0.438453,-1.26389,1.14764
995,-3,-3,1,-2,-1,1,-2,0,1.01904,-0.323242,0.277832,-31.3125,-1.75,-13.4375,-0.438453,-1.26389,1.14764
1002,1,0,-2,1,-2,-1,1,-1,1.01904,-0.323242,0.277832,-31.3125,-1.75,-13.4375,-0.438453,-1.26389,1.14764
1002,-2,-2,1,0,0,-1,-1,0,1.01904,-0.323242,0.277832,-31.3125,-1.75,-13.4375,-0.438453,-1.26389,1.14764
1009,-1,0,-4,-4,0,-1,0,1,1.04736,-0.274902,0.27002,-42.625,-3.5,-15.375,-0.450306,-1.2665,1.14352
1009,0,2,-1,0,-2,-1,0,-1,1.04736,-0.274902,0.27002,-42.625,-3.5,-15.375,-0.450306,-1.2665,1.14352
1034,-1,-2,-1,-1,1,-2,1,0,1.04736,-0.274902,0.27002,-42.625,-3.5,-15.375,-0.450306,-1.2665,1.14352
1034,-1,1,0,0,0,-2,-1,-3,1.04736,-0.274902,0.27002,-42.625,-3.5,-15.375,-0.450306,-1.2665,1.14352
1036,0,-3,0,0,-1,-2,2,-1,1.05078,-0.236816,0.260742,-56,-5.4375,-15.1875,-0.465223,-1.27028,1.13797
1036,1,-2,-1,-1,0,-2,1,-2,1.05078,-0.236816,0.260742,-56,-5.4375,-15.1875,-0.465223,-1.27028,1.13797
1040,0,-1,0,-1,-3,1,0,-1,1.05078,-0.236816,0.260742,-56,-5.4375,-15.1875,-0.465223,-1.27028,1.13797
1040,-1,1,-1,-2,0,0,0,0,1.05078,-0.236816,0.260742,-56,-5.4375,-15.1875,-0.465223,-1.27028,1.13797
1055,0,1,-1,-2,1,-1,-4,-1,1.02881,-0.212402,0.254395,-65.3125,-7.5,-12.5625,-0.48484,-1.27449,1.13426
1055,0,-1,-1,-1,0,-1,0,0,1.02881,-0.212402,0.254395,-65.3125,-7.5,-12.5625,-0.48484,-1.27449,1.13426
1063,-2,-2,0,-2,0,-1,0,-2,1.02881,-0.212402,0.254395,-65.3125,-7.5,-12.5625,-0.48484,-1.27449,1.13426
1063,0,-2,-3,-3,-1,-1,0,-1,1.02881,-0.212402,0.254395,-65.3125,-7.5,-12.5625,-0.48484,-1.27449,1.13426
1070,0,-1,-1,0,0,-1,-1,-1,0.994629,-0.207031,0.253418,-66.125,-8.4375,-9.0625,-0.508218,-1.2777,1.13401
1070,-2,0,-1,0,-2,0,0,-2,0.994629,-0.207031,0.253418,-66.125,-8.4375,-9.0625,-0.508218,-1.2777,1.13401
1086,0,-2,-1,-1,-1,-1,-1,-1,0.994629,-0.207031,0.253418,-66.125,-8.4375,-9.0625,-0.508218,-1.2777,1.13401
1086,-1,-3,0,0,0,1,-1,0,0.994629,-0.207031,0.253418,-66.125,-8.4375,-9.0625,-0.508218,-1.2777,1.13401
1092,0,-2,-2,-2,-3,1,0,0,0.970215,-0.209473,0.251953,-59.0625,-8.3125,-4.25,-0.53403,-1.2804,1.13909
1092,-1,0,-1,1,-2,0,0,-1,0.970215,-0.209473,0.251953,-59.0625,-8.3125,-4.25,-0.53403,-1.2804,1.13909
1108,-1,1,-1,-2,0,-1,-1,-2,0.970215,-0.209473,0.251953,-59.0625,-8.3125,-4.25,-0.53403,-1.2804,1.13909
1108,0,-1,0,0,-1,-1,0,-1,0.970215,-0.209473,0.251953,-59.0625,-8.3125,-4.25,-0.53403,-1.2804,1.13909
1114,0,-2,-1,0,-1,0,1,-1,0.950195,-0.216797,0.255371,-47.75,-8.0625,0.125,-0.559793,-1.28137,1.14822
1114,-1,-2,-2,0,-1,-1,-1,-1,0.950195,-0.216797,0.255371,-47.75,-8.0625,0.125,-0.559793,-1.28137,1.14822
1122,0,-2,-1,0,0,-1,-1,-1,0.950195,-0.216797,0.255371,-47.75,-8.0625,0.125,-0.559793,-1.28137,1.14822
1122,-1,-2,0,-1,-2,1,-1,0,0.950195,-0.216797,0.255371,-47.75,-8.0625,0.125,-0.559793,-1.28137,1.14822
1131,-1,-1,0,-2,-1,0,-2,-2,0.926758,-0.249023,0.26123,-31.375,-9.0625,4.1875,-0.585853,-1.28143,1.16348
1131,-1,2,-1,-1,-1,-2,-1,0,0.926758,-0.249023,0.26123,-31.375,-9.0625,4.1875,-0.585853,-1.28143,1.16348
1145,-1,0,-2,-3,-2,0,0,1,0.926758,-0.249023,0.26123,-31.375,-9.0625,4.1875,-0.585853,-1.28143,1.16348
1145,-2,0,-2,0,0,-2,0,0,0.926758,-0.249023,0.26123,-31.375,-9.0625,4.1875,-0.585853,-1.28143,1.16348
1152,-1,1,0,-1,-2,-1,0,-1,0.919922,-0.273926,0.273926,-11.125,-11.0625,9.1875,-0.611752,-1.28032,1.18605
1152,0,-2,-2,-1,-1,-1,-2,-2,0.919922,-0.273926,0.273926,-11.125,-11.0625,9.1875,-0.611752,-1.28032,1.18605
1168,1,0,-1,0,-1,-1,-3,-1,0.919922,-0.273926,0.273926,-11.125,-11.0625,9.1875,-0.611752,-1.28032,1.18605
1168,-1,0,-2,-2,-1,-1,-1,0,0.919922,-0.273926,0.273926,-11.125,-11.0625,9.1875,-0.611752,-1.28032,1.18605
1182,-1,-2,-1,-1,-1,0,0,-1,0.931641,-0.269531,0.265625,8.75,-12.375,13.0625,-0.634599,-1.27912,1.21272
1182,-1,-3,0,-1,-1,-2,-2,0,0.931641,-0.269531,0.265625,8.75,-12.375,13.0625,-0.634599,-1.27912,1.21272
1191,-2,-1,-3,-1,1,-2,-2,-3,0.931641,-0.269531,0.265625,8.75,-12.375,13.0625,-0.634599,-1.27912,1.21272
1191,0,-1,-2,-2,-1,-1,-1,0,0.931641,-0.269531,0.265625,8.75,-12.375,13.0625,-0.634599,-1.27912,1.21272
1193,-2,0,-3,1,1,0,-1,0,0.946289,-0.245605,0.267578,20,-12.4375,14.5,-0.652623,-1.2777,1.23854
1193,1,-3,-1,-1,-1,-1,-3,0,0.946289,-0.245605,0.267578,20,-12.4375,14.5,-0.652623,-1.2777,1.23854
1206,-2,-2,0,0,-2,-2,-1,-1,0.946289,-0.245605,0.267578,20,-12.4375,14.5,-0.652623,-1.2777,1.23854
1206,1,0,1,-2,1,-1,1,-2,0.946289,-0.245605,0.267578,20,-12.4375,14.5,-0.652623,-1.2777,1.23854
1220,-2,-1,0,1,-2,0,1,-2,0.943848,-0.23877,0.275391,21.4375,-12.3125,14.6875,-0.668947,-1.27623,1.26327
1220,0,0,-2,-3,0,-1,-1,-1,0.943848,-0.23877,0.275391,21.4375,-12.3125,14.6875,-0.668947,-1.27623,1.26327
1236,-1,0,-1,0,0,0,-1,-1,0.943848,-0.23877,0.275391,21.4375,-12.3125,14.6875,-0.668947,-1.27623,1.26327
1236,1,-1,0,1,-2,-3,0,0,0.943848,-0.23877,0.275391,21.4375,-12.3125,14.6875,-0.668947,-1.27623,1.26327
1237,-1,-2,0,0,-2,-2,-1,0,0.941895,-0.233398,0.278809,17.375,-11.75,14.0625,-0.684295,-1.2744,1.28559
1237,-1,-1,0,0,-1,-1,1,-1,0.941895,-0.233398,0.278809,17.375,-11.75,14.0625,-0.684295,-1.2744,1.28559
1250,-1,-1,0,1,-1,-1,-1,-1,0.941895,-0.233398,0.278809,17.375,-11.75,14.0625,-0.684295,-1.2744,1.28559
1250,-2,-1,-1,1,0,0,-1,0,0.941895,-0.233398,0.278809,17.375,-11.75,14.0625,-0.684295,-1.2744,1.28559
1258,-2,-1,-1,1,0,-1,-1,-2,0.933105,-0.237305,0.277832,12.625,-10.75,12.3125,-0.698512,-1.27233,1.30503
1258,-1,-1,-3,-1,-1,-1,1,1,0.933105,-0.237305,0.277832,12.625,-10.75,12.3125,-0.698512,-1.27233,1.30503
1265,-1,1,-1,0,-1,0,0,-1,0.933105,-0.237305,0.277832,12.625,-10.75,12.3125,-0.698512,-1.27233,1.30503
1265,-1,-2,-1,0,-1,0,-2,1,0.933105,-0.237305,0.277832,12.625,-10.75,12.3125,-0.698512,-1.27233,1.30503
1272,1,-1,-1,-2,-1,-1,-1,-1,0.928223,-0.241699,0.287598,7.9375,-9.3125,9.6875,-0.710762,-1.27091,1.3209
1272,-1,-1,-1,-1,-2,0,-3,0,0.928223,-0.241699,0.287598,7.9375,-9.3125,9.6875,-0.710762,-1.27091,1.3209
1288,1,-1,0,-3,0,-2,0,-2,0.928223,-0.241699,0.287598,7.9375,-9.3125,9.6875,-0.710762,-1.27091,1.3209
1288,0,-1,-1,0,-1,-2,-2,-1,0.928223,-0.241699,0.287598,7.9375,-9.3125,9.6875,-0.710762,-1.27091,1.3209
1295,2,0,-1,-1,-1,-1,0,1,0.920898,-0.249512,0.28418,4.3125,-8,6.6875,-0.720532,-1.26923,1.33277
1295,-1,-3,0,0,-1,-1,-1,-2,0.920898,-0.249512,0.28418,4.3125,-8,6.6875,-0.720532,-1.26923,1.33277
1311,-1,3,-1,-1,-2,-2,0,-1,0.920898,-0.249512,0.28418,4.3125,-8,6.6875,-0.720532,-1.26923,1.33277
1311,-1,-2,-2,0,-2,-1,-2,-2,0.920898,-0.249512,0.28418,4.3125,-8,6.6875,-0.720532,-1.26923,1.33277
1313,-2,-1,0,-2,-1,-1,-1,0,0.922363,-0.254395,0.285645,1.625,-7,3.5625,-0.728277,-1.26801,1.3414
1313,0,-1,0,-2,0,-2,0,-1,0.922363,-0.254395,0.285645,1.625,-7,3.5625,-0.728277,-1.26801,1.3414
1326,-1,-2,-1,-1,-2,-1,-1,1,0.922363,-0.254395,0.285645,1.625,-7,3.5625,-0.728277,-1.26801,1.3414
1326,0,1,0,0,-1,0,-1,-2,0.922363,-0.254395,0.285645,1.625,-7,3.5625,-0.728277,-1.26801,1.3414
1332,0,-1,-6,-3,-2,-2,-3,-1,0.937988,-0.25,0.279297,-0.375,-5.75,0.5625,-0.732894,-1.26733,1.34608
1332,0,1,-1,-1,-1,0,-1,-1,0.937988,-0.25,0.279297,-0.375,-5.75,0.5625,-0.732894,-1.26733,1.34608
1348,-1,-1,-2,-2,0,-2,1,-1,0.937988,-0.25,0.279297,-0.375,-5.75,0.5625,-0.732894,-1.26733,1.34608
1348,-3,-1,-2,-1,1,-1,0,-1,0.937988,-0.25,0.279297,-0.375,-5.75,0.5625,-0.732894,-1.26733,1.34608
1355,-1,-1,1,1,-2,-2,-3,-2,0.945801,-0.245605,0.279297,-2.8125,-4.5,-2.25,-0.734878,-1.26725,1.34729
1355,0,0,-2,-1,-3,-2,-1,-1,0.945801,-0.245605,0.279297,-2.8125,-4.5,-2.25,-0.734878,-1.26725,1.34729
1371,0,-2,-2,0,-1,-1,-1,-2,0.945801,-0.245605,0.279297,-2.8125,-4.5,-2.25,-0.734878,-1.26725,1.34729
1371,-1,-2,0,0,-1,-2,-1,-1,0.945801,-0.245605,0.279297,-2.8125,-4.5,-2.25,-0.734878,-1.26725,1.34729
1373,-1,-2,1,0,1,-2,0,0,0.945801,-0.240234,0.277832,-4,-3.25,-4.25,-0.734655,-1.26761,1.34562
1373,-3,-2,0,-3,0,-1,-1,0,0.945801,-0.240234,0.277832,-4,-3.25,-4.25,-0.734655,-1.26761,1.34562
1385,0,-2,1,0,-1,0,-1,0,0.945801,-0.240234,0.277832,-4,-3.25,-4.25,-0.734655,-1.26761,1.34562
1385,-1,-1,-1,-1,-1,0,0,0,0.945801,-0.240234,0.277832,-4,-3.25,-4.25,-0.734655,-1.26761,1.34562
1393,0,-1,-2,-3,0,-1,-1,-2,0.942871,-0.230469,0.272949,-3.25,-1.75,-5.625,-0.731387,-1.2677,1.34112
1393,-2,0,0,1,1,-2,-1,-1,0.942871,-0.230469,0.272949,-3.25,-1.75,-5.625,-0.731387,-1.2677,1.34112
1408,-2,-1,0,-2,0,-2,-2,0,0.942871,-0.230469,0.272949,-3.25,-1.75,-5.625,-0.731387,-1.2677,1.34112
1408,-1,-2,-1,-1,0,-1,-2,0,0.942871,-0.230469,0.272949,-3.25,-1.75,-5.625,-0.731387,-1.2677,1.34112
1415,-1,-1,-1,-2,-1,0,0,0,0.948242,-0.21582,0.263672,-2.5625,0.3125,-6.9375,-0.725164,-1.26833,1.33378
1415,0,-1,0,0,-1,-1,-1,-2,0.948242,-0.21582,0.263672,-2.5625,0.3125,-6.9375,-0.725164,-1.26833,1.33378
1431,-1,-1,-3,1,-1,-2,-1,-2,0.948242,-0.21582,0.263672,-2.5625,0.3125,-6.9375,-0.725164,-1.26833,1.33378
1431,0,-1,2,1,-1,-1,0,-1,0.948242,-0.21582,0.263672,-2.5625,0.3125,-6.9375,-0.725164,-1.26833,1.33378
1432,-3,-1,-1,-1,-1,-1,0,1,0.946777,-0.204102,0.252441,-2.9375,3,-7.875,-0.716248,-1.26863,1.32358
1432,-1,-1,-1,-1,-2,0,-1,-1,0.946777,-0.204102,0.252441,-2.9375,3,-7.875,-0.716248,-1.26863,1.32358
1446,1,0,-2,-1,1,-1,-1,-1,0.946777,-0.204102,0.252441,-2.9375,3,-7.875,-0.716248,-1.26863,1.32358
1446,0,1,-1,-2,-3,-1,-3,-2,0.946777,-0.204102,0.252441,-2.9375,3,-7.875,-0.716248,-1.26863,1.32358
1455,-1,-2,1,1,0,-1,-3,-1,0.941406,-0.203613,0.247559,-3.75,5.3125,-8.1875,-0.706195,-1.26845,1.31172
1455,-2,1,1,-2,-1,-1,-1,0,0.941406,-0.203613,0.247559,-3.75,5.3125,-8.1875,-0.706195,-1.26845,1.31172
1468,-1,-4,0,-3,0,1,-1,-1,0.941406,-0.203613,0.247559,-3.75,5.3125,-8.1875,-0.706195,-1.26845,1.31172
1468,0,3,0,-2,0,-1,0,0,0.941406,-0.203613,0.247559,-3.75,5.3125,-8.1875,-0.706195,-1.26845,1.31172
1475,0,0,-2,-2,-3,-1,-2,1,0.943848,-0.210449,0.23291,-3.6875,7.9375,-9,-0.695248,-1.26798,1.29878
1475,-2,0,-1,-1,-1,-1,0,-2,0.943848,-0.210449,0.23291,-3.6875,7.9375,-9,-0.695248,-1.26798,1.29878
1507,-2,-3,1,0,-3,-2,-1,-1,0.943848,-0.210449,0.23291,-3.6875,7.9375,-9,-0.695248,-1.26798,1.29878
1507,0,-1,-2,0,-1,0,0,-1,0.943848,-0.210449,0.23291,-3.6875,7.9375,-9,-0.695248,-1.26798,1.29878
1509,-1,0,0,-1,-1,-1,0,-1,0.959961,-0.214355,0.253418,-2.4375,10.125,-9.4375,-0.681087,-1.26622,1.28287
1509,1,0,-1,-1,-2,0,-1,0,0.959961,-0.214355,0.253418,-2.4375,10.125,-9.4375,-0.681087,-1.26622,1.28287
1509,1,1,-1,-1,0,-2,1,0,0.959961,-0.214355,0.253418,-2.4375,10.125,-9.4375,-0.681087,-1.26622,1.28287
1509,-1,-2,0,-2,0,0,0,-3,0.959961,-0.214355,0.253418,-2.4375,10.125,-9.4375,-0.681087,-1.26622,1.28287
1514,-1,0,-1,-2,-2,-2,-1,-1,0.994629,-0.239746,0.268066,-0.5,10.625,-10.6875,-0.666345,-1.26476,1.26723
1514,0,-1,-1,-1,0,0,-2,-3,0.994629,-0.239746,0.268066,-0.5,10.625,-10.6875,-0.666345,-1.26476,1.26723
1528,-2,0,0,-1,-1,-1,-2,-1,0.994629,-0.239746,0.268066,-0.5,10.625,-10.6875,-0.666345,-1.26476,1.26723
1528,-1,-3,-1,-2,-2,-2,-3,1,0.994629,-0.239746,0.268066,-0.5,10.625,-10.6875,-0.666345,-1.26476,1.26723
1535,0,4,1,1,0,0,-1,-1,1.04688,-0.290527,0.311035,3.625,8.1875,-12.1875,-0.652587,-1.2629,1.25376
1535,-1,-3,-4,-2,-2,-3,0,-2,1.04688,-0.290527,0.311035,3.625,8.1875,-12.1875,-0.652587,-1.2629,1.25376
1551,-2,-1,-4,-3,-1,-1,0,-1,1.04688,-0.290527,0.311035,3.625,8.1875,-12.1875,-0.652587,-1.2629,1.25376
1551,-1,-1,-2,-2,0,-1,-2,-1,1.04688,-0.290527,0.311035,3.625,8.1875,-12.1875,-0.652587,-1.2629,1.25376
1552,-1,-4,-1,-1,1,-1,0,-1,1.09668,-0.291016,0.298828,7.375,5.375,-16,-0.636614,-1.26317,1.23929
1552,0,0,1,1,-4,0,-2,-1,1.09668,-0.291016,0.298828,7.375,5.375,-16,-0.636614,-1.26317,1.23929
1573,0,-1,-1,-2,-2,-1,-3,-2,1.09668,-0.291016,0.298828,7.375,5.375,-16,-0.636614,-1.26317,1.23929
1573,-1,-4,-2,-1,0,-1,0,-1,1.09668,-0.291016,0.298828,7.375,5.375,-16,-0.636614,-1.26317,1.23929
1580,-2,-1,0,0,0,0,-1,-2,1.104,-0.225586,0.282227,5.6875,3.5625,-18.9375,-0.617469,-1.26589,1.22109
1580,-1,-1,-1,0,-1,-1,1,0,1.104,-0.225586,0.282227,5.6875,3.5625,-18.9375,-0.617469,-1.26589,1.22109
1588,-1,-1,-1,-1,-1,-2,-2,0,1.104,-0.225586,0.282227,5.6875,3.5625,-18.9375,-0.617469,-1.26589,1.22109
1588,0,0,-1,0,-2,-3,0,0,1.104,-0.225586,0.282227,5.6875,3.5625,-18.9375,-0.617469,-1.26589,1.22109
1594,0,-1,-2,-1,-1,-1,-1,-3,1.04395,-0.126465,0.244629,-4,4,-19.125,-0.595899,-1.26983,1.19746
1594,-1,-2,-1,-2,0,-1,0,-1,1.04395,-0.126465,0.244629,-4,4,-19.125,-0.595899,-1.26983,1.19746
1611,-2,-2,-1,1,-1,-2,-1,1,1.04395,-0.126465,0.244629,-4,4,-19.125,-0.595899,-1.26983,1.19746
1611,1,-1,-2,0,-1,-2,-1,-1,1.04395,-0.126465,0.244629,-4,4,-19.125,-0.595899,-1.26983,1.19746
1613,-2,-1,0,-2,-2,-2,-1,0,0.946289,-0.0668945,0.228027,-15.6875,5.4375,-17.1875,-0.576229,-1.27272,1.17152
1613,-2,-2,-2,-1,1,-1,-1,0,0.946289,-0.0668945,0.228027,-15.6875,5.4375,-17.1875,-0.576229,-1.27272,1.17152
1625,0,0,-2,0,-1,-1,2,-2,0.946289,-0.0668945,0.228027,-15.6875,5.4375,-17.1875,-0.576229,-1.27272,1.17152
1625,-1,0,2,-1,-3,0,0,0,0.946289,-0.0668945,0.228027,-15.6875,5.4375,-17.1875,-0.576229,-1.27272,1.17152
1634,-1,-2,-3,-4,0,0,0,-1,0.867188,-0.0854492,0.206543,-21.6875,6.4375,-13.375,-0.563761,-1.27475,1.15104
1634,-2,-2,1,2,0,0,-1,-1,0.867188,-0.0854492,0.206543,-21.6875,6.4375,-13.375,-0.563761,-1.27475,1.15104
1648,0,2,-1,0,0,-1,-2,-2,0.867188,-0.0854492,0.206543,-21.6875,6.4375,-13.375,-0.563761,-1.27475,1.15104
1648,-1,0,-2,-1,-3,0,-1,-3,0.867188,-0.0854492,0.206543,-21.6875,6.4375,-13.375,-0.563761,-1.27475,1.15104
1662,0,0,-2,0,0,0,0,0,0.841797,-0.10791,0.1875,-15.3125,9.25,-10.8125,-0.552488,-1.27475,1.13363
1662,-1,0,-2,-1,-1,-2,0,-2,0.841797,-0.10791,0.1875,-15.3125,9.25,-10.8125,-0.552488,-1.27475,1.13363
1670,-1,-1,0,-2,-3,-1,-1,0,0.841797,-0.10791,0.1875,-15.3125,9.25,-10.8125,-0.552488,-1.27475,1.13363
1670,-1,-2,-1,-1,0,1,-1,0,0.841797,-0.10791,0.1875,-15.3125,9.25,-10.8125,-0.552488,-1.27475,1.13363
1673,1,-1,0,0,-3,-1,-2,-1,0.848633,-0.12793,0.183594,-1.1875,12.875,-8.875,-0.537664,-1.2732,1.11752
1673,0,-1,0,-1,-1,0,-2,-1,0.848633,-0.12793,0.183594,-1.1875,12.875,-8.875,-0.537664,-1.2732,1.11752
1685,-3,-2,-1,-1,0,-2,-2,-2,0.848633,-0.12793,0.183594,-1.1875,12.875,-8.875,-0.537664,-1.2732,1.11752
1685,-1,-1,-1,0,-2,-1,-1,-1,0.848633,-0.12793,0.183594,-1.1875,12.875,-8.875,-0.537664,-1.2732,1.11752
1693,-1,-1,-1,-1,-1,-1,0,0,0.870117,-0.125,0.173828,9.0625,15.625,-7.25,-0.520689,-1.27113,1.10296
1693,1,0,-2,-1,-1,1,0,0,0.870117,-0.125,0.173828,9.0625,15.625,-7.25,-0.520689,-1.27113,1.10296
1708,-1,-1,-1,0,-1,-1,-1,0,0.870117,-0.125,0.173828,9.0625,15.625,-7.25,-0.520689,-1.27113,1.10296
1708,-1,-1,-1,-1,1,-2,0,0,0.870117,-0.125,0.173828,9.0625,15.625,-7.25,-0.520689,-1.27113,1.10296
1715,1,-2,-2,-2,-2,-1,-1,-2,0.900391,-0.123535,0.186523,9,16.75,-7,-0.502658,-1.26856,1.08721
1715,-2,0,0,-1,1,-2,-1,-1,0.900391,-0.123535,0.186523,9,16.75,-7,-0.502658,-1.26856,1.08721
1731,-2,-1,-1,-1,0,0,-2,-2,0.900391,-0.123535,0.186523,9,16.75,-7,-0.502658,-1.26856,1.08721
1731,0,1,-1,-1,-1,-2,-1,-1,0.900391,-0.123535,0.186523,9,16.75,-7,-0.502658,-1.26856,1.08721
1732,-2,-1,-1,1,0,-1,-1,-2,0.93457,-0.142578,0.20166,2.6875,16.1875,-7.8125,-0.488337,-1.26612,1.07294
1732,-1,-2,0,0,-1,0,0,0,0.93457,-0.142578,0.20166,2.6875,16.1875,-7.8125,-0.488337,-1.26612,1.07294
1745,1,-2,0,-1,0,-1,0,1,0.93457,-0.142578,0.20166,2.6875,16.1875,-7.8125,-0.488337,-1.26612,1.07294
1745,-2,-2,-4,-3,-1,-3,0,-2,0.93457,-0.142578,0.20166,2.6875,16.1875,-7.8125,-0.488337,-1.26612,1.07294
1753,-1,-1,-1,-1,-1,-1,0,-2,0.96875,-0.148926,0.221191,-4.75,15.4375,-10.75,-0.474024,-1.26434,1.05618
1753,-1,0,0,-2,-1,-1,-2,-1,0.96875,-0.148926,0.221191,-4.75,15.4375,-10.75,-0.474024,-1.26434,1.05618
1777,-1,-1,0,0,-1,1,-1,-2,1.00293,-0.140137,0.220215,-12.5,14.1875,-13.5625,-0.460254,-1.26327,1.03686
1777,0,-1,-3,-2,0,-1,-2,0,1.00293,-0.140137,0.220215,-12.5,14.1875,-13.5625,-0.460254,-1.26327,1.03686
1777,-1,-1,-2,0,-1,-1,0,0,1.00293,-0.140137,0.220215,-12.5,14.1875,-13.5625,-0.460254,-1.26327,1.03686
1777,-1,0,-3,-1,-1,-1,-1,-2,1.00293,-0.140137,0.220215,-12.5,14.1875,-13.5625,-0.460254,-1.26327,1.03686
1791,0,0,0,-2,0,-1,0,-2,1.01221,-0.116699,0.210938,-19.625,12.875,-15.125,-0.447341,-1.26317,1.01594
1791,-3,-1,1,0,1,-1,1,-1,1.01221,-0.116699,0.210938,-19.625,12.875,-15.125,-0.447341,-1.26317,1.01594
1791,-2,-1,0,0,-1,0,0,1,1.01221,-0.116699,0.210938,-19.625,12.875,-15.125,-0.447341,-1.26317,1.01594
1791,1,-1,-2,0,-2,-1,0,1,1.01221,-0.116699,0.210938,-19.625,12.875,-15.125,-0.447341,-1.26317,1.01594
1813,-1,-1,-3,0,-1,-2,1,-1,1.00098,-0.0957031,0.203125,-24.9375,11.5625,-15.1875,-0.435354,-1.26411,0.994238
1813,0,-2,-2,-2,0,-1,-2,-2,1.00098,-0.0957031,0.203125,-24.9375,11.5625,-15.1875,-0.435354,-1.26411,0.994238
1813,-1,0,-1,0,0,-2,-1,0,1.00098,-0.0957031,0.203125,-24.9375,11.5625,-15.1875,-0.435354,-1.26411,0.994238
1813,0,-2,0,-1,0,-1,1,-2,1.00098,-0.0957031,0.203125,-24.9375,11.5625,-15.1875,-0.435354,-1.26411,0.994238
1828,-2,-1,-1,0,0,0,-1,0,0.97998,-0.0791016,0.213867,-25.75,9,-13.875,-0.424874,-1.26507,0.973966
1828,0,0,0,-2,-1,-1,-1,-1,0.97998,-0.0791016,0.213867,-25.75,9,-13.875,-0.424874,-1.26507,0.973966
1835,-1,-1,1,-2,1,0,-1,-2,0.97998,-0.0791016,0.213867,-25.75,9,-13.875,-0.424874,-1.26507,0.973966
1835,0,-1,1,-2,-2,-1,0,0,0.97998,-0.0791016,0.213867,-25.75,9,-13.875,-0.424874,-1.26507,0.973966
1850,-1,-1,-5,-2,-2,-2,-2,0,0.969727,-0.0849609,0.209473,-22,6.625,-13.0625,-0.41607,-1.26645,0.956717
1850,-1,-1,-1,2,0,-1,-1,-2,0.969727,-0.0849609,0.209473,-22,6.625,-13.0625,-0.41607,-1.26645,0.956717
1851,-1,0,-2,0,-3,0,-2,-1,0.969727,-0.0849609,0.209473,-22,6.625,-13.0625,-0.41607,-1.26645,0.956717
1851,0,1,0,1,-1,-1,-1,-1,0.969727,-0.0849609,0.209473,-22,6.625,-13.0625,-0.41607,-1.26645,0.956717
1873,0,-1,0,0,1,-1,0,-2,0.973145,-0.0649414,0.1875,-15.3125,6.8125,-12,-0.40483,-1.26855,0.939557
1873,-1,0,-2,0,-2,-1,-2,-1,0.973145,-0.0649414,0.1875,-15.3125,6.8125,-12,-0.40483,-1.26855,0.939557
1874,-2,1,1,-1,-2,-1,0,-1,0.973145,-0.0649414,0.1875,-15.3125,6.8125,-12,-0.40483,-1.26855,0.939557
1874,-1,-1,-3,-2,-1,0,-1,-1,0.973145,-0.0649414,0.1875,-15.3125,6.8125,-12,-0.40483,-1.26855,0.939557
1889,-2,0,0,-1,-2,1,1,-1,0.966797,-0.0209961,0.164551,-12.5625,9.3125,-10.1875,-0.391177,-1.27004,0.920874
1889,-2,-3,0,-2,-1,-1,0,-1,0.966797,-0.0209961,0.164551,-12.5625,9.3125,-10.1875,-0.391177,-1.27004,0.920874
1903,-1,1,0,0,0,-3,-2,-2,0.966797,-0.0209961,0.164551,-12.5625,9.3125,-10.1875,-0.391177,-1.27004,0.920874
1903,-2,-2,-2,-3,-2,-1,0,0,0.966797,-0.0209961,0.164551,-12.5625,9.3125,-10.1875,-0.391177,-1.27004,0.920874
1910,-1,-1,0,2,0,-1,-1,-2,0.940918,-0.0161133,0.188965,-16.3125,10.875,-8.3125,-0.37902,-1.27035,0.902723
1910,-1,0,0,-2,-1,-1,-1,0,0.940918,-0.0161133,0.188965,-16.3125,10.875,-8.3125,-0.37902,-1.27035,0.902723
1911,-1,-1,-2,-2,1,-2,-1,-1,0.940918,-0.0161133,0.188965,-16.3125,10.875,-8.3125,-0.37902,-1.27035,0.902723
1911,-2,0,-1,0,-1,-1,-2,-1,0.940918,-0.0161133,0.188965,-16.3125,10.875,-8.3125,-0.37902,-1.27035,0.902723
1932,-2,-1,-1,-1,-1,-2,-1,-1,0.905762,-0.0839844,0.211426,-20.25,8.8125,-7.1875,-0.375209,-1.26985,0.891313
1932,1,-4,0,0,-1,0,-1,0,0.905762,-0.0839844,0.211426,-20.25,8.8125,-7.1875,-0.375209,-1.26985,0.891313
1934,-1,3,1,-2,-1,1,-2,-2,0.905762,-0.0839844,0.211426,-20.25,8.8125,-7.1875,-0.375209,-1.26985,0.891313
1934,-2,1,-1,-1,-1,-1,-1,0,0.905762,-0.0839844,0.211426,-20.25,8.8125,-7.1875,-0.375209,-1.26985,0.891313
1949,-2,-2,0,-1,-1,0,1,-1,0.907715,-0.101074,0.221191,-18.375,6.625,-9.25,-0.370544,-1.26966,0.879596
1949,-1,-1,0,-3,-1,-2,-1,-1,0.907715,-0.101074,0.221191,-18.375,6.625,-9.25,-0.370544,-1.26966,0.879596
1955,0,-2,-1,0,1,0,-1,0,0.907715,-0.101074,0.221191,-18.375,6.625,-9.25,-0.370544,-1.26966,0.879596
1955,1,-2,-1,-1,0,-2,-2,-1,0.907715,-0.101074,0.221191,-18.375,6.625,-9.25,-0.370544,-1.26966,0.879596
1972,0,1,-1,-2,-1,-2,-3,-1,0.906738,-0.0791016,0.232422,-13.9375,5.3125,-11.75,-0.360206,-1.2703,0.863752
1972,-1,0,-1,1,-1,2,-1,-1,0.906738,-0.0791016,0.232422,-13.9375,5.3125,-11.75,-0.360206,-1.2703,0.863752
1978,-1,-3,-2,-1,-1,0,-2,-1,0.906738,-0.0791016,0.232422,-13.9375,5.3125,-11.75,-0.360206,-1.2703,0.863752
1978,0,0,0,0,1,0,-1,-1,0.906738,-0.0791016,0.232422,-13.9375,5.3125,-11.75,-0.360206,-1.2703,0.863752
1993,-1,-1,-2,-2,0,-2,0,0,0.902344,-0.0405273,0.231445,-13.4375,4.8125,-14.5,-0.344304,-1.2712,0.842355
1993,-1,1,-3,0,-1,0,0,-2,0.902344,-0.0405273,0.231445,-13.4375,4.8125,-14.5,-0.344304,-1.2712,0.842355
1993,0,-2,0,2,-2,-2,-1,-1,0.902344,-0.0405273,0.231445,-13.4375,4.8125,-14.5,-0.344304,-1.2712,0.842355
1993,-1,-1,2,2,-1,-1,-2,1,0.902344,-0.0405273,0.231445,-13.4375,4.8125,-14.5,-0.344304,-1.2712,0.842355
2017,-1,-4,-7,-7,0,0,-1,0,0.892578,-0.00878906,0.243652,-17.4375,4.375,-15.0625,-0.326811,-1.27288,0.818486
2017,-2,0,-3,-3,-1,0,0,-1,0.892578,-0.00878906,0.243652,-17.4375,4.375,-15.0625,-0.326811,-1.27288,0.818486
2018,-1,-4,-1,-3,-1,0,0,-1,0.892578,-0.00878906,0.243652,-17.4375,4.375,-15.0625,-0.326811,-1.27288,0.818486
2018,0,-1,0,0,-1,-1,-1,-1,0.892578,-0.00878906,0.243652,-17.4375,4.375,-15.0625,-0.326811,-1.27288,0.818486
2029,-1,0,0,2,-1,1,0,-1,0.875,-0.0102539,0.237305,-20.5625,2.3125,-15.0625,-0.311601,-1.27449,0.795432
2029,0,3,0,0,-1,-2,0,1,0.875,-0.0102539,0.237305,-20.5625,2.3125,-15.0625,-0.311601,-1.27449,0.795432
2037,-1,-5,2,4,1,-2,0,-1,0.875,-0.0102539,0.237305,-20.5625,2.3125,-15.0625,-0.311601,-1.27449,0.795432
2037,-1,-4,-6,-9,-2,-1,0,-1,0.875,-0.0102539,0.237305,-20.5625,2.3125,-15.0625,-0.311601,-1.27449,0.795432
2054,1,1,1,-1,-2,-1,-2,-2,0.878418,-0.0200195,0.245117,-19.0625,0,-16,-0.296169,-1.27669,0.772784
2054,-2,-2,-1,-2,0,0,-1,-2,0.878418,-0.0200195,0.245117,-19.0625,0,-16,-0.296169,-1.27669,0.772784
2060,0,-1,0,-1,-1,0,0,-2,0.878418,-0.0200195,0.245117,-19.0625,0,-16,-0.296169,-1.27669,0.772784
2060,-1,0,3,3,-1,-2,-1,-1,0.878418,-0.0200195,0.245117,-19.0625,0,-16,-0.296169,-1.27669,0.772784
2069,-1,-1,-1,1,0,0,0,-2,0.90918,-0.0195312,0.260254,-17.75,-2.25,-17.9375,-0.278808,-1.2798,0.74855
2069,-1,-1,0,-2,-1,0,-2,-1,0.90918,-0.0195312,0.260254,-17.75,-2.25,-17.9375,-0.278808,-1.2798,0.74855
2075,-1,0,1,0,0,-2,0,1,0.90918,-0.0195312,0.260254,-17.75,-2.25,-17.9375,-0.278808,-1.2798,0.74855
2075,-1,-2,-3,-2,-1,0,-1,-1,0.90918,-0.0195312,0.260254,-17.75,-2.25,-17.9375,-0.278808,-1.2798,0.74855
2090,1,3,-2,-2,0,-2,-2,0,0.939941,-0.0175781,0.28125,-15.625,-4.375,-18.8125,-0.259634,-1.28291,0.723207
2090,0,-2,1,-1,-1,-1,0,0,0.939941,-0.0175781,0.28125,-15.625,-4.375,-18.8125,-0.259634,-1.28291,0.723207
2105,0,-1,-5,-2,-1,-2,-1,-1,0.939941,-0.0175781,0.28125,-15.625,-4.375,-18.8125,-0.259634,-1.28291,0.723207
2105,0,-1,0,1,-1,-1,0,0,0.939941,-0.0175781,0.28125,-15.625,-4.375,-18.8125,-0.259634,-1.28291,0.723207
2112,0,-2,-2,0,-1,-2,-1,-2,0.97998,-0.0107422,0.29541,-14,-7.1875,-18.625,-0.23977,-1.28671,0.697867
2112,-2,-1,0,-2,-1,-2,-1,1,0.97998,-0.0107422,0.29541,-14,-7.1875,-18.625,-0.23977,-1.28671,0.697867
2119,-1,-1,-2,-4,-2,0,0,0,0.97998,-0.0107422,0.29541,-14,-7.1875,-18.625,-0.23977,-1.28671,0.697867
2119,-1,1,-3,0,0,-1,-1,-2,0.97998,-0.0107422,0.29541,-14,-7.1875,-18.625,-0.23977,-1.28671,0.697867
2129,-2,-2,2,1,0,0,-2,-2,1.00586,-0.00537109,0.303711,-13.3125,-9.6875,-18.125,-0.220723,-1.29135,0.673715
2129,1,-1,-1,2,-2,-1,-2,-2,1.00586,-0.00537109,0.303711,-13.3125,-9.6875,-18.125,-0.220723,-1.29135,0.673715
2135,0,-1,0,-3,-1,-1,0,0,1.00586,-0.00537109,0.303711,-13.3125,-9.6875,-18.125,-0.220723,-1.29135,0.673715
2135,0,-1,-1,-1,0,0,-1,-2,1.00586,-0.00537109,0.303711,-13.3125,-9.6875,-18.125,-0.220723,-1.29135,0.673715
2149,-2,-1,-2,0,0,0,0,-1,1.00928,0.00878906,0.3125,-12.8125,-11.6875,-17.0625,-0.201171,-1.29614,0.649273
2149,-1,0,0,-3,-1,-2,-1,0,1.00928,0.00878906,0.3125,-12.8125,-11.6875,-17.0625,-0.201171,-1.29614,0.649273
2165,-2,1,-1,0,-2,-1,-4,-1,1.00928,0.00878906,0.3125,-12.8125,-11.6875,-17.0625,-0.201171,-1.29614,0.649273
2165,1,-1,0,-2,-2,0,0,-1,1.00928,0.00878906,0.3125,-12.8125,-11.6875,-17.0625,-0.201171,-1.29614,0.649273
2172,-2,-1,-2,-2,-3,-1,0,-1,0.974609,0.0107422,0.321777,-12.3125,-14.1875,-14.75,-0.18433,-1.3008,0.627715
2172,-1,-3,0,1,-1,-1,-1,0,0.974609,0.0107422,0.321777,-12.3125,-14.1875,-14.75,-0.18433,-1.3008,0.627715
2173,-1,3,-2,0,-1,-1,-1,-2,0.974609,0.0107422,0.321777,-12.3125,-14.1875,-14.75,-0.18433,-1.3008,0.627715
2173,-1,-2,-2,-5,-3,-1,-1,-1,0.974609,0.0107422,0.321777,-12.3125,-14.1875,-14.75,-0.18433,-1.3008,0.627715
2189,-2,-3,-1,-1,0,-1,-2,-1,0.946777,0.0151367,0.328125,-9.375,-16.5625,-13.0625,-0.168262,-1.30574,0.608163
2189,-1,-1,-3,-4,-1,-1,-2,0,0.946777,0.0151367,0.328125,-9.375,-16.5625,-13.0625,-0.168262,-1.30574,0.608163
2194,-2,-2,-3,0,0,1,-1,-1,0.946777,0.0151367,0.328125,-9.375,-16.5625,-13.0625,-0.168262,-1.30574,0.608163
2194,-1,-1,0,1,1,-2,-2,-2,0.946777,0.0151367,0.328125,-9.375,-16.5625,-13.0625,-0.168262,-1.30574,0.608163
2219,0,0,0,1,-2,0,0,0,0.920898,0.00878906,0.324219,-4.5625,-17.875,-11.875,-0.153066,-1.31078,0.591109
2219,0,-2,-2,-2,-1,-2,-1,-2,0.920898,0.00878906,0.324219,-4.5625,-17.875,-11.875,-0.153066,-1.31078,0.591109
2220,-1,-1,1,1,-1,-1,-2,-1,0.920898,0.00878906,0.324219,-4.5625,-17.875,-11.875,-0.153066,-1.31078,0.591109
2220,-2,-1,-2,-2,-1,-2,-2,-1,0.920898,0.00878906,0.324219,-4.5625,-17.875,-11.875,-0.153066,-1.31078,0.591109
2232,-1,-2,-1,-5,0,-1,-1,-1,0.891602,0.00537109,0.314453,-0.375,-18.0625,-11.3125,-0.1368,-1.31574,0.574519
2232,-2,-1,-1,1,-1,1,1,-1,0.891602,0.00537109,0.314453,-0.375,-18.0625,-11.3125,-0.1368,-1.31574,0.574519
2234,1,-1,-1,-1,-3,-2,-1,-2,0.891602,0.00537109,0.314453,-0.375,-18.0625,-11.3125,-0.1368,-1.31574,0.574519
2234,-1,-1,0,1,-1,0,0,-1,0.891602,0.00537109,0.314453,-0.375,-18.0625,-11.3125,-0.1368,-1.31574,0.574519
2248,0,-3,0,0,-1,-3,0,-1,0.871094,0.015625,0.315918,1.75,-17.6875,-11.5,-0.118873,-1.3204,0.55709
2248,-1,2,-1,1,-1,-1,-2,-3,0.871094,0.015625,0.315918,1.75,-17.6875,-11.5,-0.118873,-1.3204,0.55709
2254,0,1,3,-2,-1,-1,-1,0,0.871094,0.015625,0.315918,1.75,-17.6875,-11.5,-0.118873,-1.3204,0.55709
2254,-1,-2,-3,-2,0,-1,-1,-1,0.871094,0.015625,0.315918,1.75,-17.6875,-11.5,-0.118873,-1.3204,0.55709
2269,-1,-1,-1,-2,-1,-1,-2,0,0.847656,0.0117188,0.321777,3.3125,-17.875,-10.125,-0.101882,-1.32437,0.541017
2269,-1,-1,0,-1,-1,-2,0,-1,0.847656,0.0117188,0.321777,3.3125,-17.875,-10.125,-0.101882,-1.32437,0.541017
2277,-1,-1,-1,-1,0,0,0,0,0.847656,0.0117188,0.321777,3.3125,-17.875,-10.125,-0.101882,-1.32437,0.541017
2277,-1,-1,0,0,0,-2,-3,1,0.847656,0.0117188,0.321777,3.3125,-17.875,-10.125,-0.101882,-1.32437,0.541017
2293,0,-2,-1,-1,-1,-1,1,0,0.845703,0.00878906,0.332031,3.9375,-19.0625,-9.5,-0.0858548,-1.32852,0.526157
2293,0,-2,2,1,-1,-2,-1,-1,0.845703,0.00878906,0.332031,3.9375,-19.0625,-9.5,-0.0858548,-1.32852,0.526157
2294,-1,-2,-3,-2,-1,0,0,-1,0.845703,0.00878906,0.332031,3.9375,-19.0625,-9.5,-0.0858548,-1.32852,0.526157
2294,-2,0,0,-1,-2,0,0,0,0.845703,0.00878906,0.332031,3.9375,-19.0625,-9.5,-0.0858548,-1.32852,0.526157
2308,0,0,0,0,-3,0,-1,0,0.879395,0.00732422,0.328613,3.9375,-19.6875,-8.75,-0.0709262,-1.33298,0.512455
2308,-1,0,-1,0,-1,-1,-2,-2,0.879395,0.00732422,0.328613,3.9375,-19.6875,-8.75,-0.0709262,-1.33298,0.512455
2322,0,0,-3,0,-2,-2,-1,-1,0.879395,0.00732422,0.328613,3.9375,-19.6875,-8.75,-0.0709262,-1.33298,0.512455
2322,0,0,1,1,-1,-2,-2,0,0.879395,0.00732422,0.328613,3.9375,-19.6875,-8.75,-0.0709262,-1.33298,0.512455
2339,-1,1,-4,0,-1,-1,-2,-1,0.89209,-0.0078125,0.344727,3.5,-20.125,-8.125,-0.0584569,-1.33661,0.500849
2339,0,-1,-1,-1,-2,1,-1,0,0.89209,-0.0078125,0.344727,3.5,-20.125,-8.125,-0.0584569,-1.33661,0.500849
2340,0,-3,-2,-2,-2,-1,-1,-1,0.89209,-0.0078125,0.344727,3.5,-20.125,-8.125,-0.0584569,-1.33661,0.500849
2340,-1,-3,-1,0,-1,0,-1,-1,0.89209,-0.0078125,0.344727,3.5,-20.125,-8.125,-0.0584569,-1.33661,0.500849
2353,-2,3,-2,-2,-1,0,-1,-2,0.900391,-0.00292969,0.32373,4.125,-20,-7.5625,-0.0465512,-1.34115,0.4902
2353,0,-2,-1,-1,0,1,-2,-2,0.900391,-0.00292969,0.32373,4.125,-20,-7.5625,-0.0465512,-1.34115,0.4902
2354,-1,-1,-1,0,-2,-1,-1,-1,0.900391,-0.00292969,0.32373,4.125,-20,-7.5625,-0.0465512,-1.34115,0.4902
2354,-2,1,-2,1,0,-1,0,-1,0.900391,-0.00292969,0.32373,4.125,-20,-7.5625,-0.0465512,-1.34115,0.4902
2369,0,-2,0,0,1,-1,0,-1,0.898438,0.0200195,0.318359,4.8125,-18.5,-5.375,-0.0341679,-1.34505,0.479421
2369,-1,-1,-4,-1,-1,-2,0,0,0.898438,0.0200195,0.318359,4.8125,-18.5,-5.375,-0.0341679,-1.34505,0.479421
2375,2,-1,-2,-2,1,-1,0,0,0.898438,0.0200195,0.318359,4.8125,-18.5,-5.375,-0.0341679,-1.34505,0.479421
2375,0,-1,-3,-3,-2,-1,0,0,0.898438,0.0200195,0.318359,4.8125,-18.5,-5.375,-0.0341679,-1.34505,0.479421
2390,1,0,-1,-1,-2,-1,-1,-1,0.873535,0.0375977,0.30127,6.875,-16.5625,-2.875,-0.0231426,-1.34832,0.470811
2390,-1,-1,-3,-2,-2,-1,0,0,0.873535,0.0375977,0.30127,6.875,-16.5625,-2.875,-0.0231426,-1.34832,0.470811
2397,-2,-1,0,2,1,-1,-1,0,0.873535,0.0375977,0.30127,6.875,-16.5625,-2.875,-0.0231426,-1.34832,0.470811
2397,0,-1,0,-1,-1,-1,1,-1,0.873535,0.0375977,0.30127,6.875,-16.5625,-2.875,-0.0231426,-1.34832,0.470811
2415,-2,-2,-1,-1,0,-2,-1,0,0.855469,0.03125,0.29834,8.8125,-15.75,0.375,-0.0171741,-1.35148,0.468156
2415,-1,-2,3,2,-3,-1,-2,0,0.855469,0.03125,0.29834,8.8125,-15.75,0.375,-0.0171741,-1.35148,0.468156
2415,-1,-2,-4,-5,-1,-1,-1,-1,0.855469,0.03125,0.29834,8.8125,-15.75,0.375,-0.0171741,-1.35148,0.468156
2415,-1,-2,-3,0,-1,-1,-1,-2,0.855469,0.03125,0.29834,8.8125,-15.75,0.375,-0.0171741,-1.35148,0.468156
2429,-2,0,0,-1,-1,-1,0,-2,0.839844,0.0102539,0.297363,13.4375,-15.0625,3.4375,-0.0168025,-1.35389,0.47265
2429,-1,0,0,0,-2,-1,-1,-2,0.839844,0.0102539,0.297363,13.4375,-15.0625,3.4375,-0.0168025,-1.35389,0.47265
2434,0,-1,-1,-1,-2,-1,0,0,0.839844,0.0102539,0.297363,13.4375,-15.0625,3.4375,-0.0168025,-1.35389,0.47265
2434,-2,-1,-4,-3,-2,-1,0,-1,0.839844,0.0102539,0.297363,13.4375,-15.0625,3.4375,-0.0168025,-1.35389,0.47265
2450,-2,0,-1,-1,0,-1,-1,-2,0.838867,0.000488281,0.302246,20.3125,-14,6.25,-0.0190706,-1.35579,0.482265
2450,-1,0,-2,0,0,-2,1,-1,0.838867,0.000488281,0.302246,20.3125,-14,6.25,-0.0190706,-1.35579,0.482265
2457,1,-1,-2,-3,-1,-2,-1,-2,0.838867,0.000488281,0.302246,20.3125,-14,6.25,-0.0190706,-1.35579,0.482265
2457,0,0,0,-3,-2,-1,0,-2,0.838867,0.000488281,0.302246,20.3125,-14,6.25,-0.0190706,-1.35579,0.482265
2472,-1,-1,-1,0,-3,-1,-1,-2,0.852539,0.00439453,0.287598,23.625,-12.4375,8.4375,-0.0236398,-1.35802,0.495692
2472,1,0,-2,-3,-2,0,-1,-2,0.852539,0.00439453,0.287598,23.625,-12.4375,8.4375,-0.0236398,-1.35802,0.495692
2473,0,0,-2,-1,0,0,0,1,0.852539,0.00439453,0.287598,23.625,-12.4375,8.4375,-0.0236398,-1.35802,0.495692
2473,-2,-1,0,0,-1,-1,0,0,0.852539,0.00439453,0.287598,23.625,-12.4375,8.4375,-0.0236398,-1.35802,0.495692
2489,-1,-1,2,-1,1,-2,0,-1,0.870117,-0.00634766,0.298828,23.125,-11.0625,10.4375,-0.0325644,-1.35886,0.512909
2489,-1,0,-4,-5,-1,-1,-2,-1,0.870117,-0.00634766,0.298828,23.125,-11.0625,10.4375,-0.0325644,-1.35886,0.512909
2495,-1,-2,1,1,-3,1,-2,-2,0.870117,-0.00634766,0.298828,23.125,-11.0625,10.4375,-0.0325644,-1.35886,0.512909
2495,0,-1,2,1,0,1,0,-1,0.870117,-0.00634766,0.298828,23.125,-11.0625,10.4375,-0.0325644,-1.35886,0.512909
2510,0,-1,-3,-2,-1,-1,-2,-1,0.93457,-0.0517578,0.310059,21.5625,-11.0625,11.875,-0.0494462,-1.35983,0.537814
2510,-2,-4,-1,0,2,0,0,1,0.93457,-0.0517578,0.310059,21.5625,-11.0625,11.875,-0.0494462,-1.35983,0.537814
2517,0,3,1,-1,-1,-1,-1,-2,0.93457,-0.0517578,0.310059,21.5625,-11.0625,11.875,-0.0494462,-1.35983,0.537814
2517,0,0,-2,0,-1,-1,-1,-1,0.93457,-0.0517578,0.310059,21.5625,-11.0625,11.875,-0.0494462,-1.35983,0.537814
2532,0,-2,-2,-1,-1,-2,0,1,1.03076,-0.0874023,0.276855,20.5,-10.4375,11.125,-0.0697786,-1.36154,0.565425
2532,1,-1,0,-2,0,-1,-3,1,1.03076,-0.0874023,0.276855,20.5,-10.4375,11.125,-0.0697786,-1.36154,0.565425
2534,-3,-1,-2,0,-1,-2,-1,0,1.03076,-0.0874023,0.276855,20.5,-10.4375,11.125,-0.0697786,-1.36154,0.565425
2534,-2,1,1,0,0,-2,-1,0,1.03076,-0.0874023,0.276855,20.5,-10.4375,11.125,-0.0697786,-1.36154,0.565425
2548,0,-1,1,0,-1,-2,-2,2,1.08936,-0.0561523,0.209961,15.6875,-4.9375,9.875,-0.0856126,-1.36335,0.586953
2548,0,0,1,0,-1,-1,-1,-2,1.08936,-0.0561523,0.209961,15.6875,-4.9375,9.875,-0.0856126,-1.36335,0.586953
2554,-1,-1,0,-1,1,1,-2,-1,1.08936,-0.0561523,0.209961,15.6875,-4.9375,9.875,-0.0856126,-1.36335,0.586953
2554,1,-2,-5,-4,-2,-1,-2,-2,1.08936,-0.0561523,0.209961,15.6875,-4.9375,9.875,-0.0856126,-1.36335,0.586953
2588,-2,0,0,-2,0,0,-2,-1,1.07227,0.0175781,0.160156,4.9375,3.75,10.625,-0.0972941,-1.36351,0.600951
2588,-2,-1,-2,-1,-1,1,1,0,1.07227,0.0175781,0.160156,4.9375,3.75,10.625,-0.0972941,-1.36351,0.600951
2588,-1,-2,0,0,0,-3,-1,-2,1.07227,0.0175781,0.160156,4.9375,3.75,10.625,-0.0972941,-1.36351,0.600951
2588,0,-1,0,0,0,-2,0,-1,1.07227,0.0175781,0.160156,4.9375,3.75,10.625,-0.0972941,-1.36351,0.600951
2593,1,-2,-3,-2,0,0,-1,-1,0.991699,0.0483398,0.13623,-7.25,11.6875,13.4375,-0.112213,-1.36076,0.613893
2593,0,1,0,-1,-1,0,-1,-3,0.991699,0.0483398,0.13623,-7.25,11.6875,13.4375,-0.112213,-1.36076,0.613893
2593,-1,-1,0,0,0,-2,0,0,0.991699,0.0483398,0.13623,-7.25,11.6875,13.4375,-0.112213,-1.36076,0.613893
2593,-1,-1,-3,-5,-1,-3,-1,-3,0.991699,0.0483398,0.13623,-7.25,11.6875,13.4375,-0.112213,-1.36076,0.613893
2617,0,-1,0,-2,-1,-2,0,-1,0.920898,0.0136719,0.136719,-12.875,17.1875,18,-0.137762,-1.35533,0.635532
2617,0,-1,0,-2,-2,-2,0,0,0.920898,0.0136719,0.136719,-12.875,17.1875,18,-0.137762,-1.35533,0.635532
2618,-1,-4,-1,-1,-2,-1,-1,0,0.920898,0.0136719,0.136719,-12.875,17.1875,18,-0.137762,-1.35533,0.635532
2618,-1,0,1,-1,-2,0,-1,0,0.920898,0.0136719,0.136719,-12.875,17.1875,18,-0.137762,-1.35533,0.635532
2629,-1,-1,1,-2,-1,-1,0,-2,0.906738,-0.034668,0.147949,-9.5625,20.75,20.4375,-0.168914,-1.34823,0.663898
2629,-1,-1,-1,1,-1,-1,-2,-1,0.906738,-0.034668,0.147949,-9.5625,20.75,20.4375,-0.168914,-1.34823,0.663898
2637,-2,0,-3,0,-2,0,-3,-1,0.906738,-0.034668,0.147949,-9.5625,20.75,20.4375,-0.168914,-1.34823,0.663898
2637,0,-2,0,-1,-1,1,-1,-2,0.906738,-0.034668,0.147949,-9.5625,20.75,20.4375,-0.168914,-1.34823,0.663898
2652,-2,-1,-1,1,-2,0,-1,-2,0.911133,-0.0625,0.162598,-1.625,22.75,22.3125,-0.19979,-1.34033,0.695042
2652,1,-1,-1,-1,-2,-2,-2,-1,0.911133,-0.0625,0.162598,-1.625,22.75,22.3125,-0.19979,-1.34033,0.695042
2653,0,-1,0,-1,-2,-2,0,-1,0.911133,-0.0625,0.162598,-1.625,22.75,22.3125,-0.19979,-1.34033,0.695042
2653,0,1,0,2,0,-1,-2,0,0.911133,-0.0625,0.162598,-1.625,22.75,22.3125,-0.19979,-1.34033,0.695042
2669,-1,-4,-2,-3,-2,-1,-1,0,0.928711,-0.0966797,0.19873,2.25,21,24,-0.231317,-1.33146,0.727916
2669,0,0,-2,0,-1,-1,-1,0,0.928711,-0.0966797,0.19873,2.25,21,24,-0.231317,-1.33146,0.727916
2675,-1,0,-1,-2,-1,0,1,0,0.928711,-0.0966797,0.19873,2.25,21,24,-0.231317,-1.33146,0.727916
2675,-1,-1,-2,-1,-1,1,0,-2,0.928711,-0.0966797,0.19873,2.25,21,24,-0.231317,-1.33146,0.727916
2690,-1,-3,0,1,-1,0,-2,-3,0.962402,-0.113281,0.216797,0.8125,17.25,23.875,-0.263398,-1.32401,0.761013
2690,-2,-2,0,0,-2,-3,-1,-2,0.962402,-0.113281,0.216797,0.8125,17.25,23.875,-0.263398,-1.32401,0.761013
2697,-1,-1,0,-1,-2,0,-1,-1,0.962402,-0.113281,0.216797,0.8125,17.25,23.875,-0.263398,-1.32401,0.761013
2697,-1,-1,1,1,-1,-3,-1,-1,0.962402,-0.113281,0.216797,0.8125,17.25,23.875,-0.263398,-1.32401,0.761013
2713,1,1,2,1,0,0,-2,-1,0.988281,-0.124512,0.21875,-3.0625,13.375,23.9375,-0.296349,-1.31721,0.793539
2713,0,0,-1,-4,-1,0,-2,-2,0.988281,-0.124512,0.21875,-3.0625,13.375,23.9375,-0.296349,-1.31721,0.793539
2714,-1,-1,-1,-1,-1,-2,0,-3,0.988281,-0.124512,0.21875,-3.0625,13.375,23.9375,-0.296349,-1.31721,0.793539
2714,-2,-1,-1,-1,-1,-1,0,-2,0.988281,-0.124512,0.21875,-3.0625,13.375,23.9375,-0.296349,-1.31721,0.793539
2729,0,0,-2,0,-1,-2,-1,0,0.975098,-0.140625,0.231445,-3.625,9.375,24.0625,-0.329407,-1.31134,0.826057
2729,-2,-2,0,0,0,-1,0,0,0.975098,-0.140625,0.231445,-3.625,9.375,24.0625,-0.329407,-1.31134,0.826057
2735,-1,-2,-1,-1,0,-2,-1,0,0.975098,-0.140625,0.231445,-3.625,9.375,24.0625,-0.329407,-1.31134,0.826057
2735,0,-1,-1,-1,-2,0,-1,0,0.975098,-0.140625,0.231445,-3.625,9.375,24.0625,-0.329407,-1.31134,0.826057
2749,-1,0,0,-1,-1,-2,-1,-1,0.934082,-0.151367,0.228027,2.625,5.5,24.125,-0.361846,-1.30671,0.860301
2749,-1,-3,-1,1,0,-1,-1,-1,0.934082,-0.151367,0.228027,2.625,5.5,24.125,-0.361846,-1.30671,0.860301
2758,-2,0,-2,-1,0,0,-1,-1,0.934082,-0.151367,0.228027,2.625,5.5,24.125,-0.361846,-1.30671,0.860301
2758,-2,-3,-1,-1,-1,-1,0,-1,0.934082,-0.151367,0.228027,2.625,5.5,24.125,-0.361846,-1.30671,0.860301
2773,-2,-1,-2,-1,-2,1,-2,-1,0.89502,-0.153809,0.223145,12.4375,1.75,24.5625,-0.391294,-1.30252,0.894919
2773,0,-3,-1,0,-1,0,0,-1,0.89502,-0.153809,0.223145,12.4375,1.75,24.5625,-0.391294,-1.30252,0.894919
2774,0,-1,2,-1,-2,-2,-2,-3,0.89502,-0.153809,0.223145,12.4375,1.75,24.5625,-0.391294,-1.30252,0.894919
2774,0,0,-6,-6,0,0,-3,0,0.89502,-0.153809,0.223145,12.4375,1.75,24.5625,-0.391294,-1.30252,0.894919
2789,-2,-2,-4,-2,1,-2,-1,-1,0.864746,-0.172852,0.222168,22.4375,-1.9375,24.3125,-0.418369,-1.29891,0.930699
2789,-1,0,-3,-2,0,-2,0,-2,0.864746,-0.172852,0.222168,22.4375,-1.9375,24.3125,-0.418369,-1.29891,0.930699
2795,0,-2,1,1,-1,-1,-1,-1,0.864746,-0.172852,0.222168,22.4375,-1.9375,24.3125,-0.418369,-1.29891,0.930699
2795,0,-1,0,2,-1,-1,-2,-2,0.864746,-0.172852,0.222168,22.4375,-1.9375,24.3125,-0.418369,-1.29891,0.930699
2820,0,0,0,1,-2,-2,-3,-1,0.864746,-0.208008,0.222168,29.5625,-6.3125,21.9375,-0.444688,-1.29665,0.968096
2820,0,1,-2,1,0,-1,-2,-1,0.864746,-0.208008,0.222168,29.5625,-6.3125,21.9375,-0.444688,-1.29665,0.968096
2820,0,-2,-2,0,0,-1,-1,-1,0.864746,-0.208008,0.222168,29.5625,-6.3125,21.9375,-0.444688,-1.29665,0.968096
2820,-1,-1,2,-1,-2,-2,-2,-1,0.864746,-0.208008,0.222168,29.5625,-6.3125,21.9375,-0.444688,-1.29665,0.968096
2833,-1,0,-2,-3,-1,-1,0,-1,0.891602,-0.247559,0.227539,34.4375,-10.75,19.3125,-0.470737,-1.29545,1.00682
2833,-1,-2,1,-2,-1,-1,-1,0,0.891602,-0.247559,0.227539,34.4375,-10.75,19.3125,-0.470737,-1.29545,1.00682
2834,-2,3,-1,-2,-1,-2,-2,-1,0.891602,-0.247559,0.227539,34.4375,-10.75,19.3125,-0.470737,-1.29545,1.00682
2834,-1,-1,-1,-1,0,0,-1,-1,0.891602,-0.247559,0.227539,34.4375,-10.75,19.3125,-0.470737,-1.29545,1.00682
2848,-1,0,1,0,-1,-1,1,-2,0.896973,-0.260742,0.225098,37.5625,-13.625,16.5,-0.494443,-1.29516,1.04409
2848,0,0,-2,-2,-2,-1,1,-2,0.896973,-0.260742,0.225098,37.5625,-13.625,16.5,-0.494443,-1.29516,1.04409
2855,0,-2,-2,-2,-1,0,-1,0,0.896973,-0.260742,0.225098,37.5625,-13.625,16.5,-0.494443,-1.29516,1.04409
2855,-2,-1,-2,-1,-1,-2,-1,-1,0.896973,-0.260742,0.225098,37.5625,-13.625,16.5,-0.494443,-1.29516,1.04409
2869,0,0,0,-1,-3,0,1,0,0.887695,-0.265137,0.229004,39.75,-16.6875,13.3125,-0.515674,-1.29646,1.07989
2869,-1,-1,1,2,-1,0,0,-1,0.887695,-0.265137,0.229004,39.75,-16.6875,13.3125,-0.515674,-1.29646,1.07989
2886,0,-2,-8,-6,-1,-1,0,-1,0.887695,-0.265137,0.229004,39.75,-16.6875,13.3125,-0.515674,-1.29646,1.07989
2886,1,0,3,2,0,-1,-1,-2,0.887695,-0.265137,0.229004,39.75,-16.6875,13.3125,-0.515674,-1.29646,1.07989
2892,0,0,1,-1,-1,-1,-1,-1,0.916504,-0.254395,0.199219,38.875,-18.5625,9.6875,-0.53518,-1.29934,1.11346
2892,1,-1,-6,-4,2,-1,1,1,0.916504,-0.254395,0.199219,38.875,-18.5625,9.6875,-0.53518,-1.29934,1.11346
2900,0,-1,2,1,-1,0,-1,-1,0.916504,-0.254395,0.199219,38.875,-18.5625,9.6875,-0.53518,-1.29934,1.11346
2900,-2,-1,-1,1,-1,0,-1,0,0.916504,-0.254395,0.199219,38.875,-18.5625,9.6875,-0.53518,-1.29934,1.11346
2909,-1,-1,-4,-1,0,0,-1,-2,0.942871,-0.21875,0.177734,32.625,-17.75,6.125,-0.550707,-1.30345,1.14083
2909,-2,0,-1,0,-2,-1,-2,-1,0.942871,-0.21875,0.177734,32.625,-17.75,6.125,-0.550707,-1.30345,1.14083
2915,0,-1,0,-1,-2,2,-1,0,0.942871,-0.21875,0.177734,32.625,-17.75,6.125,-0.550707,-1.30345,1.14083
2915,0,-1,0,-2,0,-1,-1,1,0.942871,-0.21875,0.177734,32.625,-17.75,6.125,-0.550707,-1.30345,1.14083
2930,-1,-2,1,0,-1,-2,-1,-2,0.919922,-0.221191,0.179688,28.5,-16.3125,5.375,-0.56578,-1.30666,1.16612
2930,0,0,2,-2,0,-3,-2,-1,0.919922,-0.221191,0.179688,28.5,-16.3125,5.375,-0.56578,-1.30666,1.16612
2937,-1,-1,0,0,-1,0,0,-2,0.919922,-0.221191,0.179688,28.5,-16.3125,5.375,-0.56578,-1.30666,1.16612
2937,-1,-1,0,0,-2,-2,1,-2,0.919922,-0.221191,0.179688,28.5,-16.3125,5.375,-0.56578,-1.30666,1.16612
2952,-3,-2,-1,-1,0,-1,-2,0,0.90625,-0.240723,0.17041,28.75,-15.5,4.625,-0.581991,-1.30955,1.19261
2952,-1,-2,-2,-2,0,0,0,-1,0.90625,-0.240723,0.17041,28.75,-15.5,4.625,-0.581991,-1.30955,1.19261
2960,0,-1,0,1,0,-1,-2,-2,0.90625,-0.240723,0.17041,28.75,-15.5,4.625,-0.581991,-1.30955,1.19261
2960,-1,0,-1,-2,-2,0,0,0,0.90625,-0.240723,0.17041,28.75,-15.5,4.625,-0.581991,-1.30955,1.19261
2968,0,0,0,0,0,-2,-1,0,0.916992,-0.250977,0.17041,31.75,-14.875,3.6875,-0.596771,-1.31231,1.21863
2968,-1,1,2,2,-3,-2,-1,-2,0.916992,-0.250977,0.17041,31.75,-14.875,3.6875,-0.596771,-1.31231,1.21863
2975,-1,-4,-3,-3,-1,-2,0,0,0.916992,-0.250977,0.17041,31.75,-14.875,3.6875,-0.596771,-1.31231,1.21863
2975,0,1,-1,-1,-1,0,0,-2,0.916992,-0.250977,0.17041,31.75,-14.875,3.6875,-0.596771,-1.31231,1.21863
2990,0,-2,-1,-1,-3,-1,0,-1,0.941895,-0.221191,0.150391,31.5,-11.8125,2.875,-0.606671,-1.31494,1.23963
2990,0,-1,-2,2,-1,-1,-2,-1,0.941895,-0.221191,0.150391,31.5,-11.8125,2.875,-0.606671,-1.31494,1.23963
2996,-2,1,-1,0,-1,-1,-2,0,0.941895,-0.221191,0.150391,31.5,-11.8125,2.875,-0.606671,-1.31494,1.23963
2996,-1,-1,-2,-2,0,-1,-2,-1,0.941895,-0.221191,0.150391,31.5,-11.8125,2.875,-0.606671,-1.31494,1.23963
3020,-3,-2,-2,-1,-1,0,-2,-1,0.933105,-0.174805,0.14209,26.3125,-7.5625,3.125,-0.613005,-1.31716,1.25526
3020,-2,-2,-2,-2,-2,-1,-1,-1,0.933105,-0.174805,0.14209,26.3125,-7.5625,3.125,-0.613005,-1.31716,1.25526
3021,0,-2,-4,-1,0,0,0,0,0.933105,-0.174805,0.14209,26.3125,-7.5625,3.125,-0.613005,-1.31716,1.25526
3021,0,-1,-1,-1,-1,-1,-1,1,0.933105,-0.174805,0.14209,26.3125,-7.5625,3.125,-0.613005,-1.31716,1.25526
3028,-3,0,2,-1,-1,-1,0,-1,0.907715,-0.156738,0.133301,16.6875,-3.75,4.5,-0.619752,-1.31825,1.26794
3028,-1,-4,-5,-3,0,0,-2,0,0.907715,-0.156738,0.133301,16.6875,-3.75,4.5,-0.619752,-1.31825,1.26794
3035,1,0,8,1,0,-3,0,-1,0.907715,-0.156738,0.133301,16.6875,-3.75,4.5,-0.619752,-1.31825,1.26794
3035,0,-2,-10,-1,-1,-1,-2,-1,0.907715,-0.156738,0.133301,16.6875,-3.75,4.5,-0.619752,-1.31825,1.26794
3049,0,-1,-1,-1,-2,0,-2,0,0.902832,-0.161133,0.134277,8.6875,-0.875,6.125,-0.629239,-1.3179,1.28056
3049,-3,-4,-14,-3,-3,-1,-1,-1,0.902832,-0.161133,0.134277,8.6875,-0.875,6.125,-0.629239,-1.3179,1.28056
3057,1,5,6,1,-1,0,0,1,0.902832,-0.161133,0.134277,8.6875,-0.875,6.125,-0.629239,-1.3179,1.28056
3057,-1,-3,-9,-1,-1,-2,-1,0,0.902832,-0.161133,0.134277,8.6875,-0.875,6.125,-0.629239,-1.3179,1.28056
3072,-2,-2,6,-5,-2,-3,-1,-1,0.890625,-0.173828,0.150879,5.75,1.75,6.8125,-0.63781,-1.31623,1.29122
3072,-1,-4,7,-1,-1,-1,1,-1,0.890625,-0.173828,0.150879,5.75,1.75,6.8125,-0.63781,-1.31623,1.29122
3080,0,-2,-5,-2,-1,-1,-1,0,0.890625,-0.173828,0.150879,5.75,1.75,6.8125,-0.63781,-1.31623,1.29122
3080,0,9,10,2,1,0,-1,0,0.890625,-0.173828,0.150879,5.75,1.75,6.8125,-0.63781,-1.31623,1.29122
3095,1,1,5,1,-1,0,-2,1,0.887695,-0.180176,0.118164,5.1875,4,7.75,-0.647968,-1.31396,1.30306
3095,-1,-1,-1,-2,0,-1,-1,-4,0.887695,-0.180176,0.118164,5.1875,4,7.75,-0.647968,-1.31396,1.30306
3096,-2,0,1,-2,-2,-2,0,-2,0.887695,-0.180176,0.118164,5.1875,4,7.75,-0.647968,-1.31396,1.30306
3096,0,-4,4,-1,-1,-1,-2,-2,0.887695,-0.180176,0.118164,5.1875,4,7.75,-0.647968,-1.31396,1.30306
3109,1,0,-8,-1,0,-1,0,-2,0.86377,-0.13623,0.111816,1.4375,10,8.3125,-0.65191,-1.31081,1.30742
3109,0,2,6,4,1,-1,-3,0,0.86377,-0.13623,0.111816,1.4375,10,8.3125,-0.65191,-1.31081,1.30742
3117,-2,-4,-8,-2,0,-1,1,-2,0.86377,-0.13623,0.111816,1.4375,10,8.3125,-0.65191,-1.31081,1.30742
3117,-2,-4,-2,-2,-1,-4,0,0,0.86377,-0.13623,0.111816,1.4375,10,8.3125,-0.65191,-1.31081,1.30742
3132,1,2,-6,-2,0,0,-1,0,0.828125,-0.128906,0.125977,-2.4375,13.125,10.1875,-0.655504,-1.30609,1.31005
3132,1,4,1,0,0,0,1,-1,0.828125,-0.128906,0.125977,-2.4375,13.125,10.1875,-0.655504,-1.30609,1.31005
3139,-2,-1,1,0,-1,-1,-1,-1,0.828125,-0.128906,0.125977,-2.4375,13.125,10.1875,-0.655504,-1.30609,1.31005
3139,-2,-3,-1,-1,-1,0,-1,-1,0.828125,-0.128906,0.125977,-2.4375,13.125,10.1875,-0.655504,-1.30609,1.31005
3164,-2,-1,-3,-1,-1,-2,0,0,0.810547,-0.143555,0.150879,-6.5625,14.3125,9.8125,-0.658017,-1.30038,1.31022
3164,3,4,-2,0,-1,-1,-2,0,0.810547,-0.143555,0.150879,-6.5625,14.3125,9.8125,-0.658017,-1.30038,1.31022
3164,-1,-6,-1,0,-2,-2,0,0,0.810547,-0.143555,0.150879,-6.5625,14.3125,9.8125,-0.658017,-1.30038,1.31022
3164,0,2,6,-3,-2,-1,0,-1,0.810547,-0.143555,0.150879,-6.5625,14.3125,9.8125,-0.658017,-1.30038,1.31022
3170,-1,-1,-6,0,-2,-1,0,-1,0.799316,-0.152344,0.129883,-9.25,16.3125,7.5,-0.660354,-1.29528,1.30914
3170,-2,3,-7,-1,0,-1,-1,0,0.799316,-0.152344,0.129883,-9.25,16.3125,7.5,-0.660354,-1.29528,1.30914
3177,-2,10,0,-2,-1,-1,-1,-3,0.799316,-0.152344,0.129883,-9.25,16.3125,7.5,-0.660354,-1.29528,1.30914
3177,-3,-14,-3,0,-1,-1,-1,-1,0.799316,-0.152344,0.129883,-9.25,16.3125,7.5,-0.660354,-1.29528,1.30914
3192,0,3,6,1,0,-1,-1,-2,0.753418,-0.125977,0.126953,-11.75,18,5.875,-0.658573,-1.28997,1.3029
3192,1,0,3,-2,-1,-1,0,1,0.753418,-0.125977,0.126953,-11.75,18,5.875,-0.658573,-1.28997,1.3029
3199,-3,-1,-2,0,-1,-1,-3,-2,0.753418,-0.125977,0.126953,-11.75,18,5.875,-0.658573,-1.28997,1.3029
3199,0,6,0,0,-1,0,0,-1,0.753418,-0.125977,0.126953,-11.75,18,5.875,-0.658573,-1.28997,1.3029
3216,-1,-1,4,-1,0,0,1,-1,0.69043,-0.101562,0.118164,-17.4375,19.5,4.9375,-0.655711,-1.28451,1.29348
3216,-3,-3,-7,-3,-1,-1,-1,-1,0.69043,-0.101562,0.118164,-17.4375,19.5,4.9375,-0.655711,-1.28451,1.29348
3216,-1,-6,5,-2,0,-1,-2,-2,0.69043,-0.101562,0.118164,-17.4375,19.5,4.9375,-0.655711,-1.28451,1.29348
3216,1,-2,-32,-7,-3,-2,-2,-1,0.69043,-0.101562,0.118164,-17.4375,19.5,4.9375,-0.655711,-1.28451,1.29348
3230,1,-6,-1,1,0,0,-1,-1,0.676758,-0.127441,0.17334,-20.5625,16.9375,2.5625,-0.652847,-1.27883,1.28295
3230,2,14,1,-1,-1,-2,0,0,0.676758,-0.127441,0.17334,-20.5625,16.9375,2.5625,-0.652847,-1.27883,1.28295
3237,0,-1,8,0,-2,0,-1,1,0.676758,-0.127441,0.17334,-20.5625,16.9375,2.5625,-0.652847,-1.27883,1.28295
3237,0,-3,-7,1,-1,-1,-2,0,0.676758,-0.127441,0.17334,-20.5625,16.9375,2.5625,-0.652847,-1.27883,1.28295
3252,-3,1,-3,-2,-1,0,0,-3,0.731934,-0.200195,0.171387,-20.1875,12.5,-2.9375,-0.652676,-1.27499,1.27493
3252,-1,-4,3,0,1,1,-1,-1,0.731934,-0.200195,0.171387,-20.1875,12.5,-2.9375,-0.652676,-1.27499,1.27493
3260,0,-6,-1,-1,-2,0,-2,-1,0.731934,-0.200195,0.171387,-20.1875,12.5,-2.9375,-0.652676,-1.27499,1.27493
3260,-3,-1,8,1,-1,0,-1,-1,0.731934,-0.200195,0.171387,-20.1875,12.5,-2.9375,-0.652676,-1.27499,1.27493
3275,0,0,-9,-1,-2,-2,0,0,0.770508,-0.183105,0.151367,-12.25,10.75,-7.875,-0.647362,-1.27409,1.26464
3275,-5,-9,6,0,-3,0,0,-2,0.770508,-0.183105,0.151367,-12.25,10.75,-7.875,-0.647362,-1.27409,1.26464
3276,-2,0,4,1,-1,-2,-1,0,0.770508,-0.183105,0.151367,-12.25,10.75,-7.875,-0.647362,-1.27409,1.26464
3276,2,11,14,-1,-2,-1,-2,-2,0.770508,-0.183105,0.151367,-12.25,10.75,-7.875,-0.647362,-1.27409,1.26464
3290,-5,-13,1,-4,0,0,-1,-1,0.751953,-0.106934,0.165039,-8,9.0625,-8.0625,-0.635105,-1.27385,1.24895
3290,-3,-2,11,-3,-3,-3,-1,-2,0.751953,-0.106934,0.165039,-8,9.0625,-8.0625,-0.635105,-1.27385,1.24895
3297,0,1,-24,-1,1,1,-1,0,0.751953,-0.106934,0.165039,-8,9.0625,-8.0625,-0.635105,-1.27385,1.24895
3297,-2,0,16,2,0,1,-1,0,0.751953,-0.106934,0.165039,-8,9.0625,-8.0625,-0.635105,-1.27385,1.24895
3312,0,1,-1,-2,0,-1,-3,1,0.782227,-0.0859375,0.132324,-14.1875,9.9375,-9.0625,-0.62446,-1.27463,1.23272
3312,-1,-11,-28,-3,-2,-2,-1,0,0.782227,-0.0859375,0.132324,-14.1875,9.9375,-9.0625,-0.62446,-1.27463,1.23272
3319,-2,-5,2,-2,-2,-1,1,0,0.782227,-0.0859375,0.132324,-14.1875,9.9375,-9.0625,-0.62446,-1.27463,1.23272
3319,1,1,-8,-1,1,0,-1,1,0.782227,-0.0859375,0.132324,-14.1875,9.9375,-9.0625,-0.62446,-1.27463,1.23272
3336,-1,3,-1,0,1,1,2,12,0.814453,-0.0854492,0.115723,-23.125,10.875,-7.875,-0.618501,-1.27569,1.21798
3336,-2,-2,12,-1,-1,-1,-4,-26,0.814453,-0.0854492,0.115723,-23.125,10.875,-7.875,-0.618501,-1.27569,1.21798
3336,0,-1,1,-2,-1,-4,-3,-4,0.814453,-0.0854492,0.115723,-23.125,10.875,-7.875,-0.618501,-1.27569,1.21798
3336,-1,-2,8,2,0,-1,0,1,0.814453,-0.0854492,0.115723,-23.125,10.875,-7.875,-0.618501,-1.27569,1.21798
3350,-2,0,-1,3,1,-1,-2,-2,0.857422,-0.078125,0.137695,-25.875,11.75,-3.3125,-0.615083,-1.27569,1.20523
3350,0,0,-5,-1,-2,0,-1,5,0.857422,-0.078125,0.137695,-25.875,11.75,-3.3125,-0.615083,-1.27569,1.20523
3357,-1,-1,-6,-4,-3,-1,1,-1,0.857422,-0.078125,0.137695,-25.875,11.75,-3.3125,-0.615083,-1.27569,1.20523
3357,3,5,2,1,-1,0,-2,-4,0.857422,-0.078125,0.137695,-25.875,11.75,-3.3125,-0.615083,-1.27569,1.20523
3373,-3,-8,-2,0,-4,-1,-1,-4,0.94043,-0.134766,0.172363,-23.375,10.25,-5.1875,-0.612788,-1.27535,1.19429
3373,2,2,1,-2,-1,-2,1,4,0.94043,-0.134766,0.172363,-23.375,10.25,-5.1875,-0.612788,-1.27535,1.19429
3380,-2,-1,-13,1,1,2,0,-1,0.94043,-0.134766,0.172363,-23.375,10.25,-5.1875,-0.612788,-1.27535,1.19429
3380,-4,-6,4,-5,-1,1,0,2,0.94043,-0.134766,0.172363,-23.375,10.25,-5.1875,-0.612788,-1.27535,1.19429
3396,1,4,12,-4,-1,-1,0,-3,1.01514,-0.154297,0.167969,-23.4375,12,-3.5,-0.61202,-1.27438,1.18458
3396,-1,0,-25,-2,-1,-1,-2,1,1.01514,-0.154297,0.167969,-23.4375,12,-3.5,-0.61202,-1.27438,1.18458
3396,0,-1,3,0,-1,1,0,0,1.01514,-0.154297,0.167969,-23.4375,12,-3.5,-0.61202,-1.27438,1.18458
3396,-5,-6,-2,0,-2,-3,-2,0,1.01514,-0.154297,0.167969,-23.4375,12,-3.5,-0.61202,-1.27438,1.18458
3410,2,1,-5,-5,-1,-2,-3,-1,1.06055,-0.125,0.161621,-18.9375,15.625,-1.6875,-0.607677,-1.27312,1.17313
3410,4,0,9,2,0,0,2,1,1.06055,-0.125,0.161621,-18.9375,15.625,-1.6875,-0.607677,-1.27312,1.17313
3417,-5,-1,2,-2,-1,-1,-1,-1,1.06055,-0.125,0.161621,-18.9375,15.625,-1.6875,-0.607677,-1.27312,1.17313
3417,-1,0,-2,2,-1,-2,0,-3,1.06055,-0.125,0.161621,-18.9375,15.625,-1.6875,-0.607677,-1.27312,1.17313
3440,-1,-9,-11,-7,-3,1,-2,-6,1.12939,-0.0996094,0.186035,-16.125,21.1875,-1.6875,-0.596451,-1.27073,1.15566
3440,-2,-6,-9,-4,3,-1,-1,3,1.12939,-0.0996094,0.186035,-16.125,21.1875,-1.6875,-0.596451,-1.27073,1.15566
3441,2,1,-3,1,-1,-2,0,1,1.12939,-0.0996094,0.186035,-16.125,21.1875,-1.6875,-0.596451,-1.27073,1.15566
3441,4,1,4,-3,0,0,1,0,1.12939,-0.0996094,0.186035,-16.125,21.1875,-1.6875,-0.596451,-1.27073,1.15566
3455,9,4,1,1,-2,-3,-1,-1,1.14893,-0.111328,0.183594,-10.875,22.25,1.125,-0.586882,-1.26739,1.14179
3455,-21,-11,1,-2,-4,0,-2,1,1.14893,-0.111328,0.183594,-10.875,22.25,1.125,-0.586882,-1.26739,1.14179
3456,-5,-4,-2,-2,-5,0,-3,-1,1.14893,-0.111328,0.183594,-10.875,22.25,1.125,-0.586882,-1.26739,1.14179
3456,-2,-1,-2,-10,-2,-1,-1,-2,1.14893,-0.111328,0.183594,-10.875,22.25,1.125,-0.586882,-1.26739,1.14179
3469,1,-1,1,-3,0,-2,0,-1,1.16699,-0.124023,0.193848,-14.5,22.125,4.1875,-0.581958,-1.26326,1.13128
3469,9,4,3,10,3,0,2,1,1.16699,-0.124023,0.193848,-14.5,22.125,4.1875,-0.581958,-1.26326,1.13128
3477,-3,1,0,2,1,-1,-1,-1,1.16699,-0.124023,0.193848,-14.5,22.125,4.1875,-0.581958,-1.26326,1.13128
3477,-3,-4,-6,4,0,-1,-3,-1,1.16699,-0.124023,0.193848,-14.5,22.125,4.1875,-0.581958,-1.26326,1.13128
3492,9,4,-2,-6,-1,1,1,-1,1.19434,-0.101562,0.225098,-8,17.0625,6.8125,-0.577809,-1.26032,1.1243
3492,-4,0,5,2,-3,-2,1,2,1.19434,-0.101562,0.225098,-8,17.0625,6.8125,-0.577809,-1.26032,1.1243
3499,-12,-7,-1,-20,-10,-5,-3,-6,1.19434,-0.101562,0.225098,-8,17.0625,6.8125,-0.577809,-1.26032,1.1243
3499,-2,1,-8,8,4,0,-1,-4,1.19434,-0.101562,0.225098,-8,17.0625,6.8125,-0.577809,-1.26032,1.1243
3515,-5,-2,2,-5,-2,-2,-2,-1,1.25098,-0.108398,0.211426,-6.6875,14.5625,10.4375,-0.578849,-1.25814,1.12318
3515,-6,-1,1,-4,-1,-3,-1,0,1.25098,-0.108398,0.211426,-6.6875,14.5625,10.4375,-0.578849,-1.25814,1.12318
3516,9,3,13,13,5,6,5,3,1.25098,-0.108398,0.211426,-6.6875,14.5625,10.4375,-0.578849,-1.25814,1.12318
3516,-8,-4,-8,3,1,-3,-2,-1,1.25098,-0.108398,0.211426,-6.6875,14.5625,10.4375,-0.578849,-1.25814,1.12318
3530,-3,2,0,4,-4,-1,1,1,1.28711,-0.113281,0.238281,-8.9375,13,12.875,-0.582816,-1.25557,1.12434
3530,-6,-2,6,-9,-2,-1,-5,-4,1.28711,-0.113281,0.238281,-8.9375,13,12.875,-0.582816,-1.25557,1.12434
3537,6,5,3,16,5,3,2,2,1.28711,-0.113281,0.238281,-8.9375,13,12.875,-0.582816,-1.25557,1.12434
3537,8,2,10,-1,-1,2,3,2,1.28711,-0.113281,0.238281,-8.9375,13,12.875,-0.582816,-1.25557,1.12434
3552,8,1,15,12,-3,-2,-1,1,1.31299,-0.166992,0.23291,-15.9375,17.8125,10.5,-0.587836,-1.25166,1.12369
3552,-7,35,31,23,-12,-5,-6,-3,1.31299,-0.166992,0.23291,-15.9375,17.8125,10.5,-0.587836,-1.25166,1.12369
3559,-3,-26,-52,-27,13,0,-3,-4,1.31299,-0.166992,0.23291,-15.9375,17.8125,10.5,-0.587836,-1.25166,1.12369
3559,1,-7,-21,-13,-1,1,2,-1,1.31299,-0.166992,0.23291,-15.9375,17.8125,10.5,-0.587836,-1.25166,1.12369
3576,-19,7,-18,-12,-5,-4,-4,-2,1.31055,-0.210449,0.283203,-22.3125,20.3125,10.125,-0.593859,-1.24595,1.12175
3576,-4,-39,-9,-9,-4,0,2,1,1.31055,-0.210449,0.283203,-22.3125,20.3125,10.125,-0.593859,-1.24595,1.12175
3576,19,50,6,9,-3,0,1,3,1.31055,-0.210449,0.283203,-22.3125,20.3125,10.125,-0.593859,-1.24595,1.12175
3576,4,-28,-26,-6,-4,-2,-2,-2,1.31055,-0.210449,0.283203,-22.3125,20.3125,10.125,-0.593859,-1.24595,1.12175
3590,-26,-3,18,-7,0,-1,-2,-2,1.28857,-0.290039,0.350098,-23.125,25.9375,7.6875,-0.597359,-1.23678,1.1165
3590,18,4,0,2,2,1,1,1,1.28857,-0.290039,0.350098,-23.125,25.9375,7.6875,-0.597359,-1.23678,1.1165
3597,9,-3,-4,5,-1,0,2,2,1.28857,-0.290039,0.350098,-23.125,25.9375,7.6875,-0.597359,-1.23678,1.1165
3597,-17,-4,-7,-6,-2,-5,-6,-5,1.28857,-0.290039,0.350098,-23.125,25.9375,7.6875,-0.597359,-1.23678,1.1165
3612,6,2,-4,5,-1,1,-1,4,1.19678,-0.352051,0.394531,-2.3125,30.6875,19.8125,-0.60177,-1.22193,1.11977
3612,-28,-7,-12,-2,5,0,-3,-8,1.19678,-0.352051,0.394531,-2.3125,30.6875,19.8125,-0.60177,-1.22193,1.11977
3619,7,-13,-2,-5,-5,-3,-4,-1,1.19678,-0.352051,0.394531,-2.3125,30.6875,19.8125,-0.60177,-1.22193,1.11977
3619,13,15,11,-2,-1,1,1,-4,1.19678,-0.352051,0.394531,-2.3125,30.6875,19.8125,-0.60177,-1.22193,1.11977
3635,14,3,18,14,5,2,3,5,1.17334,-0.281738,0.409668,17.8125,32.1875,11.375,-0.587964,-1.20906,1.11156
3635,-8,18,-41,-9,-1,-1,-1,2,1.17334,-0.281738,0.409668,17.8125,32.1875,11.375,-0.587964,-1.20906,1.11156
3636,-20,-22,-3,-11,-7,-7,-6,-15,1.17334,-0.281738,0.409668,17.8125,32.1875,11.375,-0.587964,-1.20906,1.11156
3636,6,13,37,10,-1,1,-2,-5,1.17334,-0.281738,0.409668,17.8125,32.1875,11.375,-0.587964,-1.20906,1.11156
3650,4,2,-21,0,2,2,2,21,1.12402,-0.113281,0.473633,7.0625,38.5625,1.125,-0.556851,-1.19716,1.08242
3650,-2,-8,-23,-16,-3,-2,-4,-23,1.12402,-0.113281,0.473633,7.0625,38.5625,1.125,-0.556851,-1.19716,1.08242
3658,-5,-30,31,-3,-3,0,2,-4,1.12402,-0.113281,0.473633,7.0625,38.5625,1.125,-0.556851,-1.19716,1.08242
3658,-15,0,-22,-4,-5,-3,-7,1,1.12402,-0.113281,0.473633,7.0625,38.5625,1.125,-0.556851,-1.19716,1.08242
3672,15,6,5,4,3,1,2,-1,1.04834,-0.0883789,0.492676,-39.6875,39.5,-7.75,-0.535153,-1.18578,1.04593
3672,37,-9,-6,-1,2,2,3,9,1.04834,-0.0883789,0.492676,-39.6875,39.5,-7.75,-0.535153,-1.18578,1.04593
3680,26,30,9,7,-1,0,2,11,1.04834,-0.0883789,0.492676,-39.6875,39.5,-7.75,-0.535153,-1.18578,1.04593
3680,-44,-41,-7,-6,-1,-1,1,-12,1.04834,-0.0883789,0.492676,-39.6875,39.5,-7.75,-0.535153,-1.18578,1.04593
3695,16,-10,-14,-7,-6,-4,-11,-20,1.03516,-0.242676,0.519043,-76.375,42.0625,-11,-0.532029,-1.17213,1.01427
3695,-24,3,14,3,-1,-2,-2,0,1.03516,-0.242676,0.519043,-76.375,42.0625,-11,-0.532029,-1.17213,1.01427
3696,-1,7,1,-2,-6,-4,-8,-10,1.03516,-0.242676,0.519043,-76.375,42.0625,-11,-0.532029,-1.17213,1.01427
3696,28,17,18,6,0,0,5,8,1.03516,-0.242676,0.519043,-76.375,42.0625,-11,-0.532029,-1.17213,1.01427
3718,-3,-2,-14,1,4,2,1,4,1.04053,-0.303711,0.539062,-67.9375,51.25,-8,-0.528536,-1.15438,0.984715
3718,52,30,14,3,4,1,-1,10,1.04053,-0.303711,0.539062,-67.9375,51.25,-8,-0.528536,-1.15438,0.984715
3719,-37,-16,-1,-3,1,0,-1,-2,1.04053,-0.303711,0.539062,-67.9375,51.25,-8,-0.528536,-1.15438,0.984715
3719,-3,-49,-14,-1,2,4,2,0,1.04053,-0.303711,0.539062,-67.9375,51.25,-8,-0.528536,-1.15438,0.984715
3732,-17,49,3,5,-2,-3,14,15,0.953125,-0.244629,0.502441,-74.1875,62.8125,-14.875,-0.517826,-1.13555,0.945067
3732,1,-2,2,-8,-5,-4,-18,-19,0.953125,-0.244629,0.502441,-74.1875,62.8125,-14.875,-0.517826,-1.13555,0.945067
3740,-41,-15,-7,1,2,-1,-6,2,0.953125,-0.244629,0.502441,-74.1875,62.8125,-14.875,-0.517826,-1.13555,0.945067
3740,-2,1,7,-1,-7,-5,-8,-3,0.953125,-0.244629,0.502441,-74.1875,62.8125,-14.875,-0.517826,-1.13555,0.945067
3756,22,7,10,-5,0,0,1,-2,0.838379,-0.271484,0.567383,-76.5,61.5,-12.8125,-0.511741,-1.11421,0.909223
3756,36,-2,-23,-17,2,6,38,45,0.838379,-0.271484,0.567383,-76.5,61.5,-12.8125,-0.511741,-1.11421,0.909223
3756,-4,-7,-6,1,2,2,-6,-22,0.838379,-0.271484,0.567383,-76.5,61.5,-12.8125,-0.511741,-1.11421,0.909223
3756,-20,24,-5,-2,2,-4,-24,-17,0.838379,-0.271484,0.567383,-76.5,61.5,-12.8125,-0.511741,-1.11421,0.909223
3769,-15,3,8,3,2,4,3,4,0.806641,-0.227051,0.583496,-63.375,51.125,-26,-0.496277,-1.09842,0.868209
3769,-22,-64,1,0,-3,-3,-7,-11,0.806641,-0.227051,0.583496,-63.375,51.125,-26,-0.496277,-1.09842,0.868209
3777,51,23,-3,-3,3,8,25,21,0.806641,-0.227051,0.583496,-63.375,51.125,-26,-0.496277,-1.09842,0.868209
3777,16,20,5,2,-6,-10,-7,-6,0.806641,-0.227051,0.583496,-63.375,51.125,-26,-0.496277,-1.09842,0.868209
3792,-27,-67,-5,-5,-14,-14,-20,-11,0.723145,-0.376465,0.453613,-69.9375,35.75,-29.375,-0.49789,-1.08794,0.841107
3792,-14,-8,1,2,0,0,-5,-6,0.723145,-0.376465,0.453613,-69.9375,35.75,-29.375,-0.49789,-1.08794,0.841107
3799,5,37,22,7,2,1,1,0,0.723145,-0.376465,0.453613,-69.9375,35.75,-29.375,-0.49789,-1.08794,0.841107
3799,-21,13,-2,-1,-2,2,7,3,0.723145,-0.376465,0.453613,-69.9375,35.75,-29.375,-0.49789,-1.08794,0.841107
3815,3,10,-9,-11,-4,1,-1,-5,0.82666,-0.537109,0.456055,-54.375,12.375,-0.75,-0.524875,-1.07953,0.84707
3815,11,23,15,7,2,3,5,1,0.82666,-0.537109,0.456055,-54.375,12.375,-0.75,-0.524875,-1.07953,0.84707
3816,1,7,38,2,-3,-1,8,25,0.82666,-0.537109,0.456055,-54.375,12.375,-0.75,-0.524875,-1.07953,0.84707
3816,-6,-19,-8,-14,1,1,-13,-65,0.82666,-0.537109,0.456055,-54.375,12.375,-0.75,-0.524875,-1.07953,0.84707
3829,-9,-7,-19,-5,10,8,5,-1,0.916504,-0.431152,0.498047,21.4375,1.4375,-21.6875,-0.511386,-1.07943,0.838567
3829,1,30,11,8,-5,-4,9,-1,0.916504,-0.431152,0.498047,21.4375,1.4375,-21.6875,-0.511386,-1.07943,0.838567
3837,-5,-9,4,0,-14,-14,-17,-5,0.916504,-0.431152,0.498047,21.4375,1.4375,-21.6875,-0.511386,-1.07943,0.838567
3837,-4,-6,-19,-19,1,1,10,19,0.916504,-0.431152,0.498047,21.4375,1.4375,-21.6875,-0.511386,-1.07943,0.838567
3852,3,-6,6,10,-3,0,4,-12,0.952637,-0.124512,0.481934,49.0625,-14.5625,-56.375,-0.460244,-1.09318,0.801529
3852,-15,-31,22,-1,8,5,-2,-9,0.952637,-0.124512,0.481934,49.0625,-14.5625,-56.375,-0.460244,-1.09318,0.801529
3868,31,33,47,43,-4,-3,-6,3,0.952637,-0.124512,0.481934,49.0625,-14.5625,-56.375,-0.460244,-1.09318,0.801529
3868,55,21,9,-13,17,-3,-28,16,0.952637,-0.124512,0.481934,49.0625,-14.5625,-56.375,-0.460244,-1.09318,0.801529
3874,-58,-10,-34,-45,1,10,21,-22,1.18262,-0.00976562,0.512207,51.0625,-32.8125,-45.8125,-0.412635,-1.11296,0.770604
3874,23,18,38,-3,-10,-10,16,30,1.18262,-0.00976562,0.512207,51.0625,-32.8125,-45.8125,-0.412635,-1.11296,0.770604
3883,-50,-36,-40,-17,6,13,51,21,1.18262,-0.00976562,0.512207,51.0625,-32.8125,-45.8125,-0.412635,-1.11296,0.770604
3883,-15,2,33,38,-21,-17,-72,-32,1.18262,-0.00976562,0.512207,51.0625,-32.8125,-45.8125,-0.412635,-1.11296,0.770604
3890,35,28,16,12,-11,-10,-6,9,1.41602,-0.421387,0.313965,-29.625,-38.3125,15.3125,-0.458193,-1.1275,0.807002
3890,-4,-5,-4,14,1,-1,-14,-14,1.41602,-0.421387,0.313965,-29.625,-38.3125,15.3125,-0.458193,-1.1275,0.807002
3897,-32,-7,-5,-1,-10,-17,-1,2,1.41602,-0.421387,0.313965,-29.625,-38.3125,15.3125,-0.458193,-1.1275,0.807002
3897,47,7,-16,3,5,10,35,33,1.41602,-0.421387,0.313965,-29.625,-38.3125,15.3125,-0.458193,-1.1275,0.807002
3912,-12,-6,10,5,12,5,5,6,1.16846,-0.574707,0.557129,1,-25.1875,33.0625,-0.501671,-1.12531,0.852611
3912,-120,-33,5,24,-22,-20,-40,-39,1.16846,-0.574707,0.557129,1,-25.1875,33.0625,-0.501671,-1.12531,0.852611
3919,48,18,43,65,7,8,5,0,1.16846,-0.574707,0.557129,1,-25.1875,33.0625,-0.501671,-1.12531,0.852611
3919,-8,-30,-15,-96,-14,-1,7,-3,1.16846,-0.574707,0.557129,1,-25.1875,33.0625,-0.501671,-1.12531,0.852611
3935,68,16,15,44,22,19,56,45,0.916992,-0.558594,0.469727,76.75,-42.1875,24.375,-0.520227,-1.12847,0.899822
3935,52,3,9,38,33,4,-15,34,0.916992,-0.558594,0.469727,76.75,-42.1875,24.375,-0.520227,-1.12847,0.899822
3943,-74,-33,-58,-37,9,-6,-37,-33,0.916992,-0.558594,0.469727,76.75,-42.1875,24.375,-0.520227,-1.12847,0.899822
3943,-40,14,31,76,21,-1,-64,-49,0.916992,-0.558594,0.469727,76.75,-42.1875,24.375,-0.520227,-1.12847,0.899822
3950,5,-14,3,-9,-38,-27,-32,-21,1.04834,-0.349121,0.323242,126.312,-56.625,39.875,-0.525027,-1.13888,0.95344
3950,37,22,-8,-34,-30,5,76,36,1.04834,-0.349121,0.323242,126.312,-56.625,39.875,-0.525027,-1.13888,0.95344
3957,91,42,43,13,-15,-8,-53,7,1.04834,-0.349121,0.323242,126.312,-56.625,39.875,-0.525027,-1.13888,0.95344
3957,-86,-8,-18,-48,-26,-13,-11,-13,1.04834,-0.349121,0.323242,126.312,-56.625,39.875,-0.525027,-1.13888,0.95344
3972,8,-3,-26,-8,3,-12,-53,-38,0.837891,-0.277344,0.275391,76.125,-56.875,33.6875,-0.548723,-1.15,1.00769
3972,3,18,17,18,15,8,8,-6,0.837891,-0.277344,0.275391,76.125,-56.875,33.6875,-0.548723,-1.15,1.00769
3979,59,11,-30,-23,27,34,119,65,0.837891,-0.277344,0.275391,76.125,-56.875,33.6875,-0.548723,-1.15,1.00769
3979,126,45,37,58,35,13,-29,10,0.837891,-0.277344,0.275391,76.125,-56.875,33.6875,-0.548723,-1.15,1.00769
4004,-109,-24,-68,3,-7,-12,-35,-29,0.790527,-0.416504,0.234863,29.5,-56.5,11.625,-0.583573,-1.16276,1.05471
4004,0,-6,-26,-31,-36,-26,9,12,0.790527,-0.416504,0.234863,29.5,-56.5,11.625,-0.583573,-1.16276,1.05471
4006,-68,-36,1,-63,-16,-4,-52,-52,0.790527,-0.416504,0.234863,29.5,-56.5,11.625,-0.583573,-1.16276,1.05471
4006,27,15,29,52,-20,-3,17,20,0.790527,-0.416504,0.234863,29.5,-56.5,11.625,-0.583573,-1.16276,1.05471
4010,35,-9,-13,-72,-48,-9,34,35,0.922852,-0.281738,0.246582,26.875,-57.375,-10.375,-0.599213,-1.1815,1.08077
4010,-22,-7,-11,-41,37,8,-25,-32,0.922852,-0.281738,0.246582,26.875,-57.375,-10.375,-0.599213,-1.1815,1.08077
4017,-32,-13,21,95,95,38,20,9,0.922852,-0.281738,0.246582,26.875,-57.375,-10.375,-0.599213,-1.1815,1.08077
4017,-20,15,-22,30,85,29,32,22,0.922852,-0.281738,0.246582,26.875,-57.375,-10.375,-0.599213,-1.1815,1.08077
4033,-7,-18,0,-2,-9,-11,-29,-24,1.53857,0.0498047,0.157715,33.75,-38.125,-11.75,-0.589231,-1.20636,1.08401
4033,14,-9,-7,-64,-65,-8,23,13,1.53857,0.0498047,0.157715,33.75,-38.125,-11.75,-0.589231,-1.20636,1.08401
4040,3,-1,-22,-91,-75,-32,-27,-18,1.53857,0.0498047,0.157715,33.75,-38.125,-11.75,-0.589231,-1.20636,1.08401
4040,-18,-27,-12,19,-16,-7,29,21,1.53857,0.0498047,0.157715,33.75,-38.125,-11.75,-0.589231,-1.20636,1.08401
4055,22,12,41,24,26,9,-2,10,1.20117,0.433594,-0.0175781,-10.5,-12.1875,15.875,-0.586762,-1.22259,1.08064
4055,0,-1,-4,12,31,15,-27,-33,1.20117,0.433594,-0.0175781,-10.5,-12.1875,15.875,-0.586762,-1.22259,1.08064
4071,-2,-11,-1,45,13,-9,-26,-1,1.20117,0.433594,-0.0175781,-10.5,-12.1875,15.875,-0.586762,-1.22259,1.08064
4071,14,-16,-24,-47,-33,-4,34,29,1.20117,0.433594,-0.0175781,-10.5,-12.1875,15.875,-0.586762,-1.22259,1.08064
4078,-18,-25,-31,-44,-57,-26,-27,-4,1.36816,0.54248,0.0107422,-58.6875,2.6875,16.625,-0.585851,-1.23639,1.06187
4078,-2,-6,31,15,25,2,-18,-20,1.36816,0.54248,0.0107422,-58.6875,2.6875,16.625,-0.585851,-1.23639,1.06187
4078,-5,-22,62,19,-7,-6,-3,-5,1.36816,0.54248,0.0107422,-58.6875,2.6875,16.625,-0.585851,-1.23639,1.06187
4078,12,-11,-64,-16,24,14,39,10,1.36816,0.54248,0.0107422,-58.6875,2.6875,16.625,-0.585851,-1.23639,1.06187
4092,42,0,46,40,30,17,-7,-1,1.31201,0.438965,0.157715,-42.8125,17.0625,8.8125,-0.56511,-1.24308,1.02809
4092,-34,-23,-46,12,-5,-21,-29,-23,1.31201,0.438965,0.157715,-42.8125,17.0625,8.8125,-0.56511,-1.24308,1.02809
4099,-13,-8,-39,-74,-67,-18,-13,-28,1.31201,0.438965,0.157715,-42.8125,17.0625,8.8125,-0.56511,-1.24308,1.02809
4099,-17,-11,23,-27,-44,-14,14,6,1.31201,0.438965,0.157715,-42.8125,17.0625,8.8125,-0.56511,-1.24308,1.02809
4115,-1,2,6,56,17,6,17,3,1.2334,0.250488,0.191895,-30.625,24.9375,14.0625,-0.550653,-1.24195,1.00408
4115,36,29,72,-8,64,23,5,12,1.2334,0.250488,0.191895,-30.625,24.9375,14.0625,-0.550653,-1.24195,1.00408
4122,-10,15,-56,112,71,31,28,-1,1.2334,0.250488,0.191895,-30.625,24.9375,14.0625,-0.550653,-1.24195,1.00408
4122,3,-4,-54,-17,16,-2,4,10,1.2334,0.250488,0.191895,-30.625,24.9375,14.0625,-0.550653,-1.24195,1.00408
4138,-2,41,-8,-49,-15,-3,4,-7,1.12207,-0.118652,0.177246,-25.375,23.9375,25.8125,-0.569225,-1.23449,1.0143
4138,5,22,-42,-24,-74,-12,29,23,1.12207,-0.118652,0.177246,-25.375,23.9375,25.8125,-0.569225,-1.23449,1.0143
4139,39,3,44,-77,-52,-38,-47,-14,1.12207,-0.118652,0.177246,-25.375,23.9375,25.8125,-0.569225,-1.23449,1.0143
4139,-2,1,-9,-20,-10,16,-2,-1,1.12207,-0.118652,0.177246,-25.375,23.9375,25.8125,-0.569225,-1.23449,1.0143
4152,-23,-19,26,21,41,5,19,6,1.11963,-0.326172,0.194336,-4,27.5625,34.8125,-0.595667,-1.22097,1.03957
4152,-16,-10,-3,59,37,13,-10,-6,1.11963,-0.326172,0.194336,-4,27.5625,34.8125,-0.595667,-1.22097,1.03957
4160,4,6,-19,-5,1,5,3,-14,1.11963,-0.326172,0.194336,-4,27.5625,34.8125,-0.595667,-1.22097,1.03957
4160,-3,-3,67,63,-10,-3,6,5,1.11963,-0.326172,0.194336,-4,27.5625,34.8125,-0.595667,-1.22097,1.03957
4174,16,-18,-18,-49,-47,-39,-11,7,0.958008,-0.385254,0.239258,8.5,31.625,39.4375,-0.618459,-1.20315,1.06539
4174,-19,-8,-37,-100,-109,-16,-14,-9,0.958008,-0.385254,0.239258,8.5,31.625,39.4375,-0.618459,-1.20315,1.06539
4183,-12,-2,5,44,29,6,8,13,0.958008,-0.385254,0.239258,8.5,31.625,39.4375,-0.618459,-1.20315,1.06539
4183,22,1,-23,78,98,31,-2,0,0.958008,-0.385254,0.239258,8.5,31.625,39.4375,-0.618459,-1.20315,1.06539
4198,9,10,31,58,91,45,47,16,0.822754,-0.541992,0.300781,7.5625,37.625,34.625,-0.638089,-1.18043,1.08693
4198,-27,-13,-1,7,-6,-16,-19,-2,0.822754,-0.541992,0.300781,7.5625,37.625,34.625,-0.638089,-1.18043,1.08693
4199,28,5,-22,-58,-104,-35,-26,-7,0.822754,-0.541992,0.300781,7.5625,37.625,34.625,-0.638089,-1.18043,1.08693
4199,18,8,9,-99,-51,-32,28,31,0.822754,-0.541992,0.300781,7.5625,37.625,34.625,-0.638089,-1.18043,1.08693
4212,-46,2,38,-57,29,14,-53,-38,1.02246,-0.271484,0.292969,-1.375,32.6875,42.5625,-0.652902,-1.16334,1.10208
4212,-8,-17,7,126,64,28,2,-9,1.02246,-0.271484,0.292969,-1.375,32.6875,42.5625,-0.652902,-1.16334,1.10208
4220,-27,-37,-2,30,-59,-10,6,-1,1.02246,-0.271484,0.292969,-1.375,32.6875,42.5625,-0.652902,-1.16334,1.10208
4220,-37,-38,-42,-81,-49,-28,-26,-25,1.02246,-0.271484,0.292969,-1.375,32.6875,42.5625,-0.652902,-1.16334,1.10208
4235,17,-16,-62,62,-82,-7,-1,15,1.16504,-0.380859,0.379395,-8.5625,31.8125,31.5,-0.664166,-1.14749,1.11035
4235,36,2,41,43,78,11,43,20,1.16504,-0.380859,0.379395,-8.5625,31.8125,31.5,-0.664166,-1.14749,1.11035
4243,11,14,15,127,97,31,-1,13,1.16504,-0.380859,0.379395,-8.5625,31.8125,31.5,-0.664166,-1.14749,1.11035
4243,14,3,42,19,58,21,6,-21,1.16504,-0.380859,0.379395,-8.5625,31.8125,31.5,-0.664166,-1.14749,1.11035
4258,10,-36,0,-79,-75,-39,-15,13,0.864258,-0.487305,0.37793,-22.375,35.6875,34.125,-0.683421,-1.12623,1.12145
4258,-15,-22,-7,-94,-45,3,-20,-18,0.864258,-0.487305,0.37793,-22.375,35.6875,34.125,-0.683421,-1.12623,1.12145
4259,7,-50,-26,-14,25,19,38,14,0.864258,-0.487305,0.37793,-22.375,35.6875,34.125,-0.683421,-1.12623,1.12145
4259,27,-15,22,58,-18,-8,-4,20,0.864258,-0.487305,0.37793,-22.375,35.6875,34.125,-0.683421,-1.12623,1.12145
4274,-73,-2,21,-25,-55,-18,-19,-30,0.776367,-0.254883,0.322754,-11.75,32.6875,23.125,-0.685057,-1.11162,1.11881
4274,-43,38,38,-26,11,-13,11,8,0.776367,-0.254883,0.322754,-11.75,32.6875,23.125,-0.685057,-1.11162,1.11881
4280,-7,60,-36,1,52,19,-11,-17,0.776367,-0.254883,0.322754,-11.75,32.6875,23.125,-0.685057,-1.11162,1.11881
4280,14,34,-34,-35,-11,-12,-21,-7,0.776367,-0.254883,0.322754,-11.75,32.6875,23.125,-0.685057,-1.11162,1.11881
4295,-3,40,-13,-48,16,34,38,6,0.856934,-0.308105,0.380371,-22.875,36.6875,9.0625,-0.681793,-1.09844,1.10625
4295,45,32,-56,-22,-73,-18,18,5,0.856934,-0.308105,0.380371,-22.875,36.6875,9.0625,-0.681793,-1.09844,1.10625
4303,-16,19,38,-40,-4,-7,-23,-9,0.856934,-0.308105,0.380371,-22.875,36.6875,9.0625,-0.681793,-1.09844,1.10625
4303,-2,33,83,127,97,25,12,5,0.856934,-0.308105,0.380371,-22.875,36.6875,9.0625,-0.681793,-1.09844,1.10625
4318,40,23,-50,123,115,21,30,18,0.762207,-0.410645,0.389648,-33.5625,36.875,32.75,-0.698135,-1.07801,1.11059
4318,-13,-6,-18,34,9,-2,-27,-10,0.762207,-0.410645,0.389648,-33.5625,36.875,32.75,-0.698135,-1.07801,1.11059
4318,-10,-17,-34,-123,-99,-31,-50,-18,0.762207,-0.410645,0.389648,-33.5625,36.875,32.75,-0.698135,-1.07801,1.11059
4318,-7,-8,-40,-128,-90,-42,44,-3,0.762207,-0.410645,0.389648,-33.5625,36.875,32.75,-0.698135,-1.07801,1.11059
4333,-49,12,33,-39,15,-6,1,-4,0.78418,-0.408203,0.393066,-18.5625,35.5625,26.8125,-0.70576,-1.05977,1.11124
4333,52,19,4,-65,-41,6,25,29,0.78418,-0.408203,0.393066,-18.5625,35.5625,26.8125,-0.70576,-1.05977,1.11124
4340,-14,-2,-2,74,69,15,-61,-29,0.78418,-0.408203,0.393066,-18.5625,35.5625,26.8125,-0.70576,-1.05977,1.11124
4340,-28,0,14,18,18,43,11,3,0.78418,-0.408203,0.393066,-18.5625,35.5625,26.8125,-0.70576,-1.05977,1.11124
4354,49,16,-7,94,27,9,-14,4,0.736816,-0.336914,0.405273,-10.5625,39.625,29.1875,-0.706914,-1.04055,1.10844
4354,-56,-5,69,28,75,8,-21,-21,0.736816,-0.336914,0.405273,-10.5625,39.625,29.1875,-0.706914,-1.04055,1.10844
4363,-8,-5,2,66,1,1,34,16,0.736816,-0.336914,0.405273,-10.5625,39.625,29.1875,-0.706914,-1.04055,1.10844
4363,16,9,-48,-50,-53,-10,-1,0,0.736816,-0.336914,0.405273,-10.5625,39.625,29.1875,-0.706914,-1.04055,1.10844
4378,-20,-4,-17,-93,-39,-17,-8,-13,0.734375,-0.347168,0.361816,-19.625,46.1875,24.3125,-0.70825,-1.02172,1.10159
4378,30,12,16,18,-24,6,-10,31,0.734375,-0.347168,0.361816,-19.625,46.1875,24.3125,-0.70825,-1.02172,1.10159
4378,15,3,12,35,-7,-9,42,2,0.734375,-0.347168,0.361816,-19.625,46.1875,24.3125,-0.70825,-1.02172,1.10159
4378,-60,-4,14,-66,-19,-16,-49,-30,0.734375,-0.347168,0.361816,-19.625,46.1875,24.3125,-0.70825,-1.02172,1.10159
4393,-9,-13,7,127,55,15,10,7,0.657715,-0.338379,0.388184,-20,47.25,32,-0.711847,-0.999984,1.09753
4393,-55,-16,-23,26,-1,-7,-32,-10,0.657715,-0.338379,0.388184,-20,47.25,32,-0.711847,-0.999984,1.09753
4400,30,7,28,-44,38,0,18,14,0.657715,-0.338379,0.388184,-20,47.25,32,-0.711847,-0.999984,1.09753
4400,-57,-20,-24,-19,-38,4,13,-7,0.657715,-0.338379,0.388184,-20,47.25,32,-0.711847,-0.999984,1.09753
4414,31,-7,-1,-78,-96,-39,-27,-5,0.696777,-0.29834,0.411133,-9.25,48.9375,30.5,-0.708472,-0.979283,1.09033
4414,-23,-15,43,80,99,21,7,-14,0.696777,-0.29834,0.411133,-9.25,48.9375,30.5,-0.708472,-0.979283,1.09033
4423,11,-20,-30,26,52,23,15,19,0.696777,-0.29834,0.411133,-9.25,48.9375,30.5,-0.708472,-0.979283,1.09033
4423,11,-8,24,-69,-30,-27,-35,-12,0.696777,-0.29834,0.411133,-9.25,48.9375,30.5,-0.708472,-0.979283,1.09033
4438,9,-12,-7,-23,-112,-38,-13,5,0.600098,-0.280762,0.415527,-8.3125,49.9375,27.5625,-0.703244,-0.958323,1.08148
4438,10,-11,-49,-106,-46,-15,-18,-13,0.600098,-0.280762,0.415527,-8.3125,49.9375,27.5625,-0.703244,-0.958323,1.08148
4439,17,-1,20,60,67,27,34,4,0.600098,-0.280762,0.415527,-8.3125,49.9375,27.5625,-0.703244,-0.958323,1.08148
4439,20,6,62,125,90,24,10,21,0.600098,-0.280762,0.415527,-8.3125,49.9375,27.5625,-0.703244,-0.958323,1.08148
4452,32,8,-16,-32,-4,14,13,10,0.594238,-0.401855,0.449707,-12.875,46.5625,25.3125,-0.703133,-0.936862,1.07547
4452,6,-4,25,-23,-48,-19,9,-3,0.594238,-0.401855,0.449707,-12.875,46.5625,25.3125,-0.703133,-0.936862,1.07547
4459,-20,-5,-85,-57,-73,-26,-1,-2,0.594238,-0.401855,0.449707,-12.875,46.5625,25.3125,-0.703133,-0.936862,1.07547
4459,25,-7,23,-49,3,6,-13,-17,0.594238,-0.401855,0.449707,-12.875,46.5625,25.3125,-0.703133,-0.936862,1.07547
4477,-36,5,9,55,41,13,-2,9,0.570312,-0.412109,0.40918,-14.0625,45.9375,28.75,-0.706159,-0.915392,1.07234
4477,46,-3,-19,-1,-5,0,4,7,0.570312,-0.412109,0.40918,-14.0625,45.9375,28.75,-0.706159,-0.915392,1.07234
4483,-24,-5,15,-110,-33,3,-10,-1,0.570312,-0.412109,0.40918,-14.0625,45.9375,28.75,-0.706159,-0.915392,1.07234
4483,-14,-2,-12,127,-16,-15,-5,-1,0.570312,-0.412109,0.40918,-14.0625,45.9375,28.75,-0.706159,-0.915392,1.07234
4497,-3,-5,-5,-114,7,-3,0,-16,0.44873,-0.385254,0.408691,-12.1875,45.625,25.1875,-0.70685,-0.89366,1.06734
4497,40,9,-9,30,27,19,4,7,0.44873,-0.385254,0.408691,-12.1875,45.625,25.1875,-0.70685,-0.89366,1.06734
4499,-45,3,30,-1,-17,-14,-12,-5,0.44873,-0.385254,0.408691,-12.1875,45.625,25.1875,-0.70685,-0.89366,1.06734
4499,7,-2,-68,-11,10,13,51,12,0.44873,-0.385254,0.408691,-12.1875,45.625,25.1875,-0.70685,-0.89366,1.06734
4513,0,-4,35,-10,11,1,-6,-4,0.457031,-0.469727,0.424805,-11.125,45.625,23.6875,-0.708955,-0.871743,1.06333
4513,18,6,-31,8,-44,-16,0,2,0.457031,-0.469727,0.424805,-11.125,45.625,23.6875,-0.708955,-0.871743,1.06333
4520,-4,4,-15,28,60,4,-16,-4,0.457031,-0.469727,0.424805,-11.125,45.625,23.6875,-0.708955,-0.871743,1.06333
4520,-8,-3,23,-11,-4,-6,-9,3,0.457031,-0.469727,0.424805,-11.125,45.625,23.6875,-0.708955,-0.871743,1.06333
4551,25,1,1,-27,-53,-3,8,9,0.501953,-0.460938,0.435547,-9.25,45.375,18.25,-0.708133,-0.852037,1.0568
4551,-17,7,-11,37,72,8,-16,-19,0.501953,-0.460938,0.435547,-9.25,45.375,18.25,-0.708133,-0.852037,1.0568
4551,-13,2,21,-58,-55,-13,-1,12,0.501953,-0.460938,0.435547,-9.25,45.375,18.25,-0.708133,-0.852037,1.0568
4551,-4,3,-37,7,-26,-10,-16,-7,0.501953,-0.460938,0.435547,-9.25,45.375,18.25,-0.708133,-0.852037,1.0568
4566,5,1,54,77,60,17,27,2,0.501465,-0.393555,0.407227,-10.875,47.125,17.3125,-0.706399,-0.833568,1.0486
4566,-12,-8,-56,-80,-70,-8,-2,-5,0.501465,-0.393555,0.407227,-10.875,47.125,17.3125,-0.706399,-0.833568,1.0486
4568,49,3,12,-25,-6,-13,2,9,0.501465,-0.393555,0.407227,-10.875,47.125,17.3125,-0.706399,-0.833568,1.0486
4568,28,-12,22,-16,42,13,-2,12,0.501465,-0.393555,0.407227,-10.875,47.125,17.3125,-0.706399,-0.833568,1.0486
4572,-57,-17,-15,82,33,15,-1,-25,0.466309,-0.419922,0.439941,-15.375,48.5,18.625,-0.706343,-0.813423,1.04047
4572,6,-10,24,12,-25,-19,-3,23,0.466309,-0.419922,0.439941,-15.375,48.5,18.625,-0.706343,-0.813423,1.04047
4580,-27,-13,-10,-13,3,-1,-51,-49,0.466309,-0.419922,0.439941,-15.375,48.5,18.625,-0.706343,-0.813423,1.04047
4580,12,4,-13,-1,-7,-6,6,5,0.466309,-0.419922,0.439941,-15.375,48.5,18.625,-0.706343,-0.813423,1.04047
4595,40,14,27,-5,-18,-5,35,12,0.53418,-0.416504,0.476074,-12.6875,46.375,18.0625,-0.705116,-0.79511,1.03246
4595,3,-1,-20,-64,-63,-25,-26,-7,0.53418,-0.416504,0.476074,-12.6875,46.375,18.0625,-0.705116,-0.79511,1.03246
4603,-34,-18,-38,-91,-87,-25,2,5,0.53418,-0.416504,0.476074,-12.6875,46.375,18.0625,-0.705116,-0.79511,1.03246
4603,-25,-2,41,46,84,28,-16,-1,0.53418,-0.416504,0.476074,-12.6875,46.375,18.0625,-0.705116,-0.79511,1.03246
4617,15,7,40,103,99,24,11,-2,0.500977,-0.361328,0.515625,1.0625,47.8125,20.4375,-0.697549,-0.775801,1.02356
4617,-32,-10,-52,-19,39,18,34,10,0.500977,-0.361328,0.515625,1.0625,47.8125,20.4375,-0.697549,-0.775801,1.02356
4618,60,6,2,-3,-92,-28,19,11,0.500977,-0.361328,0.515625,1.0625,47.8125,20.4375,-0.697549,-0.775801,1.02356
4618,-25,-25,-27,-128,-128,-56,-43,-20,0.500977,-0.361328,0.515625,1.0625,47.8125,20.4375,-0.697549,-0.775801,1.02356
4632,-31,-24,-44,29,102,38,24,1,0.433594,-0.428711,0.525391,-4.0625,46.25,18.8125,-0.693602,-0.755468,1.01609
4632,93,9,37,114,37,18,-27,15,0.433594,-0.428711,0.525391,-4.0625,46.25,18.8125,-0.693602,-0.755468,1.01609
4640,-35,20,27,50,49,18,-44,-14,0.433594,-0.428711,0.525391,-4.0625,46.25,18.8125,-0.693602,-0.755468,1.01609
4640,12,23,-6,-18,-30,-9,38,7,0.433594,-0.428711,0.525391,-4.0625,46.25,18.8125,-0.693602,-0.755468,1.01609
4654,-34,-2,-4,-65,-96,-22,-10,-3,0.541992,-0.505371,0.547363,-6.375,41.6875,21.6875,-0.69396,-0.737071,1.01232
4654,-30,-24,37,17,-28,-6,13,-21,0.541992,-0.505371,0.547363,-6.375,41.6875,21.6875,-0.69396,-0.737071,1.01232
4663,46,1,-33,5,25,19,3,18,0.541992,-0.505371,0.547363,-6.375,41.6875,21.6875,-0.69396,-0.737071,1.01232
4663,-12,-28,10,16,39,6,-30,-14,0.541992,-0.505371,0.547363,-6.375,41.6875,21.6875,-0.69396,-0.737071,1.01232
4678,35,-8,-46,-47,-23,-3,-8,22,0.541504,-0.519531,0.557129,-0.8125,39.5,24.6875,-0.693702,-0.718568,1.01031
4678,-27,-11,-2,-20,-87,-24,14,-8,0.541504,-0.519531,0.557129,-0.8125,39.5,24.6875,-0.693702,-0.718568,1.01031
4685,40,13,53,61,85,8,-27,2,0.541504,-0.519531,0.557129,-0.8125,39.5,24.6875,-0.693702,-0.718568,1.01031
4685,-63,-2,3,126,90,45,19,-2,0.541504,-0.519531,0.557129,-0.8125,39.5,24.6875,-0.693702,-0.718568,1.01031
4692,35,24,-1,-25,-30,-11,0,6,0.512695,-0.452148,0.53418,3.0625,41,23.5,-0.690327,-0.700899,1.00659
4692,-20,5,-22,-78,-71,-19,6,-5,0.512695,-0.452148,0.53418,3.0625,41,23.5,-0.690327,-0.700899,1.00659
4716,-12,-9,-52,-128,-97,-31,3,-6,0.512695,-0.452148,0.53418,3.0625,41,23.5,-0.690327,-0.700899,1.00659
4716,20,22,24,24,-42,-2,2,8,0.512695,-0.452148,0.53418,3.0625,41,23.5,-0.690327,-0.700899,1.00659
4718,44,8,33,21,77,19,-21,0,0.538574,-0.453125,0.539062,-2.5,41.6875,24.5625,-0.68924,-0.683503,1.00343
4718,-47,-5,-45,44,78,41,4,-1,0.538574,-0.453125,0.539062,-2.5,41.6875,24.5625,-0.68924,-0.683503,1.00343
4730,-16,-17,34,71,41,18,29,-14,0.538574,-0.453125,0.539062,-2.5,41.6875,24.5625,-0.68924,-0.683503,1.00343
4730,40,7,65,49,-1,11,-3,3,0.538574,-0.453125,0.539062,-2.5,41.6875,24.5625,-0.68924,-0.683503,1.00343
4746,-57,-24,-65,-39,-42,-5,-31,-15,0.587891,-0.463867,0.545898,-3.375,43.875,26.25,-0.688627,-0.666333,1.00014
4746,33,7,-7,-1,4,-16,-10,6,0.587891,-0.463867,0.545898,-3.375,43.875,26.25,-0.688627,-0.666333,1.00014
4747,-8,-8,32,-49,4,4,0,-13,0.587891,-0.463867,0.545898,-3.375,43.875,26.25,-0.688627,-0.666333,1.00014
4747,14,-5,-43,-50,-54,0,25,5,0.587891,-0.463867,0.545898,-3.375,43.875,26.25,-0.688627,-0.666333,1.00014
4754,1,14,11,-5,6,-16,6,6,0.578125,-0.48877,0.572754,0.1875,45,25.1875,-0.686569,-0.64874,0.996417
4754,9,-5,41,47,33,6,-48,-26,0.578125,-0.48877,0.572754,0.1875,45,25.1875,-0.686569,-0.64874,0.996417
4760,-32,3,-13,86,58,5,22,-1,0.578125,-0.48877,0.572754,0.1875,45,25.1875,-0.686569,-0.64874,0.996417
4760,21,2,3,-1,-7,-27,15,8,0.578125,-0.48877,0.572754,0.1875,45,25.1875,-0.686569,-0.64874,0.996417
4775,-22,-3,10,-17,-4,8,-6,-14,0.578125,-0.509766,0.600586,4.8125,43,26.125,-0.683525,-0.631424,0.993767
4775,8,7,-14,-12,19,-4,10,4,0.578125,-0.509766,0.600586,4.8125,43,26.125,-0.683525,-0.631424,0.993767
4783,22,1,-10,-88,-127,-43,12,18,0.578125,-0.509766,0.600586,4.8125,43,26.125,-0.683525,-0.631424,0.993767
4783,-28,-2,41,60,96,25,-9,-7,0.578125,-0.509766,0.600586,4.8125,43,26.125,-0.683525,-0.631424,0.993767
4797,22,-1,-33,23,12,-7,8,13,0.565918,-0.510254,0.605957,3.375,41.875,25.125,-0.680995,-0.614587,0.991005
4797,-32,-11,21,-48,6,15,-13,-21,0.565918,-0.510254,0.605957,3.375,41.875,25.125,-0.680995,-0.614587,0.991005
4805,-3,3,9,127,4,38,-23,14,0.565918,-0.510254,0.605957,3.375,41.875,25.125,-0.680995,-0.614587,0.991005
4805,-21,-12,-37,-128,-128,-63,26,-19,0.565918,-0.510254,0.605957,3.375,41.875,25.125,-0.680995,-0.614587,0.991005
4813,-15,-4,11,-26,81,17,-24,-17,0.567383,-0.477051,0.624023,0.375,39.9375,23.75,-0.678778,-0.599187,0.987882
4813,33,10,4,60,95,17,25,17,0.567383,-0.477051,0.624023,0.375,39.9375,23.75,-0.678778,-0.599187,0.987882
4828,11,18,24,3,52,10,10,15,0.567383,-0.477051,0.624023,0.375,39.9375,23.75,-0.678778,-0.599187,0.987882
4828,-10,-10,-23,71,-19,3,-63,-15,0.567383,-0.477051,0.624023,0.375,39.9375,23.75,-0.678778,-0.599187,0.987882
4834,13,-5,11,-10,-35,13,24,0,0.521973,-0.526855,0.635742,-1.6875,39.0625,21.5,-0.677786,-0.583257,0.984732
4834,41,2,-22,-37,-15,-24,4,-5,0.521973,-0.526855,0.635742,-1.6875,39.0625,21.5,-0.677786,-0.583257,0.984732
4842,-72,-23,31,-51,-67,-33,-38,1,0.521973,-0.526855,0.635742,-1.6875,39.0625,21.5,-0.677786,-0.583257,0.984732
4842,-9,-3,-71,9,66,38,48,2,0.521973,-0.526855,0.635742,-1.6875,39.0625,21.5,-0.677786,-0.583257,0.984732
4857,15,-8,-20,28,12,-27,-20,-13,0.48291,-0.523926,0.612305,1.5,39.1875,23.5,-0.676592,-0.566958,0.982532
4857,21,7,-13,-53,-33,1,-32,19,0.48291,-0.523926,0.612305,1.5,39.1875,23.5,-0.676592,-0.566958,0.982532
4865,-16,-2,-7,-53,34,0,15,-3,0.48291,-0.523926,0.612305,1.5,39.1875,23.5,-0.676592,-0.566958,0.982532
4865,1,-14,34,32,48,-4,-45,-3,0.48291,-0.523926,0.612305,1.5,39.1875,23.5,-0.676592,-0.566958,0.982532
4872,20,1,-10,-5,-77,-15,43,8,0.5,-0.467773,0.597168,-4,41.5,21.1875,-0.675545,-0.551621,0.978484
4872,-15,9,34,21,127,58,7,-4,0.5,-0.467773,0.597168,-4,41.5,21.1875,-0.675545,-0.551621,0.978484
4880,12,34,-5,92,6,3,39,0,0.5,-0.467773,0.597168,-4,41.5,21.1875,-0.675545,-0.551621,0.978484
4880,-35,-7,-7,-128,-120,-53,5,-16,0.5,-0.467773,0.597168,-4,41.5,21.1875,-0.675545,-0.551621,0.978484
4894,-29,8,-12,106,113,45,-64,-9,0.44043,-0.588867,0.600586,-6.25,42.1875,15,-0.677132,-0.535768,0.973819
4894,-9,16,53,116,39,14,56,5,0.44043,-0.588867,0.600586,-6.25,42.1875,15,-0.677132,-0.535768,0.973819
4919,52,0,-15,-78,-64,-8,17,14,0.44043,-0.588867,0.600586,-6.25,42.1875,15,-0.677132,-0.535768,0.973819
4919,12,7,40,14,50,12,-22,-18,0.44043,-0.588867,0.600586,-6.25,42.1875,15,-0.677132,-0.535768,0.973819
4920,7,-25,-39,-91,-128,-60,-10,4,0.411621,-0.580078,0.653809,0.875,40.5625,10.25,-0.674395,-0.520523,0.967341
4920,1,-24,-25,-77,-67,-24,1,-1,0.411621,-0.580078,0.653809,0.875,40.5625,10.25,-0.674395,-0.520523,0.967341
4925,-31,-15,14,58,110,35,8,-15,0.411621,-0.580078,0.653809,0.875,40.5625,10.25,-0.674395,-0.520523,0.967341
4925,46,9,7,13,-15,-14,-17,22,0.411621,-0.580078,0.653809,0.875,40.5625,10.25,-0.674395,-0.520523,0.967341
4932,-4,-5,-6,-117,-82,-39,23,-11,0.383301,-0.512207,0.676758,1.1875,39.75,15.3125,-0.670858,-0.504487,0.961846
4932,-12,-10,41,116,31,10,15,2,0.383301,-0.512207,0.676758,1.1875,39.75,15.3125,-0.670858,-0.504487,0.961846
4940,-31,-17,-63,-120,-56,-13,-33,-26,0.383301,-0.512207,0.676758,1.1875,39.75,15.3125,-0.670858,-0.504487,0.961846
4940,1,12,15,77,110,34,25,3,0.383301,-0.512207,0.676758,1.1875,39.75,15.3125,-0.670858,-0.504487,0.961846
4954,73,19,23,-7,-22,8,-4,23,0.431641,-0.495605,0.689941,-2,39,12.6875,-0.667841,-0.490552,0.955779
4954,-75,-20,13,-12,-71,-40,9,-2,0.431641,-0.495605,0.689941,-2,39,12.6875,-0.667841,-0.490552,0.955779
4962,27,2,-2,-23,38,1,17,-4,0.431641,-0.495605,0.689941,-2,39,12.6875,-0.667841,-0.490552,0.955779
4962,19,11,-14,78,54,3,-51,-1,0.431641,-0.495605,0.689941,-2,39,12.6875,-0.667841,-0.490552,0.955779
4977,-16,16,37,-45,-22,22,6,6,0.45459,-0.552734,0.727539,0.375,37.8125,10.0625,-0.664493,-0.477681,0.949584
4977,-14,-1,-40,-23,-12,-9,-4,-4,0.45459,-0.552734,0.727539,0.375,37.8125,10.0625,-0.664493,-0.477681,0.949584
4985,8,11,47,38,-16,-9,-14,2,0.45459,-0.552734,0.727539,0.375,37.8125,10.0625,-0.664493,-0.477681,0.949584
4985,6,-5,-78,-126,-57,-16,4,15,0.45459,-0.552734,0.727539,0.375,37.8125,10.0625,-0.664493,-0.477681,0.949584
5001,26,3,-5,98,59,29,19,19,0.439941,-0.521484,0.727051,6.1875,34.625,13.5625,-0.659502,-0.464938,0.944892
5001,0,-8,-5,-8,37,0,-8,-11,0.439941,-0.521484,0.727051,6.1875,34.625,13.5625,-0.659502,-0.464938,0.944892
5002,-29,-15,5,-89,-102,-37,17,0,0.439941,-0.521484,0.727051,6.1875,34.625,13.5625,-0.659502,-0.464938,0.944892
5002,50,9,37,99,28,-1,-1,12,0.439941,-0.521484,0.727051,6.1875,34.625,13.5625,-0.659502,-0.464938,0.944892
5016,-47,-9,31,80,92,14,-31,-14,0.435059,-0.489258,0.718262,6.625,31.8125,14.625,-0.654465,-0.453282,0.941195
5016,-19,0,25,82,9,-19,30,-7,0.435059,-0.489258,0.718262,6.625,31.8125,14.625,-0.654465,-0.453282,0.941195
5022,71,12,-35,1,-41,7,-27,12,0.435059,-0.489258,0.718262,6.625,31.8125,14.625,-0.654465,-0.453282,0.941195
5022,-105,-32,-19,-61,16,-8,24,-32,0.435059,-0.489258,0.718262,6.625,31.8125,14.625,-0.654465,-0.453282,0.941195
5038,8,-6,-6,-34,-17,-11,-14,-1,0.439453,-0.546875,0.722168,0,26.8125,11.6875,-0.653079,-0.4436,0.938422
5038,4,14,31,77,-7,3,-12,10,0.439453,-0.546875,0.722168,0,26.8125,11.6875,-0.653079,-0.4436,0.938422
5045,16,-10,27,35,81,4,10,-15,0.439453,-0.546875,0.722168,0,26.8125,11.6875,-0.653079,-0.4436,0.938422
5045,31,0,-79,-128,-128,-17,20,16,0.439453,-0.546875,0.722168,0,26.8125,11.6875,-0.653079,-0.4436,0.938422
5061,-77,-12,0,-18,-63,-10,-32,-44,0.453613,-0.560059,0.708008,7.1875,25.375,13.3125,-0.650225,-0.434526,0.93682
5061,0,-5,-28,-63,8,-7,-18,-1,0.453613,-0.560059,0.708008,7.1875,25.375,13.3125,-0.650225,-0.434526,0.93682
5062,39,1,-28,-35,-27,-15,4,19,0.453613,-0.560059,0.708008,7.1875,25.375,13.3125,-0.650225,-0.434526,0.93682
5062,-40,-7,-21,37,7,19,5,-12,0.453613,-0.560059,0.708008,7.1875,25.375,13.3125,-0.650225,-0.434526,0.93682
5074,0,2,48,18,64,9,3,-14,0.390137,-0.532715,0.685547,8.3125,23.875,14.5,-0.647249,-0.424704,0.935891
5074,38,17,8,35,6,25,12,6,0.390137,-0.532715,0.685547,8.3125,23.875,14.5,-0.647249,-0.424704,0.935891
5082,-25,-7,-27,-22,-3,-8,-29,7,0.390137,-0.532715,0.685547,8.3125,23.875,14.5,-0.647249,-0.424704,0.935891
5082,18,9,32,25,53,26,30,-9,0.390137,-0.532715,0.685547,8.3125,23.875,14.5,-0.647249,-0.424704,0.935891
5113,1,13,2,52,66,5,36,16,0.39502,-0.55957,0.69043,2.375,21.6875,9.625,-0.646378,-0.416641,0.934115
5113,3,-12,-30,-89,-101,-36,-55,-19,0.39502,-0.55957,0.69043,2.375,21.6875,9.625,-0.646378,-0.416641,0.934115
5114,-12,-4,-10,-45,-42,-28,9,6,0.39502,-0.55957,0.69043,2.375,21.6875,9.625,-0.646378,-0.416641,0.934115
5114,17,1,3,65,46,21,1,8,0.39502,-0.55957,0.69043,2.375,21.6875,9.625,-0.646378,-0.416641,0.934115
5120,-14,12,88,74,18,6,10,-5,0.407227,-0.571777,0.711914,6.25,19.875,10.8125,-0.644386,-0.409062,0.933155
5120,44,3,-67,-70,4,6,11,13,0.407227,-0.571777,0.711914,6.25,19.875,10.8125,-0.644386,-0.409062,0.933155
5121,-59,-4,-7,-6,6,16,37,2,0.407227,-0.571777,0.711914,6.25,19.875,10.8125,-0.644386,-0.409062,0.933155
5121,61,13,-6,-68,-35,-45,-48,10,0.407227,-0.571777,0.711914,6.25,19.875,10.8125,-0.644386,-0.409062,0.933155
5134,-40,-14,-6,-23,-66,36,14,-4,0.34668,-0.52002,0.71582,8,18.75,10.1875,-0.640917,-0.401013,0.931921
5134,-17,1,6,16,36,-2,-16,-4,0.34668,-0.52002,0.71582,8,18.75,10.1875,-0.640917,-0.401013,0.931921
5142,27,7,70,104,19,15,23,-15,0.34668,-0.52002,0.71582,8,18.75,10.1875,-0.640917,-0.401013,0.931921
5142,-26,12,-19,-21,-64,-10,17,9,0.34668,-0.52002,0.71582,8,18.75,10.1875,-0.640917,-0.401013,0.931921
5157,38,-4,1,22,105,-3,-8,-3,0.355469,-0.532227,0.71875,3.8125,18.625,7.4375,-0.638648,-0.393854,0.929821
5157,-50,-18,-16,30,-41,8,6,-6,0.355469,-0.532227,0.71875,3.8125,18.625,7.4375,-0.638648,-0.393854,0.929821
5165,1,-4,7,-60,-32,-19,-5,-4,0.355469,-0.532227,0.71875,3.8125,18.625,7.4375,-0.638648,-0.393854,0.929821
5165,43,-4,14,-53,-22,-14,-25,7,0.355469,-0.532227,0.71875,3.8125,18.625,7.4375,-0.638648,-0.393854,0.929821
5203,12,6,-26,-90,-27,14,-32,-2,0.362305,-0.553223,0.739746,4.5,16.4375,6.3125,-0.636635,-0.3876,0.92822
5203,8,14,-12,-82,-59,-20,20,11,0.362305,-0.553223,0.739746,4.5,16.4375,6.3125,-0.636635,-0.3876,0.92822
5211,-43,12,-11,99,24,12,-30,-17,0.33252,-0.522461,0.742676,7.3125,14.25,4.5625,-0.628956,-0.375424,0.924817
5211,33,38,27,122,97,31,47,22,0.33252,-0.522461,0.742676,7.3125,14.25,4.5625,-0.628956,-0.375424,0.924817
5217,-44,8,-52,-35,-61,-49,-25,-9,0.33252,-0.522461,0.742676,7.3125,14.25,4.5625,-0.628956,-0.375424,0.924817
5217,14,0,-2,-67,8,15,-13,-12,0.33252,-0.522461,0.742676,7.3125,14.25,4.5625,-0.628956,-0.375424,0.924817
5224,-1,-17,2,50,107,37,22,13,0.33252,-0.522461,0.742676,7.3125,14.25,4.5625,-0.628956,-0.375424,0.924817
5224,4,-12,41,-35,-91,-12,-14,-3,0.33252,-0.522461,0.742676,7.3125,14.25,4.5625,-0.628956,-0.375424,0.924817
5241,50,-31,-70,-63,-75,-27,-1,27,0.33252,-0.522461,0.742676,7.3125,14.25,4.5625,-0.628956,-0.375424,0.924817
5241,-20,-33,20,62,35,0,9,-12,0.33252,-0.522461,0.742676,7.3125,14.25,4.5625,-0.628956,-0.375424,0.924817
5242,42,-4,-43,-40,55,11,-10,8,0.333008,-0.565918,0.736816,8.875,14.6875,5,-0.625857,-0.369638,0.923253
5242,2,-3,18,97,22,21,13,7,0.333008,-0.565918,0.736816,8.875,14.6875,5,-0.625857,-0.369638,0.923253
5256,-17,-18,29,5,32,0,32,-15,0.333008,-0.565918,0.736816,8.875,14.6875,5,-0.625857,-0.369638,0.923253
5256,19,-3,4,-16,-121,-23,-6,10,0.333008,-0.565918,0.736816,8.875,14.6875,5,-0.625857,-0.369638,0.923253
5258,13,2,29,-25,50,27,0,-4,0.37793,-0.553223,0.753906,9.1875,14.375,2.5,-0.621994,-0.365476,0.920988
5258,-25,-21,-31,-71,-33,-30,-28,-4,0.37793,-0.553223,0.753906,9.1875,14.375,2.5,-0.621994,-0.365476,0.920988
5271,59,16,-10,85,-13,6,39,0,0.37793,-0.553223,0.753906,9.1875,14.375,2.5,-0.621994,-0.365476,0.920988
5271,-37,-9,-1,27,51,-14,-61,-8,0.37793,-0.553223,0.753906,9.1875,14.375,2.5,-0.621994,-0.365476,0.920988
5273,-33,-8,-7,-74,-25,12,4,-16,0.377441,-0.515625,0.689453,6.9375,14.25,7.25,-0.619668,-0.361131,0.920165
5273,-20,13,34,115,70,16,-8,13,0.377441,-0.515625,0.689453,6.9375,14.25,7.25,-0.619668,-0.361131,0.920165
5285,29,-1,0,-34,-113,-12,7,-2,0.377441,-0.515625,0.689453,6.9375,14.25,7.25,-0.619668,-0.361131,0.920165
5285,-66,0,44,-78,-7,3,4,-4,0.377441,-0.515625,0.689453,6.9375,14.25,7.25,-0.619668,-0.361131,0.920165
5293,22,2,-30,108,71,9,-16,11,0.442871,-0.52002,0.74707,3.125,9.125,4.875,-0.618226,-0.359855,0.919609
5293,-12,0,20,-44,8,11,13,-14,0.442871,-0.52002,0.74707,3.125,9.125,4.875,-0.618226,-0.359855,0.919609
5316,-28,-3,-12,-14,-3,-18,3,1,0.442871,-0.52002,0.74707,3.125,9.125,4.875,-0.618226,-0.359855,0.919609
5316,66,17,3,2,-19,5,9,10,0.442871,-0.52002,0.74707,3.125,9.125,4.875,-0.618226,-0.359855,0.919609
5317,8,6,4,22,-37,-11,-18,4,0.392578,-0.742676,1.14697,-7.4375,20.125,3.6875,-0.618149,-0.350924,0.915901
5317,-21,-24,-20,-128,-91,-29,-22,-18,0.392578,-0.742676,1.14697,-7.4375,20.125,3.6875,-0.618149,-0.350924,0.915901
5322,-26,8,45,44,121,36,45,-9,0.392578,-0.742676,1.14697,-7.4375,20.125,3.6875,-0.618149,-0.350924,0.915901
5322,11,3,-10,66,28,-9,-23,3,0.392578,-0.742676,1.14697,-7.4375,20.125,3.6875,-0.618149,-0.350924,0.915901
5331,-24,-11,-3,-66,-114,-39,-9,3,0.240234,-0.300293,0.365234,12.25,10.375,2.875,-0.614297,-0.348851,0.914816
5331,17,2,-24,62,92,17,-5,-4,0.240234,-0.300293,0.365234,12.25,10.375,2.875,-0.614297,-0.348851,0.914816
5346,-5,8,17,45,35,5,-1,5,0.240234,-0.300293,0.365234,12.25,10.375,2.875,-0.614297,-0.348851,0.914816
5346,-27,0,-1,-100,-68,-21,-25,-11,0.240234,-0.300293,0.365234,12.25,10.375,2.875,-0.614297,-0.348851,0.914816
5352,-16,-18,8,4,62,0,0,-17,0.114258,-0.759277,1.06738,-3.6875,16.3125,4.125,-0.614918,-0.335388,0.912703
5352,22,0,-31,24,-41,0,-7,3,0.114258,-0.759277,1.06738,-3.6875,16.3125,4.125,-0.614918,-0.335388,0.912703
5368,-52,-4,55,-78,-48,-18,-23,-15,0.114258,-0.759277,1.06738,-3.6875,16.3125,4.125,-0.614918,-0.335388,0.912703
5368,48,5,-32,70,-1,-12,32,22,0.114258,-0.759277,1.06738,-3.6875,16.3125,4.125,-0.614918,-0.335388,0.912703
5370,4,-1,17,62,43,31,-39,-1,0.724609,-0.439941,0.988281,3.8125,4.6875,9.1875,-0.608751,-0.34027,0.912652
5370,-37,-5,0,-81,-56,-2,26,2,0.724609,-0.439941,0.988281,3.8125,4.6875,9.1875,-0.608751,-0.34027,0.912652
5391,11,1,8,63,63,-3,-38,-1,0.724609,-0.439941,0.988281,3.8125,4.6875,9.1875,-0.608751,-0.34027,0.912652
5391,25,-5,-60,-23,21,24,52,2,0.724609,-0.439941,0.988281,3.8125,4.6875,9.1875,-0.608751,-0.34027,0.912652
5392,-16,-2,-16,-66,-62,-39,-15,-5,0.59668,-0.21582,0.451172,14.375,5,4.1875,-0.601837,-0.347617,0.91231
5392,3,2,35,29,-35,-11,7,4,0.59668,-0.21582,0.451172,14.375,5,4.1875,-0.601837,-0.347617,0.91231
5406,-7,-9,-57,-28,8,-23,-39,0,0.59668,-0.21582,0.451172,14.375,5,4.1875,-0.601837,-0.347617,0.91231
5406,-11,-3,40,-64,-12,23,1,-6,0.59668,-0.21582,0.451172,14.375,5,4.1875,-0.601837,-0.347617,0.91231
5408,20,6,-46,96,-42,7,21,-3,0.187988,-0.318359,0.297363,14.75,8.0625,2.5625,-0.598766,-0.345583,0.912235
5408,-20,2,5,-36,45,-32,19,-4,0.187988,-0.318359,0.297363,14.75,8.0625,2.5625,-0.598766,-0.345583,0.912235
5428,40,15,63,81,20,57,-5,0,0.187988,-0.318359,0.297363,14.75,8.0625,2.5625,-0.598766,-0.345583,0.912235
5428,-30,6,25,17,19,-15,-2,-4,0.187988,-0.318359,0.297363,14.75,8.0625,2.5625,-0.598766,-0.345583,0.912235
5435,-21,-30,-63,-48,-11,12,-13,-11,-0.0180664,-0.448242,0.300781,5.25,7.9375,-0.5,-0.601505,-0.338893,0.912078
5435,-5,5,15,-40,-45,-10,-37,-4,-0.0180664,-0.448242,0.300781,5.25,7.9375,-0.5,-0.601505,-0.338893,0.912078
5458,22,-7,-14,60,20,-10,1,3,-0.0180664,-0.448242,0.300781,5.25,7.9375,-0.5,-0.601505,-0.338893,0.912078
5458,38,-6,-31,-13,48,4,13,0,-0.0180664,-0.448242,0.300781,5.25,7.9375,-0.5,-0.601505,-0.338893,0.912078
5460,30,6,30,-101,-96,-27,-16,11,0.0170898,-0.427734,0.329102,8.0625,6.3125,0.3125,-0.60249,-0.333245,0.912193
5460,-28,-11,-30,-3,45,12,-9,-6,0.0170898,-0.427734,0.329102,8.0625,6.3125,0.3125,-0.60249,-0.333245,0.912193
5466,-15,-5,-25,-49,54,23,18,-4,0.0170898,-0.427734,0.329102,8.0625,6.3125,0.3125,-0.60249,-0.333245,0.912193
5466,28,23,53,127,62,11,12,10,0.0170898,-0.427734,0.329102,8.0625,6.3125,0.3125,-0.60249,-0.333245,0.912193
5468,25,22,42,20,-45,-15,-12,3,0.393066,-0.272949,0.407715,5.5625,5.6875,-1.8125,-0.599753,-0.3371,0.910418
5468,-29,-21,-53,-72,-63,-23,0,-19,0.393066,-0.272949,0.407715,5.5625,5.6875,-1.8125,-0.599753,-0.3371,0.910418
5489,-11,-1,-11,-65,-9,-4,-62,-5,0.393066,-0.272949,0.407715,5.5625,5.6875,-1.8125,-0.599753,-0.3371,0.910418
5489,-15,-4,33,86,87,15,2,13,0.393066,-0.272949,0.407715,5.5625,5.6875,-1.8125,-0.599753,-0.3371,0.910418
5495,16,7,6,-23,-2,-8,15,11,0.890625,-0.305176,0.852539,-3.3125,3.6875,-1.625,-0.594672,-0.349601,0.907275
5495,-8,4,-19,4,-14,1,0,1,0.890625,-0.305176,0.852539,-3.3125,3.6875,-1.625,-0.594672,-0.349601,0.907275
5528,-6,-7,11,10,-19,25,6,-3,0.890625,-0.305176,0.852539,-3.3125,3.6875,-1.625,-0.594672,-0.349601,0.907275
5528,19,-7,-82,-128,-128,-59,-32,-1,0.890625,-0.305176,0.852539,-3.3125,3.6875,-1.625,-0.594672,-0.349601,0.907275
5530,4,11,26,54,127,59,69,15,0.562988,-0.668457,1.14844,-4.0625,5.875,0.5,-0.593326,-0.349565,0.905281
5530,4,2,36,99,51,6,-23,-1,0.562988,-0.668457,1.14844,-4.0625,5.875,0.5,-0.593326,-0.349565,0.905281
5530,14,-5,-51,-79,-19,-24,34,9,0.562988,-0.668457,1.14844,-4.0625,5.875,0.5,-0.593326,-0.349565,0.905281
5530,10,-2,-1,86,-8,19,-3,0,0.562988,-0.668457,1.14844,-4.0625,5.875,0.5,-0.593326,-0.349565,0.905281
5534,4,-4,-43,-51,-66,-29,-7,-4,-0.351562,-0.710449,0.52832,-2.3125,6.875,-3.1875,-0.600803,-0.333506,0.905436
5534,3,4,22,-32,16,-8,8,-8,-0.351562,-0.710449,0.52832,-2.3125,6.875,-3.1875,-0.600803,-0.333506,0.905436
5548,20,3,-21,-8,-12,8,19,3,-0.351562,-0.710449,0.52832,-2.3125,6.875,-3.1875,-0.600803,-0.333506,0.905436
5548,-43,-5,39,22,73,26,4,-21,-0.351562,-0.710449,0.52832,-2.3125,6.875,-3.1875,-0.600803,-0.333506,0.905436
5551,11,13,-15,91,25,-30,59,24,0.639648,-0.225586,0.737305,-0.6875,1.4375,-2.875,-0.594715,-0.342277,0.902246
5551,18,-8,25,-30,-45,51,2,-15,0.639648,-0.225586,0.737305,-0.6875,1.4375,-2.875,-0.594715,-0.342277,0.902246
5571,-77,-3,8,-29,-37,-29,-56,-25,0.639648,-0.225586,0.737305,-0.6875,1.4375,-2.875,-0.594715,-0.342277,0.902246
5571,-20,-11,19,-86,-89,-14,-14,3,0.639648,-0.225586,0.737305,-0.6875,1.4375,-2.875,-0.594715,-0.342277,0.902246
5572,-18,-9,-8,-21,48,-9,-33,-9,0.195312,-0.75,0.979492,-2.875,3.375,-1.0625,-0.597256,-0.336055,0.901936
5572,23,11,38,127,117,15,33,7,0.195312,-0.75,0.979492,-2.875,3.375,-1.0625,-0.597256,-0.336055,0.901936
5586,40,21,26,26,-38,5,49,12,0.195312,-0.75,0.979492,-2.875,3.375,-1.0625,-0.597256,-0.336055,0.901936
5586,-52,5,-67,-81,-51,-18,-18,-23,0.195312,-0.75,0.979492,-2.875,3.375,-1.0625,-0.597256,-0.336055,0.901936
5592,13,1,24,-56,14,-59,-48,1,0.40332,-0.273438,0.633301,1.4375,0.125,-4.375,-0.592936,-0.340591,0.89936
5592,3,-2,-29,-52,-58,32,15,-11,0.40332,-0.273438,0.633301,1.4375,0.125,-4.375,-0.592936,-0.340591,0.89936
5609,-2,-13,-8,71,115,29,43,13,0.40332,-0.273438,0.633301,1.4375,0.125,-4.375,-0.592936,-0.340591,0.89936
5609,26,4,-5,58,-13,-9,-7,10,0.40332,-0.273438,0.633301,1.4375,0.125,-4.375,-0.592936,-0.340591,0.89936
5610,-42,-25,-13,-99,-85,-24,-26,-34,-0.134766,-0.784668,0.676758,1.4375,1.5,0.125,-0.599218,-0.329088,0.901436
5610,15,8,-5,91,53,-3,-13,4,-0.134766,-0.784668,0.676758,1.4375,1.5,0.125,-0.599218,-0.329088,0.901436
5630,10,-2,11,-61,-128,-30,-23,29,-0.134766,-0.784668,0.676758,1.4375,1.5,0.125,-0.599218,-0.329088,0.901436
5630,42,2,17,46,127,5,19,6,-0.134766,-0.784668,0.676758,1.4375,1.5,0.125,-0.599218,-0.329088,0.901436
5638,-55,0,12,47,23,72,63,-20,0.909668,-0.350098,1.17578,-2.8125,-0.5,-1.3125,-0.590442,-0.340985,0.897891
5638,23,5,19,17,8,1,-28,13,0.909668,-0.350098,1.17578,-2.8125,-0.5,-1.3125,-0.590442,-0.340985,0.897891
5645,-51,-13,10,17,-6,-10,-26,-13,0.909668,-0.350098,1.17578,-2.8125,-0.5,-1.3125,-0.590442,-0.340985,0.897891
5645,40,-11,-28,-110,-87,-31,2,8,0.909668,-0.350098,1.17578,-2.8125,-0.5,-1.3125,-0.590442,-0.340985,0.897891
5659,28,-1,40,78,88,13,-35,-5,0.212891,-0.361328,0.55957,0.9375,0.5625,-3,-0.589644,-0.340859,0.896902
5659,-33,-10,-50,-53,-56,-25,64,0,0.212891,-0.361328,0.55957,0.9375,0.5625,-3,-0.589644,-0.340859,0.896902
5668,-33,-36,-72,-81,-76,-13,-17,-13,0.212891,-0.361328,0.55957,0.9375,0.5625,-3,-0.589644,-0.340859,0.896902
5668,6,14,24,95,103,42,-21,-2,0.212891,-0.361328,0.55957,0.9375,0.5625,-3,-0.589644,-0.340859,0.896902
5669,19,16,56,78,55,32,24,11,-0.371582,-0.729004,0.366211,-0.0625,1.4375,-1.125,-0.599576,-0.326548,0.899598
5669,18,13,-29,-47,-68,-41,-23,-2,-0.371582,-0.729004,0.366211,-0.0625,1.4375,-1.125,-0.599576,-0.326548,0.899598
5691,2,-3,16,-15,11,0,-18,-3,-0.371582,-0.729004,0.366211,-0.0625,1.4375,-1.125,-0.599576,-0.326548,0.899598
5691,-71,-27,-44,-94,-66,2,12,-32,-0.371582,-0.729004,0.366211,-0.0625,1.4375,-1.125,-0.599576,-0.326548,0.899598
5692,49,11,10,-53,-101,-41,-28,5,0.0371094,-0.803711,0.757324,-4.9375,2.0625,-1.875,-0.606917,-0.318848,0.900463
5692,-41,-2,0,46,127,59,28,-6,0.0371094,-0.803711,0.757324,-4.9375,2.0625,-1.875,-0.606917,-0.318848,0.900463
5705,34,17,31,46,-23,-6,41,14,0.0371094,-0.803711,0.757324,-4.9375,2.0625,-1.875,-0.606917,-0.318848,0.900463
5705,-34,-7,9,-84,-33,-16,0,0,0.0371094,-0.803711,0.757324,-4.9375,2.0625,-1.875,-0.606917,-0.318848,0.900463
5712,8,-6,-47,78,61,26,0,-2,0.543457,-0.668945,1.07373,-5.25,3.5,-1.4375,-0.606645,-0.320992,0.898664
5712,-21,2,23,17,-36,-40,-51,6,0.543457,-0.668945,1.07373,-5.25,3.5,-1.4375,-0.606645,-0.320992,0.898664
5728,3,8,27,40,52,-5,7,-6,0.543457,-0.668945,1.07373,-5.25,3.5,-1.4375,-0.606645,-0.320992,0.898664
5728,36,12,55,88,0,22,-29,-2,0.543457,-0.668945,1.07373,-5.25,3.5,-1.4375,-0.606645,-0.320992,0.898664
5730,18,12,-79,-128,-128,-52,15,13,0.730469,-0.519531,1.21924,-4,2.125,-1,-0.600981,-0.327405,0.895865
5730,-19,-7,13,13,50,6,46,-8,0.730469,-0.519531,1.21924,-4,2.125,-1,-0.600981,-0.327405,0.895865
5758,10,8,-3,103,100,73,35,-1,0.730469,-0.519531,1.21924,-4,2.125,-1,-0.600981,-0.327405,0.895865
5758,33,18,41,1,-61,-69,-18,18,0.730469,-0.519531,1.21924,-4,2.125,-1,-0.600981,-0.327405,0.895865
5760,-40,-21,-33,-52,-60,29,-9,-16,0.829102,-0.446289,1.26758,-0.9375,2.375,-0.5,-0.59225,-0.335624,0.892378
5760,45,-6,-14,-54,6,-13,-28,11,0.829102,-0.446289,1.26758,-0.9375,2.375,-0.5,-0.59225,-0.335624,0.892378
5765,-8,-1,46,56,24,-39,5,3,0.829102,-0.446289,1.26758,-0.9375,2.375,-0.5,-0.59225,-0.335624,0.892378
5765,-17,8,10,-7,38,38,10,-8,0.829102,-0.446289,1.26758,-0.9375,2.375,-0.5,-0.59225,-0.335624,0.892378
5772,-5,-17,-34,-11,21,-7,0,8,0.779297,-0.471191,1.24414,-1.875,2.3125,-1.5,-0.584806,-0.342589,0.888773
5772,0,2,5,29,12,21,15,3,0.779297,-0.471191,1.24414,-1.875,2.3125,-1.5,-0.584806,-0.342589,0.888773
5789,6,-8,-19,-105,-32,-67,-39,-8,0.779297,-0.471191,1.24414,-1.875,2.3125,-1.5,-0.584806,-0.342589,0.888773
