0,-1,0,-1,-1,0,-1,-1,-1
0,0,-1,-2,-2,1,-1,0,0
1,-2,-1,-1,0,0,-1,-1,-3
1,-1,-2,-2,-1,0,-1,0,1
2,-1,-2,-1,-1,-2,-2,-1,1
2,1,-1,-1,0,-1,-2,0,0
6,1,1,-1,-1,-1,-1,-1,0
6,-2,-1,-1,-1,0,-1,-2,-1
9,-1,-1,-1,-3,-1,0,0,0
9,-3,0,-1,-2,0,1,-1,-2
19,-1,-1,-2,-2,-2,-1,-1,0
19,-3,0,-2,0,-2,-2,-2,-2
30,-1,-2,-1,0,-3,-1,-2,-1
30,1,0,-1,0,-1,0,0,0
33,0,-1,-1,-1,1,0,-1,-1
33,1,-1,0,-2,1,-1,1,0
49,-1,1,-2,0,0,-1,-1,-1
49,-1,-2,-1,-2,-1,-1,-1,0
64,-2,-2,0,-1,-2,-2,-4,-1
64,0,0,-2,-2,-2,-1,-4,-3
80,-1,-1,-1,-1,1,-1,0,-2
80,-1,-2,0,-2,-2,-2,-1,-1
112,-1,0,0,0,-1,1,-2,-4
112,-2,-1,-2,-1,0,-1,1,-3
113,-1,1,-1,-1,-1,0,0,5
113,1,1,-1,-1,0,-1,-1,0
114,-2,0,-1,-1,0,-1,0,-1
114,0,-1,-3,0,-1,-1,-4,-2
116,1,-1,-2,0,0,-1,-1,-5
116,-3,-1,-1,-1,-3,0,-3,-1
124,-1,0,-1,0,-1,-2,-1,1
124,-1,-1,1,-2,-2,0,4,0
131,-1,-1,-1,0,-1,-1,-1,-3
131,-3,-2,-2,0,0,0,1,0
138,0,-2,-2,0,-1,1,-2,-2
138,-1,1,0,1,-1,-1,-2,0
154,-1,-2,0,-1,0,0,0,1
154,0,-1,-1,-1,-3,-3,-4,-1
162,-2,-2,-4,0,-1,-4,-4,-1
162,-2,-2,0,-1,0,-1,-2,1
192,-1,0,-2,-2,-2,-1,-1,-3
192,-2,-1,-2,0,-1,0,0,-2
193,0,0,0,-2,-1,0,2,0
193,-1,-2,0,-1,-1,-1,-2,-1
200,-1,-2,1,1,-1,-1,-2,-2
200,0,-1,-1,-1,-1,0,-1,0
206,0,-1,-1,-2,-2,0,-4,-1
206,-1,-3,-1,-2,-1,-2,0,1
222,-2,-2,-2,0,-1,0,-6,-4
222,0,-1,-1,-1,0,-1,0,-3
223,0,-1,0,-1,-2,-2,0,7
223,-1,1,0,-2,-1,0,-2,0
246,-1,-1,-1,-3,-1,-1,1,0
246,0,-2,0,-2,0,-2,-2,0
246,-2,-1,1,-1,0,-1,0,-4
246,-1,-1,-3,-1,-1,-2,-1,-1
259,-1,0,-1,-1,0,-1,0,-1
259,-1,-2,-2,0,0,0,-2,-3
259,0,-1,-1,-3,-2,-1,2,0
259,-1,-4,0,-1,-2,-2,0,-1
283,-2,-1,-1,-1,1,-1,-1,-1
283,-2,0,-1,-1,-1,-3,-4,-3
283,1,0,-1,0,-1,-2,0,0
283,0,0,-2,0,0,0,3,0
305,-1,-2,-2,0,0,-1,-2,1
305,-2,0,-2,0,-2,0,1,0
306,-3,-2,0,0,0,0,-4,-4
306,-1,-1,0,0,-2,-1,-5,-3
319,0,-1,-1,-1,-1,0,-1,-1
319,-1,1,-1,-3,0,0,-2,-2
320,-1,0,-1,0,-2,-1,2,5
320,1,1,-1,-1,0,-1,1,-1
342,-2,-1,-1,0,0,-1,-3,0
342,1,0,-1,1,0,1,-1,-1
344,-2,-1,0,-2,-3,-1,-1,-4
344,-2,0,-1,-1,-1,-2,-1,-1
365,-2,-2,-1,0,-3,-1,-1,-2
365,0,-1,0,-1,0,-2,-1,0
366,-2,-1,-1,0,0,-3,-3,0
366,-1,-1,-2,-1,-2,0,2,-2
379,0,-1,0,-2,-2,-1,-3,-1
379,0,0,-1,0,-2,0,2,2
380,0,-1,-1,-1,-1,-1,-2,-2
380,-3,-1,-3,-1,-1,-1,-4,-2
403,-1,-1,-1,0,-1,0,-1,-2
403,-2,-2,-1,-2,0,1,1,0
403,-1,-2,1,0,0,0,-4,-3
403,-1,-1,0,-1,-2,-2,-1,-1
424,0,-2,0,-2,-1,-1,0,-2
424,-1,-3,1,0,-2,-2,-1,-3
425,-1,0,1,-2,-2,-2,3,-2
425,-1,-1,-2,0,-1,-1,1,0
439,-2,-1,1,-2,0,-2,-1,-2
439,2,0,-1,-1,-1,-3,-2,-3
440,3,-1,-1,0,-1,1,1,3
440,1,0,-1,-2,1,0,0,10
463,1,1,-1,-3,0,0,-2,-1
463,-4,-2,-1,-2,-4,-2,1,-1
464,-2,-2,-2,-2,-2,-2,-4,-6
464,1,-2,-1,0,-1,-2,-2,-5
485,0,-1,-1,1,-1,-1,0,0
485,0,0,-2,-2,-2,0,2,0
486,-1,0,0,-1,0,-1,-2,-1
486,-2,-2,-1,-1,0,1,-4,-4
500,-1,0,-1,-1,-1,-1,0,-1
500,-1,0,0,-1,-1,-1,-1,0
500,-2,-2,-2,0,-2,-1,3,2
500,2,0,0,-2,-1,0,-3,-2
522,0,-1,0,-1,-1,-2,-2,-2
522,-2,-1,-1,0,-1,-1,-1,0
523,-1,-1,-1,-1,0,-1,0,-2
523,-2,0,-1,0,2,-1,-1,-5
544,2,0,-2,-2,-1,-1,0,1
544,-3,-2,0,-2,-2,-1,-3,0
552,1,0,-1,-2,-1,0,-2,-3
552,0,-1,-2,-1,-2,-1,-1,-1
559,0,0,0,0,1,-2,-2,-1
559,0,-2,-1,-2,-1,-2,-4,-1
560,0,0,-2,0,-1,1,2,0
560,-2,-2,0,-1,-1,-3,0,-3
583,1,-1,-1,-1,-1,0,2,2
583,-1,-1,0,-1,-1,-1,-2,1
584,-3,0,-1,0,-2,-2,-3,-3
584,0,-3,-2,0,-1,0,-1,-1
605,-1,-3,-1,-1,-1,0,-4,-3
605,-2,0,-1,0,0,-2,-1,-2
606,0,-1,0,-1,-1,-1,-3,0
606,-2,-1,-1,-2,-1,-1,2,-3
619,0,0,-2,1,-1,-1,1,0
619,0,0,-1,-2,-2,-1,-1,1
620,-1,-1,-2,0,0,-2,-2,0
620,-2,0,-1,-1,-1,0,-2,-1
641,3,1,1,-1,0,1,-1,-2
641,-1,0,-1,-1,1,0,0,-1
648,-2,-1,-1,0,-3,-1,-3,-2
648,-2,-2,1,-2,0,-2,-2,0
665,-3,-2,-2,-1,-1,-2,0,0
665,1,0,-2,-2,-1,-1,-1,0
667,0,0,0,0,-1,-1,-2,0
667,4,-1,-1,-1,-2,0,0,2
679,0,0,-1,0,-1,-2,-2,0
679,-3,-2,-1,0,-3,-2,-1,-5
687,1,-1,-1,0,1,0,1,-2
687,-1,0,0,-1,0,0,-1,8
702,-3,0,0,-1,-2,-1,-4,-2
702,-1,1,-1,0,0,-1,1,0
725,-2,-2,-2,-3,-1,-2,1,-3
725,0,-1,-2,-1,0,-1,-2,-6
727,-1,-2,-2,-1,-2,-2,-1,5
727,-2,-1,-1,-1,-1,-1,-5,-10
728,1,0,-1,-1,-1,-2,1,12
728,1,2,-1,0,1,-1,0,-1
748,-4,-4,-1,-1,0,-2,-6,1
748,4,0,0,0,1,4,9,-5
749,-3,1,1,-1,0,-2,-1,-1
749,-1,0,0,-1,-2,-1,-4,2
762,-3,-1,-1,0,-1,-1,0,-5
762,-4,-1,0,0,0,-1,-4,1
769,1,-1,0,-2,0,1,0,0
769,-3,-1,1,0,-2,-2,-1,-5
785,-3,0,-1,-1,-1,-1,0,-4
785,-2,-2,-2,-1,-1,-2,-3,2
787,1,-1,-1,0,-2,0,1,-2
787,-2,-2,-2,0,-4,-1,-1,-3
807,-1,-1,0,-1,-2,-1,0,-2
807,-2,-2,-1,-2,-1,-1,0,1
809,0,-2,-1,-2,1,-1,0,-1
809,0,-1,-2,-2,-2,-1,-4,-3
830,-1,0,0,-1,-2,-1,3,-3
830,0,-2,-1,-2,-2,-2,-2,5
831,0,-1,-1,0,-1,0,1,-2
831,-2,-3,-1,-1,-1,0,-1,-3
844,-3,-1,-1,-1,-1,-1,-3,8
844,-1,1,0,0,0,-1,0,-1
846,-4,-2,-3,-2,-2,-3,-4,-1
846,-4,-2,1,-1,1,-1,-1,-1
858,-3,0,-2,-1,-2,-1,3,-3
858,-2,-2,0,0,1,-1,-3,-2
867,-1,0,-2,-2,-2,-1,-2,1
867,-2,1,-1,-1,-3,-1,-1,-4
882,2,0,-2,-2,0,-1,-1,0
882,2,0,0,-1,-3,-1,0,1
889,-2,-1,-1,-1,0,-1,-7,-23
889,1,0,-1,-2,2,1,5,33
929,0,-1,-1,0,-1,0,-2,-2
929,0,-1,-1,-1,-2,-1,-1,-9
930,-3,-1,1,-1,-3,1,0,4
930,-1,-1,-2,-2,0,-3,0,-9
931,-2,-2,-3,-1,0,1,-4,-13
931,-2,-1,-1,-1,1,-2,1,5
935,0,1,1,1,-1,-1,0,2
935,-1,-2,-2,0,-1,-1,-2,-1
942,-3,-1,0,0,-1,0,3,-7
942,-1,-2,-2,-2,-2,-1,-4,-5
949,-1,-1,-2,-2,0,0,-4,-26
949,-2,0,-1,-2,-1,-1,5,24
965,-2,-1,0,0,-1,-1,-1,-5
965,2,1,1,-2,-2,1,-1,6
966,1,0,0,0,-1,-1,2,7
966,0,-1,-2,-1,-1,-2,-4,-14
979,0,-1,-1,-1,0,-1,-3,2
979,-4,-3,-2,-2,-1,-3,-3,1
988,-1,-2,-1,0,-2,-1,1,3
988,0,1,1,0,-3,-1,-1,-12
1010,2,1,0,-1,-3,-3,1,22
1010,1,0,-1,0,-1,-1,-2,-9
1011,-3,-3,0,-1,-1,-1,-5,-14
1011,-2,-2,-2,-2,-2,-1,3,22
1024,6,1,-4,0,-3,2,-1,-14
1024,0,-2,-1,0,-1,-2,0,15
1032,-6,-1,0,-1,-2,0,-2,7
1032,5,1,1,0,-2,-1,-6,-31
1039,-1,-1,-3,-1,-1,-2,3,23
1039,-4,2,-3,-1,-1,0,-4,-5
1048,2,-4,1,0,-1,-3,0,6
1048,-2,-3,-1,-1,0,-1,-3,-17
1062,0,-1,2,-2,-1,-2,-6,-7
1062,0,-1,-2,-1,-1,1,1,-6
1064,-2,0,-4,-2,-2,0,3,11
1064,1,1,0,-1,-2,-2,0,15
1083,-3,-3,-3,-1,-1,-1,2,-9
1083,-5,-3,-1,0,1,2,-5,-7
1098,14,3,1,-1,0,0,-3,5
1098,-2,-1,0,-1,-2,0,-2,8
1107,2,1,0,-1,-3,-2,-2,10
1107,-3,-1,0,-1,1,1,1,-7
1108,-4,-2,-2,-1,0,0,-2,-4
1108,-1,1,1,-2,0,-1,1,2
1130,0,-6,7,-4,0,-1,4,24
1130,-3,-4,-6,1,-3,-1,-9,-30
1132,-3,-1,-1,0,-1,-1,-10,-22
1132,-4,-1,-10,-4,-2,-3,8,36
1144,-2,3,12,2,1,1,0,-11
1144,-2,-3,1,0,-1,-5,2,6
1153,0,0,-4,-1,-1,-1,-1,-2
1153,-5,-1,-1,2,0,-1,-4,-16
1167,0,-6,0,-3,-1,-3,0,27
1167,9,2,-9,-2,0,1,5,11
1168,-7,0,-1,0,-2,-2,-12,-37
1168,4,-7,-15,-3,0,3,-6,-21
1190,-5,-3,-4,-1,-3,0,3,7
1190,-1,0,2,0,-2,-2,2,8
1192,-2,-2,2,-2,-1,-1,-1,14
1192,-3,0,-30,-5,-2,-1,0,17
1212,-8,-8,27,4,1,-3,-11,-63
1212,9,-1,-3,-1,-3,-4,-3,61
1213,3,1,-3,-2,2,4,21,37
1213,-3,-2,1,-2,-3,0,-1,-1
1227,1,-6,-25,-4,1,2,-1,-24
1227,-3,8,5,3,-2,-2,-4,-19
1230,-7,-3,1,0,-2,-6,-9,1
1230,17,8,8,3,1,5,7,-23
1250,-8,-3,-6,-2,-3,-4,2,13
1250,6,-1,2,-3,-3,-1,6,-9
1252,-1,0,-6,-2,-2,-2,-5,16
1252,-7,-4,6,2,4,1,-3,-51
1264,11,6,-16,-1,-3,-1,0,3
1264,-4,0,0,-3,3,-1,0,-2
1273,-3,-1,8,-1,-7,0,2,-6
1273,4,-9,-9,-4,-1,-4,1,44
1287,-1,4,-3,1,0,-2,-8,-36
1287,-7,0,0,-1,-1,0,-9,-31
1293,2,1,-1,9,9,3,14,43
1293,-7,2,16,-12,-12,-1,-4,-16
1310,0,-3,-10,0,11,-3,0,14
1310,3,-5,-10,7,-8,-3,-4,-38
1312,-3,-5,-8,-14,-4,-8,-3,-2
1312,-16,-1,5,8,3,2,-15,-46
1323,3,6,23,-2,-3,0,16,76
1323,-3,1,6,5,7,2,-1,-24
1332,-14,-5,-2,2,1,-2,-1,0
1332,1,2,5,-2,-1,-3,-1,13
1347,5,2,-9,-1,-3,-4,-8,-18
1347,4,-4,-1,-5,-2,-4,-2,11
1348,-4,1,3,-3,-2,0,3,6
1348,-1,-3,-2,-2,-1,-2,-2,4
1370,1,2,-1,0,-1,2,-10,-29
1370,-6,-4,0,10,5,3,10,27
1371,-2,0,0,-16,-13,1,-5,-42
1371,12,3,3,24,24,4,10,52
1383,-2,0,1,8,9,2,4,-3
1383,-7,-1,6,-33,-24,-4,-2,36
1392,22,4,-13,-13,3,1,-1,-13
1392,-4,-4,-23,23,12,3,-2,-13
1408,-16,-3,23,22,-8,3,2,-10
1408,4,-5,-11,-7,3,-9,-6,-6
1409,0,1,-22,-17,-8,-2,-8,-15
1409,0,0,11,-17,-12,-6,-4,1
1430,-4,-9,0,-5,27,-6,-8,1
1430,-3,12,4,31,-15,8,11,-18
1432,-2,-11,40,13,0,0,3,-1
1432,-5,-5,-26,15,1,-1,0,22
1444,-2,-5,-36,-73,-15,-8,-16,-39
1444,-3,-7,27,27,2,7,11,23
1453,8,12,-13,-35,11,1,9,-14
1453,-31,-35,-46,-4,-5,-7,-13,-30
1467,0,-8,38,23,10,5,15,17
1467,53,55,14,-12,-3,-6,-10,14
1474,12,46,27,73,16,5,13,-3
1474,-18,-31,7,-81,-43,-4,-2,-74
1498,-6,-22,-49,16,29,10,-11,-35
1498,-2,-8,49,63,-6,-2,-3,-5
1499,-16,13,35,-38,-31,-14,-1,38
1499,-13,-30,-76,-31,7,0,-19,-36
1503,24,5,-15,23,22,16,23,42
1503,-24,7,58,29,-3,-1,-5,-17
1518,17,-41,-30,5,17,4,4,21
1518,22,30,29,52,7,-3,10,41
1527,27,32,20,-3,-40,-21,-3,3
1527,-18,-50,-38,-34,15,-5,-31,-43
1533,-13,-42,11,-19,-12,-2,6,-13
1533,39,69,11,33,23,16,27,50
1550,4,-53,-16,61,25,12,21,21
1550,-27,1,-17,6,-13,3,-17,-77
1552,-56,-85,-27,-80,-73,-41,-39,-12
1552,21,19,35,14,6,-3,-4,-13
1564,5,2,17,-2,-33,-2,24,73
1564,-13,14,-37,-17,19,-9,-5,-30
1573,-6,14,-36,-7,25,11,-16,-70
1573,13,-8,49,69,11,21,4,3
1587,-15,-3,82,21,1,-12,1,37
1587,-2,27,-10,25,22,0,5,-15
1594,-5,-18,54,5,-55,11,12,65
1594,8,8,-32,-84,-4,-8,-14,59
1610,-31,-28,8,0,-27,-9,-22,-124
1610,56,54,-74,24,61,16,60,101
1611,-6,17,-17,41,-25,15,-16,-45
1611,18,-15,45,30,1,-18,7,-65
1632,10,20,-41,17,58,41,-27,-1
1632,-9,-43,-54,-56,-34,50,37,45
1640,-10,-42,74,-9,-14,-63,24,-43
1640,-26,16,80,47,-36,49,2,-7
1647,37,98,62,17,-25,-128,-122,-62
1647,-26,21,49,34,-58,-94,-94,-128
1653,71,-9,-74,-54,40,49,73,127
1653,-106,-128,-96,-50,-10,-5,-26,-107
1670,-13,-44,4,-1,19,57,53,-56
1670,60,6,57,32,46,67,21,-43
1672,-32,-23,-77,52,42,18,7,28
1672,-18,-66,-29,-124,-4,-16,30,4
1700,-46,-14,66,18,-21,29,-9,19
1700,-24,-50,-19,-72,-16,-2,-10,-25
1707,13,29,-62,-47,-6,-12,43,-10
1707,-27,-69,68,59,17,-44,-2,53
1708,95,74,49,12,-14,-6,-33,-18
1708,-10,32,87,34,-4,2,-45,-76
1731,29,19,-55,-33,3,30,9,11
1731,-27,-17,38,90,76,67,25,73
1731,-86,-120,-128,-119,-39,-50,-29,-68
1731,31,2,15,45,54,90,80,127
1732,46,30,4,-13,-13,-8,57,34
1732,15,41,-37,-36,-92,-112,-36,3
1753,-11,1,-14,-19,-64,-90,-65,-82
1753,-16,-16,-24,2,46,41,4,-100
1754,-28,-6,28,55,23,-41,-12,-4
1754,41,28,-1,-90,-41,55,47,19
1775,6,20,-20,-17,-12,-6,-4,68
1775,-17,-55,-43,-36,-8,-26,-30,48
1777,-1,41,91,90,57,36,-20,-30
1777,9,19,-13,28,32,21,13,-36
1789,-9,-13,16,52,55,68,46,-2
1789,12,-24,-23,-27,-27,-15,-2,37
1791,-5,0,28,24,51,116,-34,-32
1791,20,39,-6,8,54,-42,42,-83
1820,-22,-27,-62,-88,-101,-30,36,62
1820,26,-13,22,-2,-10,-105,-26,64
1821,-70,-35,-16,-57,-45,-59,-52,-128
1821,35,-9,-27,-22,-16,71,-49,-27
1826,25,62,58,60,83,65,52,-20
1826,-26,-11,-3,-28,-33,-31,22,2
1841,0,3,3,41,-38,-68,-47,46
1841,-30,-9,-20,-2,8,-25,-40,-52
1850,4,-16,-19,-4,59,112,55,12
1850,-1,9,-4,-2,1,-72,18,24
1852,-3,-11,2,-9,-29,-12,73,12
1852,-1,6,7,-11,-76,-108,-91,-35
1873,1,-11,-35,-7,-7,-40,-57,-33
1873,7,-8,-13,0,33,69,3,29
1874,0,11,18,53,77,118,33,-25
1874,5,12,10,-47,11,43,100,-31
1886,9,-5,28,56,-27,-42,10,-37
1886,-33,-6,9,-15,-93,-101,-84,-38
1895,7,-31,-12,-20,4,-48,-45,18
1895,6,31,-7,10,26,76,-7,23
1910,-4,-18,-5,-12,56,51,40,38
1910,1,9,-6,21,8,13,72,27
1911,1,-3,2,-5,-39,-65,-58,-2
1911,-3,9,-18,-2,-11,-7,-13,-14
1940,-2,-10,2,18,37,18,18,67
1940,-12,13,5,-65,-59,2,-16,-63
1941,0,11,-9,-6,-1,18,-7,-51
1941,29,6,2,-13,36,50,26,59
1946,-3,3,-5,7,33,4,49,18
1946,-8,-20,-12,22,-5,-12,-28,-20
1955,2,3,6,-64,-84,-94,-59,-50
1955,-13,-9,11,42,5,-35,-41,-75
1970,14,4,-10,-46,0,73,21,19
1970,-4,-8,4,21,42,-9,30,-41
1971,-1,13,9,10,4,19,38,-20
1971,3,-5,14,39,-23,-65,-34,27
1992,-20,-19,-45,-9,-8,-16,-64,-80
1992,-5,-8,14,34,54,50,10,-20
1994,16,20,0,-49,-49,34,0,-76
1994,-8,0,24,-4,-13,-6,21,43
2006,14,15,-32,-26,-26,-25,13,-33
2006,-9,-14,-9,-5,19,-9,-6,-45
2015,-14,-13,3,78,20,2,-18,-21
2015,25,0,-4,12,21,39,-10,-19
2030,-19,-2,4,0,-10,-9,3,-128
2030,23,10,17,15,1,-13,39,127
2031,0,-9,-28,-63,-51,-30,-20,-23
2031,2,6,4,57,2,-34,-15,76
2051,-16,-6,-1,32,0,-15,-1,-24
2051,10,3,-8,-58,-40,42,3,59
2060,-3,-6,-5,-17,47,116,17,15
2060,3,15,10,38,56,-19,51,3
2066,-15,-15,-7,-49,-89,-104,-30,24
2066,-20,-13,-13,9,-27,-65,-90,-127
2083,8,-12,8,31,45,-7,21,101
2083,10,-17,-11,-39,-36,35,26,31
2090,31,57,29,36,50,57,15,28
2090,-5,6,-1,6,20,49,28,-113
2091,-10,-5,2,17,2,-20,-14,1
2091,-28,-13,0,-20,-19,-17,-39,-110
2112,-45,-36,-4,2,-14,-33,-26,-57
2112,59,13,-18,-77,-43,31,43,2
2114,11,22,7,28,48,13,14,-128
2114,-11,3,-16,11,-3,10,25,42
2126,-69,-34,-10,-53,-37,-37,-90,-103
2126,25,20,-3,17,14,12,27,-64
2135,10,-3,10,28,17,-13,-11,-48
2135,8,7,-2,-29,-14,-9,-4,-32
2149,38,12,4,-2,4,15,27,120
2149,-34,-9,-9,34,40,21,7,-43
2151,-7,-43,-1,-39,-36,-20,7,59
2151,6,27,-4,13,16,9,-26,-36
2173,10,4,-3,3,0,17,10,82
2173,-8,-12,17,11,27,-5,2,28
2174,5,23,-12,-36,-29,-4,24,55
2174,-8,-14,-6,-14,5,-9,-26,-7
2186,35,28,23,40,32,26,56,-42
2186,-10,-26,-29,-20,-18,2,-6,91
2195,2,23,24,18,3,-15,-39,-18
2195,-6,-19,41,34,12,21,53,-25
2217,7,5,7,-13,-14,-3,11,-3
2217,-7,-11,-23,-13,-18,1,-9,12
2219,-2,-4,6,22,27,-27,-14,11
2219,4,8,-22,-45,-35,-2,-9,-28
2240,-22,-20,-13,-5,4,2,6,2
2240,0,1,4,-4,3,-4,-8,-8
2241,-2,5,2,31,25,12,5,9
2241,0,19,5,-10,-9,-8,-2,-33
2246,-9,-19,-28,-36,-10,-9,-15,-23
2246,3,-19,0,27,12,4,16,23
2255,8,7,20,7,-10,4,1,-22
2255,-13,-13,17,17,7,1,-14,1
2270,2,-9,-23,-14,4,-1,6,7
2270,-7,10,-18,-32,-19,-17,-12,-2
2283,-8,-17,27,27,-6,-25,-7,-31
2283,14,27,-28,15,18,9,25,38
2292,14,70,31,-10,2,7,-12,16
2292,4,10,-33,-28,8,24,-2,-19
2293,-16,-27,20,30,7,11,10,-15
2293,3,11,18,10,-9,1,9,-5
2306,22,0,1,20,4,-9,-30,44
2306,-20,2,-39,-20,-22,-18,11,-65
2323,-25,-19,-90,-106,-28,-29,-21,-8
2323,5,-64,-3,-9,-5,8,13,35
2330,57,95,103,104,7,3,5,-8
2330,0,3,16,20,3,1,-1,38
2332,-27,-20,28,42,22,24,-50,-109
2332,-20,-7,-93,-92,-13,-11,19,13
2353,3,-33,1,-4,1,4,18,14
2353,24,48,122,111,21,3,-1,36
2354,4,22,-1,9,8,-2,6,25
2354,-10,-5,-46,-66,13,26,-30,-57
2366,6,19,10,-10,-5,4,14,-8
2366,-21,-23,-55,-78,-57,-56,-20,-41
2375,25,4,23,35,16,10,21,85
2375,-6,9,29,18,3,-22,-21,-21
2389,-17,-51,-39,-33,-9,10,13,2
2389,-5,-5,-27,-39,12,24,-1,-27
2396,9,20,5,-16,-5,5,5,4
2396,-2,1,8,33,-10,0,9,-3
2413,-33,-44,2,-43,1,-18,-18,-10
2413,14,11,27,52,8,-11,-8,20
2414,0,-5,-24,-17,2,5,-3,-16
2414,0,0,29,23,5,8,9,40
2426,-8,-15,5,35,29,38,8,-30
2426,-12,-11,-3,-4,23,5,-5,-9
2435,5,-3,-12,-52,-70,-14,23,20
2435,2,-2,19,37,-18,-64,-29,-9
2449,-22,9,-34,-37,-2,4,-7,-14
2449,12,-4,-11,-25,21,14,-1,-16
2456,-11,8,28,84,39,31,9,-50
2456,-3,-18,19,22,-33,-27,0,-23
2473,11,-18,-24,-17,-18,-19,-14,6
2473,-18,-32,1,-6,10,22,-10,-21
2475,40,72,1,10,17,10,25,25
2475,-10,3,0,-18,-8,3,-6,-2
2494,-13,-39,3,18,-5,-21,-10,-12
2494,2,1,-2,-3,-14,8,-8,8
2496,-3,-15,-16,-23,4,-31,-6,6
2496,0,-3,3,10,45,84,9,5
2509,5,-17,-16,-11,-21,-50,12,9
2509,10,-59,9,16,-25,-33,-18,10
2516,-15,16,-13,-36,-12,2,-15,-6
2516,-2,-14,8,5,5,-6,-5,14
2533,-1,1,-4,10,-22,26,4,-9
2533,-20,-16,15,-11,-9,-30,0,6
2534,-19,-50,-18,1,28,43,-5,1
2534,18,21,17,0,4,-12,1,-32
2546,-2,5,-4,7,13,25,17,55
2546,3,26,6,2,-9,-4,-19,-44
2556,9,-1,0,2,-12,-29,7,33
2556,-41,-15,-14,-14,-12,-19,-19,-56
2577,67,27,14,16,17,14,31,68
2577,14,24,9,5,16,27,14,-4
2578,0,-14,-3,-9,-16,-3,8,-45
2578,-16,-16,-23,-7,-10,-37,-20,-16
2593,-12,5,14,7,10,3,2,-28
2593,-1,9,3,-3,-11,3,-22,12
2594,-3,-16,-12,2,16,6,2,-20
2594,14,21,6,21,-12,-12,12,13
2615,-18,-7,-3,-46,-23,23,-23,-4
2615,-12,-10,-2,-6,-18,-28,5,33
2617,-15,-8,-5,2,-5,-14,-24,-25
2617,11,10,-13,7,13,2,-6,-29
2629,-14,-10,-3,2,11,-6,-10,-69
2629,-11,-11,-5,5,6,24,15,47
2636,9,15,-19,-6,-9,-4,-6,43
2636,16,-2,-1,-3,10,17,26,35
2652,-9,11,7,11,18,12,-12,-73
2652,3,3,-7,-16,-28,-24,7,14
2658,-3,-4,7,3,-16,-44,-18,-7
2658,6,6,5,-17,1,9,-4,26
2675,-8,-10,-7,10,18,5,-1,9
2675,2,11,21,48,42,59,17,-17
2676,35,-6,2,-34,-66,-34,0,7
2676,-25,-2,-10,-16,-67,-48,-32,-24
2688,-32,-9,-7,-14,-27,-2,-8,-7
2688,21,6,0,16,28,6,5,4
2698,3,-1,2,12,39,39,16,-12
2698,2,2,5,-16,7,7,2,9
2713,15,0,1,17,7,-12,-1,19
2713,7,7,0,1,-7,-10,-3,4
2714,-10,-9,-51,-87,-3,-17,-5,10
2714,11,3,29,42,19,14,12,7
2735,-11,17,26,59,14,-1,-9,-9
2735,-23,10,-13,6,8,-5,-7,-37
2736,-2,-26,-2,-4,-1,2,3,2
2736,-10,33,-9,-34,6,9,-9,13
2749,6,-7,-9,-39,-20,10,14,-41
2749,-6,13,12,34,-13,-50,-2,16
2757,-16,2,-18,-14,5,-8,-27,-37
2757,1,-13,17,-2,11,31,13,-4
2773,6,-11,10,32,4,-18,-7,26
2773,-14,-10,-17,-33,-10,13,-3,-18
2774,0,7,-2,-5,10,15,14,-19
2774,16,-4,20,25,18,16,16,19
2794,-6,-2,-18,3,-19,-24,-17,-1
2794,16,-13,-2,-21,-17,-10,1,-1
2797,-9,9,13,18,5,3,0,22
2797,-4,-3,-18,-18,-1,11,8,12
2808,-7,1,-6,-18,4,-7,-5,-20
2808,7,-5,-2,-15,-6,-12,-15,-16
2817,-2,-3,22,38,0,10,20,11
2817,-4,1,-6,9,3,-5,-9,-8
2833,8,-5,-1,-10,-5,-10,7,9
2833,-9,-6,-20,-13,-5,-2,-18,-3
2834,-3,3,14,23,4,-3,-2,6
2834,1,-1,-2,6,0,-1,5,0
2854,-3,-4,-9,-8,-4,-10,-21,12
2854,1,-4,-2,-23,10,21,23,-8
2857,0,4,-3,3,7,14,7,9
2857,-3,-11,10,5,-17,-29,-9,-6
2869,4,-1,-9,-6,-7,-10,-10,9
2869,-3,8,2,-3,0,19,0,-1
2878,-2,4,3,8,5,-8,-8,2
2878,-2,-5,-1,-11,3,4,5,-3
2893,-16,-6,-11,-7,-5,-16,-1,4
2893,24,-2,2,3,-15,-7,-2,-1
2894,11,5,8,14,-8,-7,-5,1
2894,7,3,-21,-32,7,18,-1,1
2922,-1,0,14,11,-1,4,11,10
2922,-9,-9,3,19,5,-12,-10,-11
2923,1,-1,2,3,8,20,6,-2
2923,0,1,-6,-2,-3,-2,-6,-1
2928,6,4,0,-13,6,-4,3,2
2928,-11,-5,-7,-11,-14,-5,7,2
2938,-2,-3,0,-2,-7,-20,-8,-1
2938,1,1,7,19,15,14,11,0
2953,3,2,-5,-7,19,32,10,-1
2953,-3,1,8,-2,-20,-13,2,-2
2954,-6,-4,-4,-6,-21,-21,-11,-3
2954,4,-3,-3,6,2,-12,-12,-3
2976,5,2,-1,-14,2,7,3,3
2976,-4,-9,-5,-2,14,6,-3,-1
2977,9,17,4,16,13,23,12,11
2977,3,-3,14,7,-18,-16,2,1
2989,-8,-5,-17,-3,-12,-20,-22,-14
2989,-7,-4,-2,0,17,23,7,3
2998,-4,-7,4,-19,-2,11,5,-2
2998,1,4,-15,5,-2,-13,3,4
3012,-7,-5,7,2,-12,-23,-8,-5
3012,-4,1,0,3,6,10,-1,-3
3013,-3,-4,0,9,24,11,-2,6
3013,0,6,-1,-14,-17,1,-7,1
3050,2,-5,-1,-11,-23,-18,9,1
3050,-2,-1,-21,-13,19,8,-7,-4
3052,1,3,25,9,-21,-15,-3,-4
3052,-3,-5,-9,3,-6,-1,-8,-4
3053,2,-2,7,7,-2,-16,-1,0
3053,4,1,-2,6,0,-1,-1,2
3057,-5,-4,-11,1,18,21,8,-4
3057,7,2,1,-3,4,13,5,3
3073,-3,3,9,0,-7,6,3,5
3073,-2,0,-4,-9,0,-8,-1,1
3074,-4,-7,-8,-15,-4,-6,-4,-4
3074,-6,-6,5,13,1,-11,-3,-3
3095,3,6,3,5,4,12,2,-2
3095,2,-1,6,5,-1,-3,-4,9
3096,-13,-4,-4,2,-15,-21,-4,-8
3096,-6,-9,-8,-8,4,-5,-6,-14
3109,1,-3,-10,-9,14,20,7,7
3109,-1,3,17,7,-2,10,6,-3
3117,-6,-4,-12,0,-12,-17,-1,-6
3117,0,1,7,-2,-3,-13,-9,0
3132,1,-1,-8,-12,5,10,1,-3
3132,2,0,2,-1,-7,1,4,0
3134,4,-1,2,-6,4,-2,4,2
3134,-4,-6,-9,-2,-4,-8,1,6
3155,6,12,6,12,-6,-20,-17,-13
3155,1,1,2,2,-1,-2,-1,-6
3156,2,1,3,4,11,16,0,7
3156,-1,2,-3,-4,7,12,5,-1
3179,-8,-12,-3,-2,2,4,8,4
3179,-1,-5,-6,-3,-21,-28,-10,-2
3181,11,10,0,-3,-3,2,-3,-5
3181,-1,-1,-3,-6,-2,5,-1,2
3185,-3,0,9,5,11,8,9,8
3185,-1,-1,-6,0,12,26,6,-2
3193,-2,-3,-4,-6,-17,-25,-11,-3
3193,-1,0,0,-1,-11,-16,-8,-1
3207,0,-4,-4,0,4,6,1,0
3207,0,0,1,-7,6,13,4,1
3208,-2,-4,2,4,2,2,5,2
3208,-4,6,-4,17,-10,-9,-8,2
3222,-3,-2,-4,-16,-11,-8,-9,-3
3222,-4,0,-2,-2,-2,-5,-3,1
3228,-1,-3,-2,-2,20,35,8,0
3228,4,5,5,-10,-4,-26,-7,-1
3253,1,-3,-4,1,-21,-18,-6,1
3253,-5,-5,-9,-21,-5,-17,-12,-6
3254,1,1,10,6,1,5,3,-1
3254,-6,-11,-3,14,22,29,8,6
3275,2,6,3,8,14,19,6,-9
3275,3,4,-1,-9,-23,-32,-11,-3
3276,-3,-3,0,-9,-16,-23,-16,-6
3276,-4,-7,-4,3,-6,-5,1,-4
3282,0,-6,-7,5,9,7,0,-1
3282,-2,1,5,7,9,20,2,1
3289,-6,-2,-5,2,5,10,0,-1
3289,-3,5,2,-9,-4,2,5,0
3304,-4,-7,-6,2,-15,-30,-5,-1
3304,5,6,4,19,12,18,2,-2
3311,3,0,0,2,-13,-15,-5,4
3311,-1,-1,-6,-14,-5,-11,-7,-11
3328,0,0,-6,-17,-6,3,-9,4
3328,-4,-5,4,2,-1,-4,8,-9
3329,-1,0,-3,11,3,-3,-4,-5
3329,-2,-2,4,7,10,16,7,0
3341,-2,-2,0,3,1,5,4,3
3341,-1,0,-3,-10,-2,1,-7,-3
3350,-2,-9,-5,-10,-3,3,5,1
3350,3,8,3,7,-10,-20,-5,-6
3365,1,2,-1,1,6,10,-2,-5
3365,-6,-1,1,7,11,7,1,0
3371,12,1,-7,-10,4,16,5,3
3371,-2,-7,-3,-8,-21,-20,-6,-2
3387,-5,-5,2,-5,-12,-21,-7,-6
3387,1,-4,-12,4,10,7,4,4
3389,-3,2,-4,-10,8,8,1,-1
3389,2,2,0,-14,-1,10,-5,2
3410,-2,1,3,5,-7,-14,2,7
3410,-6,-9,-4,-1,-9,-13,-5,-13
3411,-2,6,-3,3,3,-1,0,2
3411,0,0,2,-5,10,19,3,1
3432,0,1,-8,-10,-5,4,-3,-2
3432,-1,-5,1,3,-9,-5,1,4
3434,-1,1,-4,4,-8,-20,-5,1
3434,-1,-3,-3,-5,3,5,-6,-7
3463,-1,0,0,-2,-3,4,-6,1
3463,-1,-7,-1,-12,1,0,-1,4
3465,1,6,2,10,-6,1,2,-3
3465,-4,-6,-4,4,0,-6,1,5
3465,-2,-1,4,3,1,-8,-7,-9
3465,0,-3,1,2,-4,1,4,2
3470,-3,-2,0,-9,9,17,1,-4
3470,1,-2,1,18,-10,-11,4,3
3484,-4,-7,-8,-6,4,-1,-1,1
3484,1,5,-2,2,-2,-3,-3,-2
3491,1,-1,3,-2,-1,6,3,1
3491,0,4,-4,-9,3,6,-9,-2
3508,-3,-8,-1,-14,-8,-10,0,-2
3508,0,1,-9,-2,-3,-11,1,3
3509,-1,-4,11,22,4,3,-3,-2
3509,4,8,3,2,9,11,1,-2
3530,-1,0,2,7,4,9,4,0
3530,2,5,-1,-10,-4,2,-4,1
3531,-3,-7,-4,-16,-21,-23,-8,-2
3531,-2,-5,-8,-3,-5,-16,-1,-2
3552,-1,1,-1,-3,11,16,1,0
3552,1,1,10,4,2,0,3,3
3554,-3,4,-11,-6,-7,-2,-1,-4
3554,-5,-5,6,7,-4,-8,-4,-1
3568,4,3,-4,-5,-2,-4,0,0
3568,4,6,1,0,-1,-1,-1,0
3573,-2,-2,4,4,11,19,3,-1
3573,1,-3,-4,-16,-6,0,1,1
3590,-2,-1,-4,5,0,-1,5,2
3590,-5,-6,0,7,0,-4,-6,-6
3596,-3,-3,5,-6,-8,-6,-4,-2
3596,0,0,-6,-6,4,3,-3,-4
3613,-2,3,4,6,-5,-16,-3,-1
3613,-2,-1,-6,-22,-5,-2,-1,0
3614,-5,-6,-4,20,9,-1,-2,0
3614,-2,-3,1,3,5,19,4,-9
3626,2,-1,-1,-3,0,3,2,2
3626,-3,-1,3,4,6,-6,-2,-2
3633,-5,-4,-5,-17,-12,-13,-1,-2
3633,4,0,2,-3,-16,-12,2,2
3641,-6,0,7,17,5,3,-9,3
3641,-2,-6,-7,-1,1,7,-1,-3
3650,1,2,3,5,7,3,-4,1
3650,-3,-2,-4,-3,8,8,1,3
3664,0,0,-3,-11,-4,7,1,-1
3664,-1,-3,4,2,-8,0,1,-1
3671,-4,-5,-17,-18,-14,-24,-6,-4
3671,0,-2,8,4,-3,-12,-3,2
3687,-2,4,0,4,6,8,2,-9
3687,1,-1,-1,-1,2,7,2,0
3693,2,1,3,6,0,8,1,-2
3693,-3,2,-4,-2,-3,-8,0,-1
3701,-1,-2,-4,-1,2,1,-2,0
3701,-3,-1,-2,4,1,8,4,0
3727,0,-1,-1,-5,4,-3,-2,0
3727,0,0,3,-3,13,15,0,0
3727,0,3,7,1,-21,-22,-4,-2
3727,-4,-7,-10,-3,-25,-29,-10,-3
3730,-3,-6,2,9,4,-9,-9,-5
3730,3,3,-2,7,10,11,-1,0
3755,2,-4,1,-5,9,12,7,2
3755,-1,4,0,-3,4,5,3,2
3757,0,-1,2,4,-2,3,3,2
3757,-1,-3,-2,-2,1,11,3,0
3770,1,-2,-5,-8,-6,-4,-2,-2
3770,-1,-4,1,-6,0,-13,0,-1
3772,1,2,5,6,-4,-6,-6,-2
3772,-3,0,-4,0,-9,-13,-2,-2
3784,-4,-2,-3,0,4,8,3,0
3784,-2,2,-5,-14,-10,-14,-8,-2
3791,-1,-5,1,-2,7,2,5,3
3791,0,2,-6,21,9,10,2,2
3807,5,7,6,6,1,-1,0,-6
3807,0,-2,5,7,-5,-4,1,-1
3814,0,0,-7,-10,1,5,-3,-2
3814,-6,-4,-6,-11,-11,-10,-6,-2
3830,-1,-6,-6,-3,4,4,5,6
3830,0,-2,-1,-2,7,12,-1,-1
3831,3,2,3,-12,-11,-13,0,-1
3831,-4,-7,-4,7,0,-5,-8,-3
3844,-1,-4,-8,-3,0,4,-2,-3
3844,2,1,6,9,6,9,5,-3
3851,-3,0,1,12,6,1,0,-3
3851,-1,1,0,-18,-4,2,4,-1
3867,-4,-4,-4,-10,-13,-24,-5,0
3867,1,-1,-5,9,-2,-13,-10,-3
3873,0,-1,2,10,10,23,5,0
3873,0,0,0,-7,-5,-5,1,-2
3889,-1,2,2,-16,-17,-14,-4,-1
3889,-1,0,-7,-4,7,3,-2,0
3892,-1,-4,3,9,5,3,-4,1
3892,2,11,1,-1,4,5,0,1
3912,-1,-6,-2,2,4,12,4,2
3912,2,2,-2,-8,-6,0,-2,-1
3914,-1,-2,4,5,-14,-27,-5,-3
3914,-2,-7,5,12,0,-5,-5,-2
3927,0,-5,-4,6,11,8,1,0
3927,-1,0,-2,-15,-7,-10,-8,-1
3934,-1,1,-2,6,-3,14,8,4
3934,-3,-4,-4,-7,-4,-17,-1,-3
3950,0,1,1,0,3,-1,-7,0
3950,-4,-2,2,4,-3,9,2,3
3952,-1,1,-5,-10,2,2,0,1
3952,0,-2,2,-2,-3,1,0,-2
3973,0,-1,0,-14,-8,-4,1,-1
3973,-1,2,-5,12,3,-4,-1,0
3974,-5,-3,5,4,2,-4,-2,-5
3974,0,-4,-2,-9,9,22,7,2
3987,-1,7,-1,-3,-6,-9,-4,-4
3987,-2,-4,3,-4,-10,-15,-3,-3
3994,1,1,-9,-7,-6,-6,-5,1
3994,2,-2,-2,-1,0,0,-1,-2
4010,2,2,2,5,5,9,1,-1
4010,-1,-1,4,5,4,1,2,1
4011,-1,-2,-6,-4,-3,5,6,-1
4011,-2,-1,-2,-6,-7,-11,-7,-2
4033,-3,-2,-1,0,-5,-4,-2,-2
4033,-4,-2,-2,-2,3,2,0,-3
4034,-3,-2,-1,-3,4,2,-4,-1
4034,-2,-1,-3,-2,-4,-1,3,-2
4055,-2,-1,-8,-11,-4,1,-2,-1
4055,1,-1,4,10,9,5,1,0
4056,2,0,9,-8,-8,-4,-1,-1
4056,-1,0,-6,8,3,1,-3,0
4077,-2,-3,0,12,2,-7,-3,-4
4077,-1,-2,-4,-14,-4,4,0,0
4083,-1,-1,-4,-2,0,-1,0,-4
4083,1,1,0,-9,-2,0,0,1
4091,0,1,7,25,6,-4,1,2
4091,-3,-4,-4,-4,-6,-6,-4,0
4101,-1,-2,-2,-6,-2,-1,-2,6
4101,0,3,-1,-3,-6,-1,0,4
4122,-1,-4,-4,-2,1,9,1,3
4122,-1,3,3,1,1,-1,0,-5
4124,-1,0,-6,4,0,-12,-4,-2
4124,-1,-2,0,0,-2,-6,-4,-3
4138,0,-1,-3,-8,0,1,1,-3
4138,-1,0,-2,2,1,7,1,-3
4140,0,0,-2,-1,5,5,-2,-3
4140,0,-2,-1,-4,-5,-1,-6,-1
4151,-2,-1,-1,-6,-8,-12,-3,-3
4151,-2,-4,-3,-9,-3,-1,-3,-1
4160,-4,-2,-5,-3,0,2,2,0
4160,-1,-1,1,-5,7,-2,2,-1
4175,-1,-1,1,8,-4,2,2,-1
4175,1,-1,3,7,8,8,4,2
4177,3,1,0,-3,0,8,3,2
4177,-2,-2,3,2,-13,-11,-5,-3
4198,-2,-1,0,2,3,-4,-5,0
4198,-3,-2,-3,-11,-14,-7,-4,-1
4199,-3,-1,-2,-1,6,3,0,-2
4199,-1,-1,-2,6,9,23,8,0
4211,0,2,-1,-7,-9,-26,-7,-3
4211,-3,0,-1,9,5,4,0,-1
4220,1,-2,1,1,-3,-9,-3,-3
4220,-3,-3,-4,-2,-1,8,1,-1
4235,-2,-3,-2,-2,7,7,1,-1
4235,2,-1,2,13,6,2,3,2
4237,0,2,-2,-9,-6,2,-1,-3
4237,1,-1,1,0,-10,-16,-4,-1
4258,1,-1,-1,-2,0,5,-1,1
4258,0,0,0,0,9,17,-1,-1
4263,0,-1,1,4,-1,-18,-1,1
4263,-1,-1,-2,-2,-7,-2,-1,-5
4271,-2,0,-3,-6,-5,-7,-5,-2
4271,-5,-1,-3,-4,-6,0,-5,2
4280,-3,-1,14,7,6,6,-2,-18
4280,5,2,-15,-13,2,0,2,34
4303,1,-1,2,9,10,22,10,1
4303,-1,0,-3,-10,-10,-17,-1,-2
4304,1,-3,15,2,-1,7,2,10
4304,-6,-5,5,-5,-6,-11,-4,-15
4318,1,3,-3,-9,-2,-2,-8,1
4318,0,0,4,-8,-2,6,0,-1
4319,-4,0,-15,0,-5,-22,-2,1
4319,-4,-4,-3,4,6,14,4,-14
4331,-4,-3,6,4,4,4,7,-9
4331,4,-1,-2,3,3,-2,5,-6
4340,0,1,-9,-1,-5,-4,-7,-10
4340,-9,-4,4,4,-10,-3,1,5
4354,-9,-4,-10,-4,-7,-1,-6,-20
4354,-4,-3,-3,1,1,-4,-6,-36
4361,-4,12,1,-5,10,9,0,-5
4361,11,-8,9,3,-10,-11,-3,36
4385,7,5,3,17,2,-5,3,41
4385,-16,-11,-6,-23,-17,-12,-4,-41
4386,2,-3,0,11,9,3,1,65
4386,6,6,-2,-9,-5,5,7,-28
4391,-1,-14,-2,-18,0,18,0,-1
4391,-1,8,1,-1,-6,-33,-4,-3
4400,2,-8,-2,0,-1,6,1,14
4400,5,14,2,8,11,2,-5,-59
4414,7,-6,1,4,1,-4,2,61
4414,-4,-1,-1,4,3,6,-5,-11
4423,-1,-5,-4,-8,-8,-1,1,-36
4423,-1,-4,-2,5,12,8,3,57
4445,-1,1,-7,-6,5,-7,-4,-27
4445,3,-5,-12,-19,-29,-10,-2,24
4447,-1,18,12,8,-6,-11,-5,-38
4447,-9,-8,-9,8,-4,0,-15,34
4451,3,4,5,10,12,11,14,-23
4451,3,-1,-8,-44,-7,42,4,22
4467,-9,-9,-13,-8,-16,-47,3,-5
4467,5,1,10,25,11,5,-6,-33
4473,2,11,4,8,2,-13,-11,-11
4473,5,-1,2,28,28,13,-1,13
4481,-1,-2,-4,0,11,27,4,-14
4481,-12,-5,-5,-30,-18,-8,0,-14
4498,-5,-3,-10,-7,-15,-14,-5,8
4498,5,0,4,5,-7,-13,-1,1
4499,-3,-6,-7,-16,-6,6,-9,-24
4499,-4,-6,8,33,26,-4,7,-2
4520,-1,1,-1,-18,-5,51,1,-15
4520,-3,1,1,6,-5,-68,-5,-19
4521,-5,-11,-5,-7,-14,-1,-2,10
4521,8,19,-3,-5,11,22,-3,-13
4534,4,3,0,5,2,-23,-4,-5
4534,-2,-5,0,16,-9,10,-2,15
4541,-1,2,3,-6,0,4,-5,-6
4541,-6,-7,-5,2,0,-9,-7,-6
4557,-8,-7,-10,-22,-2,7,-3,-3
4557,3,9,8,28,18,1,-2,-45
4559,11,-4,-4,-12,-14,-12,6,102
4559,-6,-4,-3,1,7,20,6,24
4580,0,1,-1,-7,5,6,9,11
4580,-2,-6,-1,-9,-22,-6,7,6
4581,3,7,-6,-8,-19,-21,-4,-31
4581,-12,1,-3,-11,-2,-8,-16,-51
4594,6,0,2,11,-2,-6,2,8
4594,0,-1,-3,-5,14,16,0,-14
4601,1,2,3,1,4,17,3,8
4601,3,-1,3,2,-11,-14,4,13
4625,-4,-4,3,8,2,0,-1,-19
4625,-3,2,-1,5,9,22,-3,-14
4627,9,-1,0,10,-4,-14,9,39
4627,2,3,-8,-23,-12,-11,-9,5
4639,-3,-1,-1,-3,-5,-18,-6,-21
4639,-9,-19,-5,-6,4,8,6,-25
4642,-3,16,2,8,6,6,-3,40
4642,13,3,8,28,13,-10,10,29
4653,-22,-20,-18,-51,-33,19,3,10
4653,1,-11,0,0,-5,-25,0,0
4662,21,38,18,24,17,18,-4,-35
4662,-9,-5,-18,-8,-9,-16,-1,-15
4685,-11,2,6,32,16,-9,-26,-37
4685,18,-2,-12,-38,-17,24,12,-9
4690,-11,-12,-2,-8,4,8,5,-9
4690,-19,-6,-8,-11,-10,-16,-12,-66
4699,3,-1,-3,9,-3,-19,1,24
4699,30,19,6,13,16,6,7,-37
4701,-3,-11,-4,-6,-1,7,-6,-46
4701,11,6,4,-3,-4,14,15,1
4713,-21,-8,-11,0,-5,-23,-20,-50
4713,-11,3,33,31,20,-2,-7,41
4722,6,-3,-5,-23,-12,27,6,8
4722,-11,-8,-6,13,0,-29,-10,-6
4737,13,2,-2,-9,-2,4,13,19
4737,-3,8,0,-16,-17,-10,-20,45
4739,-19,-9,-8,9,14,5,-6,-35
4739,0,-6,9,-10,-9,23,8,5
4760,9,18,6,-1,-5,-8,11,0
4760,-13,-9,-18,-1,-3,-20,-15,-31
4761,-1,-9,4,1,-3,-8,-3,-22
4761,4,4,-1,-12,-9,-12,-10,-23
4774,14,-2,7,41,40,29,10,28
4774,-9,7,2,-10,-21,-7,2,-10
4782,-11,-13,-11,-25,-11,-12,-3,-13
4782,8,1,-21,11,20,7,0,29
4798,0,1,20,-20,-33,-5,-6,-20
4798,-14,-12,-19,-10,-2,-3,-4,-22
4799,-1,0,-3,13,8,-4,-2,2
4799,-1,0,-4,-8,-1,16,14,53
4820,-14,-7,11,7,0,-23,-16,-33
4820,47,14,-11,10,10,15,30,20
4822,3,4,1,-3,-3,-1,5,16
4822,-9,-4,14,0,0,-4,-11,-32
4834,-4,-8,-16,-16,-1,9,5,-3
4834,-23,-8,-2,23,15,2,-11,-83
4842,2,-1,-2,-12,-19,-9,7,-19
4842,-14,-1,3,7,-9,-10,-14,-38
4857,-1,-13,-28,-25,-3,1,-2,-3
4857,9,20,14,1,-7,-2,-3,6
4859,-12,-16,-14,26,24,3,-8,-15
4859,-2,0,22,-10,-8,-5,-4,-3
4880,10,-6,-5,-14,-22,-7,10,86
4880,-12,-5,-1,61,67,27,3,32
4882,0,7,19,-47,-31,5,4,-6
4882,14,-7,-20,-2,-2,-28,8,19
4893,-6,-7,-1,22,7,2,0,-31
4893,-8,2,14,-10,-17,1,-10,-1
4902,0,5,-4,12,-11,-5,2,31
4902,9,-1,-20,-32,-3,1,4,28
4917,-4,8,12,7,0,-12,6,-26
4917,-8,-5,1,-5,5,0,0,34
4919,-42,-17,-24,-3,1,-10,-33,-128
4919,51,17,18,24,28,16,35,80
4940,6,8,10,5,-23,13,7,-40
4940,-17,-10,20,-21,-12,-5,2,-22
4941,-2,-6,-30,-10,6,-10,-15,-40
4941,-30,-13,3,7,0,1,-19,-71
4954,1,10,4,27,25,3,-11,0
4954,2,-8,-18,-45,-26,8,18,73
4962,4,7,19,11,0,-19,-1,-30
4962,-4,-8,-4,27,7,10,15,80
4977,8,-2,-8,-10,0,-2,3,-11
4977,-27,0,12,-9,-15,-21,-46,-119
4978,47,11,0,6,5,12,37,127
4978,11,-1,6,4,21,3,6,57
4999,-33,3,-12,-17,-15,-7,-18,-26
4999,10,-24,1,26,19,3,5,-13
5000,-9,-6,-16,-7,-16,4,1,-61
5000,-3,-4,-7,-50,-26,-22,-26,-128
5022,4,0,20,42,14,3,9,0
5022,-7,3,-21,-4,-4,9,-5,-35
5023,-30,-26,-37,-24,0,-34,-33,-106
5023,0,-4,47,59,20,10,21,-29
5036,20,-7,74,-3,-13,5,2,61
5036,19,-8,-44,-51,-19,-6,2,3
5038,5,27,18,31,5,16,1,15
5038,-12,3,-27,-38,-19,-13,-17,-47
5059,-31,-16,-32,-65,-31,-18,-15,-114
5059,3,-26,11,26,14,15,13,36
5060,15,0,-12,2,15,5,26,-40
5060,-22,-2,25,45,13,-5,-19,-113
5081,4,-3,4,29,29,9,19,-46
5081,-8,5,-16,-21,-42,-36,-24,-10
5083,25,-7,-88,-61,3,12,17,29
5083,1,4,26,-31,-18,7,3,20
5099,-10,13,82,74,23,7,-19,-14
5099,2,19,40,43,14,5,-6,-39
5104,-16,-1,13,29,19,-2,-13,-5
5104,-7,-16,-39,-40,-24,6,1,44
5119,15,0,-85,-66,-12,3,7,74
5119,-7,8,9,7,5,5,5,26
5120,4,-9,29,21,-5,-3,18,121
5120,2,1,-23,-17,-13,-6,-1,51
5150,-6,2,-18,-18,-6,-16,-20,-53
5150,12,8,-23,0,9,-1,20,51
5151,-15,-4,42,3,-5,8,-18,-47
5151,1,5,-21,-20,-3,13,-10,-48
5156,6,5,34,30,14,18,58,10
5156,-6,-1,-1,14,1,-18,-34,-45
5157,-7,-7,15,-2,-12,-15,-1,-27
5157,-5,3,4,4,-10,-11,-12,-28
5179,20,-2,-38,-8,14,17,4,96
5179,-8,1,-2,1,5,0,23,-29
5180,-7,-2,22,-17,-15,10,5,2
5180,-2,-1,-46,-20,1,-2,-10,-23
5201,0,-7,-2,0,-9,-41,-24,-32
5201,8,50,10,-14,-8,-2,9,-9
5202,12,18,57,49,12,5,-12,-65
5202,10,-3,3,6,6,19,27,58
5216,-15,-14,-14,12,7,17,-14,-79
5216,-14,-17,-19,-22,-7,14,5,-55
5218,14,0,-17,-25,0,1,5,42
5218,-11,-3,-8,-22,-34,-51,-12,-81
5239,-9,-25,-13,15,12,-14,-3,13
5239,-2,16,31,-3,-1,-3,-2,13
5239,12,29,8,-10,-1,26,-5,-54
5239,-6,-4,20,20,20,21,5,-31
5270,19,9,-24,-26,-7,26,2,71
5270,-14,-25,-7,-2,-1,-27,3,9
5270,-17,-33,6,25,-17,-30,1,40
5270,-12,-26,-68,-67,-13,-28,-11,44
5277,11,26,69,41,6,5,6,10
5277,16,69,14,3,12,29,-28,24
5277,-1,-17,7,17,12,3,17,19
5277,13,41,23,31,7,8,8,-48
5307,-21,-31,-35,-32,-16,-11,-2,58
5307,9,-22,-4,1,-7,-22,0,123
5307,10,1,-10,1,9,-1,-6,24
5307,-14,-8,9,27,28,51,-1,-42
5322,11,10,7,15,12,-17,25,-47
5322,9,-4,26,-40,-30,5,18,-40
5323,-7,-4,-52,-54,-25,-50,-29,22
5323,-11,-18,-1,11,5,-3,-11,-4
5337,9,17,12,11,10,13,-5,-3
5337,-21,-45,1,26,11,12,16,0
5338,23,36,24,17,12,10,-3,-7
5338,18,20,49,16,2,9,6,1
5359,-9,-1,-45,-15,-8,-3,-9,-26
5359,-6,-24,-25,-24,-4,-8,4,-77
5360,-21,-25,-8,-2,-3,2,-8,13
5360,3,4,-31,-7,-6,-13,-5,0
5382,3,8,7,-12,-2,0,1,-35
5382,-10,-15,34,25,-6,-1,-4,-36
5383,2,8,-2,21,25,6,3,52
5383,8,5,50,6,-25,-7,-5,-24
5396,-10,-20,-49,-17,-9,0,4,31
5396,6,8,2,-8,4,-2,4,3
5404,-11,3,24,10,-7,-23,-27,-87
5404,3,-12,-26,-9,3,4,15,127
5419,-8,-3,-24,-27,-7,2,-6,-41
5419,8,2,-19,3,5,7,5,25
5420,-1,3,-6,0,0,12,20,13
5420,-7,-10,14,16,-5,-7,-9,-28
5443,2,5,22,10,-4,-4,-17,-62
5443,9,1,-9,8,8,-1,3,58
5449,-6,-12,-29,-22,-4,6,9,-18
5449,-8,-3,10,-3,-3,-5,-4,-29
5457,7,14,7,-3,-5,-5,3,17
5457,4,18,-4,8,2,2,0,-2
5458,2,-6,3,1,-3,1,0,-47
5458,7,-4,-91,-25,4,-2,2,37
5479,-25,-16,92,14,3,4,-3,-10
5479,9,8,6,9,-1,-8,-26,-7
5480,39,41,49,25,5,14,19,-15
5480,-3,-1,11,16,5,7,11,-28
5502,-2,-9,-39,-25,-13,-23,-14,-14
5502,-16,-28,-37,0,7,-12,-3,6
5510,-16,-6,17,-7,-12,6,2,46
5510,4,7,1,-3,3,-1,-10,-29
5517,11,2,-15,-4,-5,8,9,12
5517,-8,-8,9,2,8,2,0,-39
5517,-8,-5,-17,14,-9,-9,-20,-46
5517,2,-5,21,-33,-20,-7,4,49
5548,-10,3,-5,1,-12,-1,-19,-66
5548,5,0,-4,12,9,6,12,-13
5548,3,-10,-11,-15,-7,-7,1,-5
5548,-13,-6,14,10,5,-5,-11,-28
5562,-2,1,0,3,1,0,-11,-58
5562,-1,0,-5,-3,-6,-2,-8,-5
5562,-3,-11,-18,-8,7,9,5,17
5562,-1,4,6,0,1,1,3,-15
5585,12,9,-1,21,6,-3,7,43
5585,0,-1,-9,-26,-11,1,0,-8
5585,-12,-8,0,-9,8,-3,-6,-18
5585,-18,-1,12,16,-13,-4,-10,-87
5599,33,9,-4,14,9,8,22,101
5599,-1,0,2,-27,-5,4,2,-17
5600,-5,-5,-2,-2,12,-3,-11,17
5600,-7,2,-3,2,3,1,-2,-44
5630,-7,-2,18,11,-9,-3,6,-2
5630,9,-2,-18,-46,-12,5,6,77
5631,0,0,-7,-18,-12,-2,-4,-1
5631,5,2,2,7,5,4,2,16
5637,-32,-16,-14,-10,-2,-17,-25,-95
5637,-2,0,-12,13,-1,-7,-7,81
5638,36,4,18,3,2,18,12,-39
5638,0,-4,-9,-7,-6,-2,-3,-51
5659,16,10,-7,-15,2,2,14,51
5659,-37,-18,19,16,-5,-13,-24,-121
5660,0,-11,-18,-14,-13,-20,-24,65
5660,12,20,19,16,15,15,32,7
5689,-14,-25,-3,-9,0,5,-11,-68
5689,5,3,-10,9,2,3,24,72
5691,-12,2,-1,-1,0,-5,-2,-8
5691,-1,-7,2,-7,-1,-13,-19,-30
5697,-15,3,-7,-4,-5,-5,-11,-1
5697,34,14,8,11,9,12,27,57
5697,-20,-9,-5,1,-5,0,10,-43
5697,6,-3,-4,-2,1,-3,-1,9
5718,-2,4,-9,0,4,1,0,-21
5718,-4,-7,10,5,-3,-3,-12,-68
5720,-12,-1,-3,-1,0,-2,-4,-1
5720,2,-3,-6,1,2,4,2,36
5742,2,3,2,-5,-3,-3,1,-4
5742,-1,0,0,-1,-3,-3,-9,-10
5743,-6,-2,-4,2,-1,2,-1,-6
5743,-6,-1,3,1,-1,2,-5,8
5756,8,1,0,-3,1,0,5,22
5756,-5,-2,-2,0,-4,-6,-6,-34
5757,-5,-2,-2,3,2,2,0,-15
5757,5,1,-2,1,-2,-3,3,14
5779,-2,1,-2,-5,1,-1,-3,15
5779,-1,-2,-4,0,0,1,-2,-22
5780,-2,0,0,2,0,-1,-3,-24
5780,-1,-2,-2,-1,-2,-1,-1,8
5803,-3,0,-1,-3,-1,-1,2,-8
5803,-5,-2,-1,1,-1,-4,-1,-19
5803,2,0,0,2,2,1,-3,-23
5803,-6,-3,-1,1,-2,-3,-5,-37
5825,2,1,-2,1,1,-1,3,29
5825,0,-2,-2,-1,-1,0,-7,-20
5825,-3,0,-1,-2,-2,-2,3,12
5825,0,-1,-2,-1,-1,-2,1,6
5840,-1,-1,1,-2,-2,-2,-5,-15
5840,-4,0,-2,-1,-1,-2,-1,10
5840,4,0,-1,1,1,-1,4,18
5840,-3,-2,-1,-1,0,-1,0,21
5862,-1,-1,-1,-1,-1,-2,2,22
5862,-1,-2,-3,-1,-2,0,0,0
5862,-5,0,-2,1,1,0,0,2
5862,6,0,0,0,-1,0,0,7
5877,1,1,0,-1,1,-1,0,5
5877,0,0,-4,0,1,-2,-2,-15
5878,-1,-1,-2,-1,-3,-4,-3,-10
5878,-4,-2,-2,-1,-4,-2,-3,-4
5899,2,-1,-2,-3,-3,0,1,-13
5899,2,1,-1,-1,-4,-3,-5,-35
5900,2,-3,0,2,-3,1,-2,7
5900,11,1,0,1,0,4,10,87
5922,3,-2,0,-1,-2,5,-2,-1
5922,-1,-2,-1,-3,-2,-1,-1,-7
5923,-3,-1,-2,-3,-2,-2,-2,-7
5923,-3,-1,-3,-2,-2,-1,-1,-10
5937,-4,0,0,-1,1,-1,-1,5
5937,-2,-1,-1,0,-1,-1,0,14
5938,-1,-1,-2,0,0,-2,2,4
5938,-2,-2,-2,1,1,-3,-2,-2
5959,-2,-1,-1,0,-1,-2,0,-5
5959,-1,-2,0,-1,-1,-2,-2,-4
5960,0,0,0,0,-1,-2,2,2
5960,-3,-1,-1,-2,-1,-1,0,-11
5981,3,1,0,-1,-1,-1,-3,-3
5981,-1,0,0,1,-2,1,-1,1
5982,-1,-1,-2,-1,0,-3,-3,0
5982,0,-1,-1,1,0,-1,-3,-5
5996,-1,-1,-2,-1,1,0,1,-3
5996,-1,-2,-2,-1,0,1,2,4
5997,2,0,-1,-1,-1,0,-1,-4
5997,-2,0,0,-2,-1,-4,-3,-10
6019,1,0,-2,0,-1,-2,-2,-3
6019,-1,-2,-1,-2,-1,-1,-2,-2
6019,-3,-2,-1,-2,-3,-1,-1,-4
6019,-3,-2,-2,-1,0,-2,-2,-5
6042,-2,0,0,1,-1,-1,1,-2
6042,0,1,-1,-2,1,-1,0,-2
6042,-2,-1,-1,-1,0,-3,-1,-4
6042,-2,-1,-1,-1,0,-1,-1,-4
6056,-2,-1,1,-1,0,-2,-1,-4
6056,-1,-1,0,1,-3,-2,-1,-3
6064,7,1,-1,-2,-2,-1,0,-1
6064,0,0,-1,-1,-1,-1,-2,-4
6079,-1,0,-1,0,-1,0,0,-1
6079,0,-1,0,-2,-2,1,-2,2
6080,-2,1,-1,-1,0,1,0,1
6080,0,0,-1,0,-2,-1,0,-2
6102,0,0,-2,-1,-4,-3,-3,0
6102,-2,-1,-1,0,-1,-2,-2,1
6103,-3,-2,1,0,0,1,-2,-1
6103,0,1,0,-2,-1,-2,0,-3
6116,-3,-2,0,-2,-3,-1,0,-1
6116,-1,0,-1,0,-1,-2,1,-2
6124,-2,-1,-1,0,-1,-2,-2,-2
6124,-2,0,1,0,1,0,-1,1
6139,-1,-2,0,-3,-1,0,-1,2
6139,1,1,0,-2,0,0,0,2
6140,0,-3,0,-2,-1,-1,0,-1
6140,-1,-1,-3,-1,-3,-1,0,-5
6161,-2,0,-2,-2,-2,-2,-2,-1
6161,4,2,0,0,0,0,1,0
6162,-2,-1,-2,0,-1,1,-1,0
6162,-2,-2,-1,-1,-1,1,-1,-3
6177,0,0,-2,-1,-1,-1,1,-2
6177,-4,-1,-2,0,0,0,-1,-1
6185,-1,1,-1,-1,0,-1,-1,-2
6185,0,-1,-1,-1,1,0,-1,1
6199,0,-1,-1,0,1,-1,0,-1
6199,-2,-1,0,-2,0,-2,-1,-1
6200,0,-1,0,0,-1,0,-1,-1
6200,-1,-3,-2,-2,0,-3,-4,-3
6221,2,0,-1,-3,0,0,-3,-1
6221,0,-2,-3,0,-3,-1,0,-2
6223,-1,-2,-3,-2,0,-1,-1,-1
6223,-1,-1,1,0,-1,0,-2,-1
6236,-1,1,-2,1,-1,-1,-1,1
6236,0,-1,1,0,-1,-1,-1,-3
6244,0,1,-1,-2,-1,-1,0,0
6244,0,-1,0,-2,-2,-1,-1,0
6259,0,-3,-2,0,0,-2,0,-1
6259,-2,-2,-2,-3,0,-1,-3,-1
6260,-1,-2,-1,0,0,0,-1,-3
6260,0,0,-2,-2,0,0,-1,-1
6282,0,0,-1,0,-3,0,-2,-2
6282,0,-2,-1,0,-4,-4,0,-1
6282,-3,-1,-2,-1,-3,-2,-2,1
6282,-1,-3,-2,0,-2,-2,-1,-1
6296,-2,-2,0,-1,-2,0,0,1
6296,-1,0,-1,-1,-1,1,-2,1
6305,-1,1,1,-1,0,0,-1,-1
6305,-2,0,-2,0,-1,0,0,-1
6319,-3,-3,-1,0,0,1,0,-1
6319,-1,-1,-1,0,-1,-1,0,-1
6319,0,-2,-1,-2,-1,-3,1,-1
6319,-1,-2,0,-1,-1,0,0,-1
6341,2,-3,1,-3,0,-2,0,0
6341,0,-2,-1,-1,0,-4,-1,-2
6342,-1,-1,-2,-3,-2,0,-1,0
6342,-1,1,-1,0,0,0,0,-2
6357,2,2,-1,-3,-2,-2,-1,-2
6357,-3,-1,-2,-1,0,0,0,1
6364,-1,-1,-2,-1,-1,-1,1,-1
6364,0,-1,1,0,-1,-1,-2,0
6380,-2,0,-2,0,-1,-1,-2,-1
6380,-1,1,0,0,-2,1,-1,0
6380,-2,0,0,-1,0,-1,-1,-2
6380,-2,-1,0,-1,-2,-3,-2,0
6401,0,0,-1,1,-1,-3,-2,-3
6401,1,-2,-1,-1,-1,-3,-1,-1
6402,0,0,0,0,0,-1,-1,0
6402,1,-1,0,-2,1,-1,1,-2
6424,-3,-1,-2,-1,-1,-2,-2,1
6424,-3,0,-1,-2,0,-2,-3,-1
6425,0,0,-1,-2,-2,-2,-1,-1
6425,0,-3,-1,-1,-2,-2,-2,-1
6439,0,-1,1,0,-2,0,0,-1
6439,2,0,-2,0,-3,0,1,0
6440,-1,-2,-2,-1,-1,0,0,-1
6440,-3,0,-1,-1,-1,-1,-1,-1
6470,-1,-2,-2,-2,-1,0,-2,0
6470,-1,-2,-1,-1,0,0,-2,-1
6470,-1,-2,0,0,-1,-1,-1,0
6470,0,0,-2,-1,-2,-1,-1,-1
6485,-3,-1,0,-1,-1,-1,-2,-2
6485,-2,-2,-2,-2,-2,-1,-1,0
6485,-1,-1,-2,0,-1,-1,-2,-3
6485,-1,-1,-1,-3,0,0,0,-1
6499,0,-3,0,-3,0,-1,-2,-2
6499,-1,-3,0,0,-1,0,-1,1
6515,-3,-2,-2,3,0,-1,-1,0
6515,-1,-1,-1,-3,-1,-3,-1,-1
6522,-3,0,-2,-2,-1,-2,1,0
6522,0,1,-1,-1,-1,-2,2,-2
6522,-2,0,-2,-1,-1,-1,-1,0
6522,-2,-1,0,0,-1,0,-1,0
6545,-1,0,0,-1,0,0,1,-1
6545,0,-2,-1,-2,1,0,1,-2
6546,0,0,0,-1,-1,0,-1,-3
6546,-1,0,-1,0,-1,0,-4,1
6560,-2,-1,-3,-2,-2,0,-2,-3
6560,-2,0,-1,0,-3,0,0,-2
6560,-3,-2,0,-2,-1,-1,-1,-1
6560,-2,-1,0,1,-1,0,-1,1
6582,0,-2,-2,-1,-1,-1,-2,1
6582,0,0,1,-1,0,-3,-3,-1
6582,-1,-2,0,-1,-3,0,-1,1
6582,0,-1,-1,-1,-1,1,1,0
6605,-2,1,-1,-1,1,-2,-2,0
6605,-2,0,-1,-2,-2,1,-3,-3
6606,0,0,1,-2,0,-2,-3,-1
6606,-1,-2,-3,-2,-1,-1,-1,1
6620,-3,-1,0,-1,-4,1,-1,-3
6620,-2,-1,0,-1,0,-1,0,-1
6620,-1,-1,-1,-2,-2,-1,2,0
6620,-1,-1,-1,-1,-1,-2,-1,-2
6642,0,0,-3,0,1,0,-3,0
6642,-1,-1,-2,1,-2,0,-2,1
6643,0,0,-1,-1,1,-1,0,-1
6643,0,0,0,-1,2,0,-1,-2
6664,0,-2,-1,-1,-1,-3,-1,-2
6664,2,0,-1,-1,-1,-1,-1,-1
6666,0,-1,-2,0,-2,-1,0,0
6666,-2,-1,-2,-1,-2,0,0,0
6679,0,0,1,0,0,0,0,-1
6679,-2,-1,-2,1,0,-1,-1,0
6680,-2,-2,0,-2,-1,1,0,-1
6680,0,-1,-2,-1,0,-1,1,-1
6701,-2,0,0,0,-1,0,-3,-2
6701,-1,-2,1,-2,-2,-1,0,-1
6703,-2,-1,0,-1,0,-1,-2,-1
6703,-2,1,0,0,-3,-3,-1,0
6725,-1,1,-1,-1,-1,-2,0,1
6725,-1,-1,-1,-2,-1,-1,-2,0
6726,-1,-1,0,-1,-3,-2,1,-1
6726,0,-1,0,0,-1,-1,-1,-1
6740,-1,-1,-2,0,-1,-2,1,0
6740,0,1,-3,0,-2,-2,-1,-1
6740,0,-1,-1,-3,-1,-2,-1,0
6740,-1,0,0,-1,0,-2,-3,-1
6762,-2,-2,-1,1,-2,0,-1,0
6762,2,0,0,0,1,1,-1,1
6763,0,-1,0,0,-2,0,0,-2
6763,-1,-2,-1,-1,-2,-3,0,-1
6785,-1,-1,-2,-3,-1,-1,-1,-1
6785,-3,-2,-2,-1,-1,-1,-3,-3
6786,-1,-2,-2,0,0,0,-1,0
6786,-1,-2,0,0,-1,2,-1,0
6800,-2,-1,-2,-2,-2,0,-1,-1
6800,-1,0,-2,-1,-1,0,0,0
6800,-1,0,-2,1,-1,-2,1,-2
6800,-3,0,-1,-1,-1,0,-2,-3
6822,1,-1,-1,-2,0,-2,-2,-2
6822,-1,-3,0,0,-1,-1,-1,-1
6822,-1,0,-1,0,-1,0,-1,-1
6822,-2,-2,-2,-2,-2,0,1,0
6844,-1,0,1,0,-2,-2,1,1
6844,5,3,-1,0,-1,-2,0,0
6846,-1,-2,1,0,0,-2,-2,-1
6846,0,0,-2,0,-2,0,-2,-1
6867,1,-1,-1,0,-1,0,-1,-2
6867,-3,-2,-1,-2,-2,-3,-1,-3
6867,0,0,0,-2,-1,-1,-1,-1
6867,2,-3,0,-3,-1,-2,-2,-1
6882,-2,-1,-1,-3,-1,0,-2,0
6882,-5,0,-1,-1,-2,2,-2,0
6883,0,1,-2,0,-1,0,0,-2
6883,-2,-1,-1,-2,2,-1,0,-3
6905,0,0,-1,0,-1,-2,-1,-2
6905,-2,-1,-1,0,0,0,-2,-4
6905,0,-2,0,-1,0,-1,-2,-1
6905,-2,0,-2,-1,-1,-2,-1,-1
6919,-1,-1,-2,-2,-1,1,0,0
6919,-1,-1,-1,-1,-2,-1,0,1
6920,-1,-2,-1,-1,-3,0,-2,-2
6920,-2,1,0,0,-1,-1,0,0
6942,-2,-1,0,1,-1,-2,0,2
6942,0,-1,1,-1,1,0,1,-2
6943,-1,0,-2,-1,-3,-2,-2,0
6943,0,-2,-2,-1,-2,0,1,-2
6964,0,-2,0,0,0,0,-1,-2
6964,-1,-3,-1,0,-1,0,-1,-2
6965,-1,-1,-1,-1,-2,0,-2,0
6965,1,0,-1,1,-1,0,-1,1
6979,0,0,1,-3,-2,-3,-3,0
6979,1,-2,-1,-3,-3,-1,-1,0
6979,-1,0,-1,-2,0,-3,-1,-1
6979,0,0,-1,0,-1,-2,-1,-1
7002,1,-2,-2,0,-2,-1,1,-1
7002,-2,0,-2,-2,0,0,-1,-1
7003,1,0,-1,0,-1,0,1,0
7003,-2,-2,-1,-2,-2,0,0,0
7024,1,0,0,-1,-2,-2,0,-1
7024,-4,0,-2,-2,-2,-1,-2,0
7026,-2,0,-2,-2,-1,-2,-3,-1
7026,-1,-3,0,0,-1,-2,-3,-2
7038,-3,-3,-3,-1,-1,-2,-1,0
7038,2,-2,1,0,-1,-2,-1,0
7047,1,0,-3,-1,0,1,-1,-1
7047,-1,-1,0,-2,-1,-1,-2,-1
7061,-3,0,-2,-2,-2,-1,-2,-1
7061,-1,-1,-2,-1,-1,-2,-2,0
7063,0,-1,-2,0,0,-1,-2,-2
7063,-1,1,-1,-1,0,-2,-2,-2
7092,-1,-1,-1,1,1,0,-2,0
7092,0,-2,-2,0,-1,-2,0,-1
7092,-5,-2,0,0,-2,-2,0,-2
7092,-5,-2,-2,-2,-1,-1,-2,-2
7098,3,0,-1,-3,-1,-1,0,1
7098,-1,0,-2,0,-3,-1,-1,-2
7107,-2,-1,-1,-2,0,-2,-1,-1
7107,-1,-1,0,0,0,1,1,-1
7130,-5,0,-1,0,-3,-1,0,-3
7130,-3,-2,-1,-2,-1,0,0,-1
7130,-2,-2,-2,-1,-2,-2,0,0
7130,0,-1,-1,0,-2,-3,0,1
7145,-1,-1,0,-1,2,-3,-3,-2
7145,0,0,0,0,-2,-1,-1,-1
7146,-2,0,0,-2,0,-3,-1,-2
7146,0,-1,-2,0,-3,-1,-1,0
7159,-3,-1,-1,-1,0,1,-1,-3
7159,0,0,0,-3,-2,-1,-2,0
7166,2,-1,-2,0,-1,0,0,-1
7166,0,-1,-1,-2,0,-3,-1,0
7189,-3,-1,-1,0,-3,-2,0,-1
7189,-2,-1,0,-3,1,0,-1,-2
7190,0,-1,0,0,-1,1,-2,-1
7190,-1,1,-1,-2,-2,0,-3,0
7205,1,-1,-1,-1,0,-1,-1,-1
7205,-3,-3,-2,0,-1,-2,-2,-1
7205,2,0,-1,0,-2,-1,-1,1
7205,0,-2,-1,0,0,-2,0,-2
7218,-1,-1,-2,-1,0,0,-1,1
7218,0,-1,0,-1,-2,-2,-1,-1
7227,-1,-1,0,-1,0,0,-2,-2
7227,0,-2,1,1,0,-1,0,-1
7241,1,0,-1,-1,0,1,-2,-2
7241,2,-2,-2,0,2,-1,0,1
7243,-2,0,-3,-1,-2,-3,-1,0
7243,-2,-1,0,0,0,-1,-1,-1
7265,-2,1,0,-1,-3,-3,-1,0
7265,-1,1,-2,0,-4,-2,-1,-1
7265,-1,-2,-1,-2,-2,-2,-1,-1
7265,1,-1,0,-3,0,-1,-1,-2
7278,-1,0,-1,-2,-1,-2,-1,-2
7278,1,-2,-2,0,-1,-1,0,-1
7286,1,1,-2,0,0,0,-2,0
7286,0,0,-1,0,-1,-2,-1,0
7301,0,-1,-2,0,0,0,-1,-3
7301,-1,-1,0,-1,-1,-2,-1,-1
7302,0,-2,-3,-1,0,0,1,-1
7302,0,-1,-2,-1,-1,-1,0,0
7325,1,-2,-2,0,0,-1,1,0
7325,-4,-1,-1,1,-1,1,1,-2
7326,0,-1,-1,-1,-1,0,-1,0
7326,0,-1,0,-3,1,0,-1,-2
7347,0,-2,0,-1,-2,0,1,0
7347,-3,-1,-1,-2,0,-2,0,0
7347,-4,-1,0,-2,-1,0,-2,-2
7347,2,0,0,0,-2,1,-2,1
7362,0,-1,0,0,-2,-2,1,-1
7362,-2,-1,-1,-2,-1,-1,0,-1
7363,-3,1,0,0,-1,-1,0,-1
7363,-1,-1,-3,-1,-1,-2,-1,-2
7385,0,0,-2,-2,-1,0,-2,-1
7385,0,0,-2,1,-1,-1,-1,1
7385,-2,-2,-1,-2,0,-1,-3,0
7385,2,-1,-1,2,-1,0,-1,-1
7407,-2,-1,-1,-1,0,-3,-1,2
7407,1,-2,1,0,-1,-1,0,-3
7408,0,-2,-1,0,-1,-2,-1,12
7408,-2,0,0,0,0,0,1,-17
7422,-2,-2,-2,-1,-2,0,-1,-1
7422,-1,-1,-2,-2,0,-2,-1,1
7423,0,-3,0,-1,0,-2,0,-1
7423,0,0,-2,-4,-2,0,0,7
7444,-4,-1,1,-1,-2,0,-2,0
7444,2,0,0,-1,0,0,-2,-1
7446,0,-2,-1,-2,-3,1,-2,-1
7446,-3,-1,-1,-1,-1,-1,-1,1
7467,-2,-1,-1,-2,-2,-2,2,-3
7467,-2,-1,-1,-1,-1,0,-1,1
7468,-2,1,-2,-3,0,2,-1,-5
7468,-3,0,-1,-1,0,-1,-2,1
7490,-2,-1,0,1,1,0,-1,0
7490,-5,-1,-3,0,0,-1,-1,-3
7491,3,1,-1,0,-2,-2,0,-2
7491,-4,-3,-2,0,0,0,1,-2
7505,-1,-1,1,0,-3,0,-3,-6
7505,1,-2,-1,-1,0,-2,0,7
7505,-4,-2,-1,0,-1,-1,0,-3
7505,-1,-1,0,0,1,-1,-1,1
7527,2,0,0,-1,0,-3,-1,-1
7527,0,0,-1,-2,-2,-1,-2,-6
7529,1,-1,0,-1,-2,-2,1,9
7529,-3,-1,0,-2,0,-1,-3,-18
7541,2,0,-2,-1,2,0,-5,-2
7541,-2,-1,-2,0,-1,1,-4,-4
7542,-1,-2,-3,-2,-2,-1,0,1
7542,1,-2,-2,-1,-2,-1,0,7
7564,0,-2,-1,-2,1,-1,0,1
7564,5,0,-1,-1,-1,-3,-1,1
7566,-1,-2,-1,1,1,-3,-2,0
7566,1,-1,0,-2,-2,-2,-1,0
7595,0,-1,-2,0,-3,-1,0,-3
7595,0,-2,-1,-2,0,0,1,0
7595,0,0,1,0,-1,-1,-1,-5
7595,-1,0,1,-1,-1,-1,0,1
7602,-3,-1,0,-3,-3,-3,-1,1
7602,-4,-1,-1,-2,-3,-2,-1,-4
7603,-3,-1,-1,-3,0,1,-3,-5
7603,-2,0,-1,-1,0,-1,0,3
7624,4,0,0,-1,-2,-1,0,-1
7624,-2,-1,-1,-1,-4,-1,2,-2
7625,-1,0,-1,0,-1,0,3,-2
7625,-1,-1,-2,-1,-2,0,-3,11
7647,-3,-2,-2,-1,0,1,-1,-7
7647,-2,0,-1,1,0,0,0,-3
7648,2,-3,0,0,-1,0,-2,-3
7648,1,-1,-2,-2,0,0,0,1
7661,0,-2,-1,-1,-1,0,-1,-1
7661,-1,0,-1,-3,0,-2,-1,-1
7663,0,0,-1,-1,-1,-3,-2,2
7663,1,0,0,-1,-1,-2,-2,-4
7684,4,1,0,-1,1,1,2,1
7684,-1,-1,-1,-2,-1,-1,-1,-9
7692,-2,-2,-1,-2,-1,1,0,0
7692,-1,-1,-2,-1,-1,-2,-4,-1
7708,-3,-2,-2,0,0,-1,-2,-2
7708,1,-1,-1,1,-1,-1,-2,5
7708,0,0,-3,0,0,-2,-2,-6
7708,1,-2,-1,-1,-1,-2,1,-1
7722,1,1,-1,-2,0,0,1,4
7722,-1,-2,-2,-1,0,-2,-5,-17
7723,-2,-1,-1,1,-1,1,7,24
7723,-2,-2,-3,-1,1,0,-2,-4
7745,-5,-2,-1,-1,0,-2,-1,-16
7745,-1,-3,0,-1,-2,-2,-3,22
7745,0,-1,0,-2,-2,-1,-1,-6
7745,0,-1,-2,-3,-2,0,0,3
7767,-4,-1,-1,-2,0,-2,0,-4
7767,-2,-1,-1,-1,-1,-2,0,-5
7768,-1,-1,-1,1,0,-3,0,-13
7768,-2,-1,0,2,-1,0,1,1
7782,-2,-1,-2,0,-1,-2,-2,3
7782,-1,-1,-2,0,-1,-2,2,2
7783,-2,1,0,-1,-1,-1,-4,-3
7783,0,0,-1,-1,-1,-1,-2,-4
7805,-2,-3,1,0,-3,-1,-2,0
7805,3,-2,0,-1,0,-1,2,2
7806,-2,-3,-1,-1,-2,-1,-3,-18
7806,0,1,-1,1,-1,0,-1,-4
7827,3,-1,-2,-1,-1,-1,2,17
7827,-3,0,-1,-1,0,-1,0,-9
7833,0,-3,-1,-2,-1,-2,-2,5
7833,0,-1,-1,0,-1,0,-8,-38
7850,-1,1,0,-1,1,1,7,67
7850,2,2,-1,1,-1,2,0,2
7852,3,1,0,-3,0,-1,2,4
7852,-8,-3,-2,-1,-1,-1,-5,-12
7865,-1,-1,0,-2,-3,-3,-5,-12
7865,3,-2,-2,-1,-2,1,-1,-2
7867,0,-2,-1,-2,-2,-2,-1,2
7867,-1,-3,-3,-2,-1,-2,2,15
7887,-3,-2,-4,0,0,0,-3,-21
7887,0,-3,0,-1,0,-1,-1,3
7889,-3,0,-1,0,0,0,-4,-18
7889,-1,0,-1,0,-2,-1,1,12
7901,-1,-1,-3,-2,-3,-1,4,-3
7901,-1,-2,-4,-2,0,-2,-4,4
7910,-2,-1,-3,1,-1,-1,-4,-5
7910,-4,-1,1,-1,0,-2,2,0
7925,2,-1,-2,-1,-1,1,-2,-9
7925,0,1,-1,-1,-3,-1,1,4
7927,-1,-2,-2,-2,-1,-1,0,12
7927,4,1,0,-1,-2,0,0,5
7947,-5,-1,-1,-1,0,-3,-8,-51
7947,-2,-5,-4,-3,-1,-1,2,65
7949,1,0,-3,-1,0,3,3,-13
7949,1,-2,-4,2,0,2,3,5
7969,-2,-3,1,-1,-1,0,-2,-11
7969,-4,-1,1,-1,-1,-2,-4,-21
7976,9,2,1,-1,-1,-2,-9,12
7976,0,-1,0,-1,1,1,5,-2
7984,-2,-1,-2,-1,0,-2,0,22
7984,-4,0,-1,1,-1,-1,-6,-27
7987,-3,-4,1,-1,0,-2,1,10
7987,-5,-2,-2,-3,-1,-3,-4,-5
8007,3,2,0,0,-1,-2,-1,0
8007,6,2,-1,0,-3,-1,2,4
8009,2,0,0,1,-1,-1,-3,-7
8009,-1,0,-1,-3,-2,-3,1,-8
8022,-3,-2,-2,0,1,1,0,32
8022,-3,-3,1,-2,-1,0,-7,-30
8030,-5,-2,1,-2,-2,-5,3,52
8030,4,1,-4,-1,0,3,1,-13
8045,9,-1,1,0,-1,2,-1,-4
8045,1,7,6,0,1,0,0,-38
8047,-3,-6,14,1,-2,-1,-3,2
8047,12,0,2,-2,-1,-3,-4,11
8067,-5,-2,-2,-1,0,-2,-3,-8
8067,-3,-2,-8,-2,-2,-2,2,26
8068,0,2,-12,-2,-1,1,-14,-61
8068,-7,-6,-1,-1,-2,-4,1,4
8081,-4,1,-2,-1,-1,1,-3,-16
8081,5,2,8,0,-2,0,5,13
8090,-16,-4,-7,-1,-2,0,1,-3
8090,5,0,2,-2,-2,-1,-2,8
8105,-3,-1,-1,-1,-2,-4,1,-1
8105,-7,-5,-3,-2,-2,-4,-3,1
8107,-1,-1,-2,-1,0,0,-2,-24
8107,-10,-3,-3,2,-1,-2,-14,-21
8128,16,3,0,0,-2,1,20,62
8128,-12,-2,0,2,0,0,-15,-47
8129,-1,-3,-3,-2,-5,-1,4,-17
8129,-4,-2,-6,-2,-1,-1,4,17
8149,-4,0,-7,-3,1,1,-4,-11
8149,10,2,13,5,-3,-3,-10,-27
8152,-1,5,-13,-2,0,-1,8,77
8152,-7,-12,-10,-4,-3,-2,-8,-16
8172,5,3,-6,1,0,1,13,-5
8172,-7,-2,-3,1,2,4,-1,-45
8174,0,1,-1,0,2,2,2,9
8174,1,10,1,-1,-1,0,3,29
8187,-5,-11,2,0,-1,-5,-9,-2
8187,-7,-4,-9,-6,-4,-4,-2,-10
8189,1,-1,0,1,0,0,4,36
8189,-5,1,0,-2,-1,0,-6,-25
8200,-9,-1,3,-1,1,0,-4,-4
8200,22,3,-3,-4,-4,-3,-2,-7
8210,-4,-4,4,8,7,0,3,6
8210,1,1,10,-12,-16,-2,-3,-9
8232,3,-1,0,1,-2,-3,-9,-1
8232,-11,-6,-3,-5,-3,-3,-3,-50
8239,15,2,3,1,3,-1,11,67
8239,12,1,0,3,7,0,5,-16
8248,-8,0,1,-2,-5,3,6,-15
8248,-1,-3,-4,-8,-2,-1,-4,24
8249,-6,-1,-5,7,2,-2,0,10
8249,22,8,3,13,-1,3,8,0
8270,-9,-4,-7,-12,-9,-7,-8,-14
8270,-3,-3,-5,31,31,0,5,17
8272,2,4,2,-37,-43,2,-5,-44
8272,-6,-5,-4,9,9,-2,-2,2
8284,2,1,3,-10,-8,0,5,47
8284,-5,-3,-4,-3,-1,-5,-8,-8
8291,-8,-3,0,16,10,-3,-13,-64
8291,6,0,1,6,5,3,29,67
8308,1,0,0,-8,1,0,-19,-111
8308,5,0,2,15,11,6,6,34
8309,-8,-2,32,47,6,7,10,-6
8309,-12,-4,-65,-80,-33,-7,-8,-24
8330,11,-4,13,22,4,-11,-2,60
8330,-4,-5,-49,-53,-5,0,-4,11
8331,4,-3,19,-10,-11,1,-2,-37
8331,-8,5,26,117,33,3,-2,-39
8345,-1,3,-9,-15,-4,12,2,54
8345,14,-7,-43,-53,-26,-17,1,11
8351,-10,-3,51,38,7,-5,-15,-26
8351,-6,-7,-14,-46,30,13,0,5
8367,-4,-11,-16,41,12,3,-5,-39
8367,5,8,15,27,19,5,0,42
8369,-26,-63,-124,-26,-13,-1,0,-77
8369,-15,-24,68,-20,-41,-32,-5,-2
8389,37,71,9,-52,-30,23,21,-33
8389,6,26,53,-16,20,21,8,-2
8391,2,-4,42,66,-8,-32,-33,-11
8391,-13,-10,11,-4,29,22,20,9
8404,-18,-58,-79,9,9,-9,26,48
8404,-15,1,23,-70,-46,-23,-42,-98
8411,-25,9,-13,-13,-12,-31,-31,84
8411,44,16,5,-34,-27,-2,-5,-4
8427,8,6,24,7,31,9,0,36
8427,28,47,0,-17,-5,11,34,75
8428,-18,-10,-11,33,23,4,0,-57
8428,33,-20,-6,2,-8,-5,-7,59
8450,5,68,61,-3,-14,0,4,12
8450,-42,-27,67,86,55,6,-7,-30
8451,27,-2,-106,-96,-46,23,28,-11
8451,18,76,44,95,53,10,-8,-5
8464,-19,-36,-2,-9,-18,-2,-10,-60
8464,-4,-55,-15,22,-7,-15,3,97
8479,-28,-42,20,3,27,16,19,63
8479,-8,22,-35,-17,-19,2,5,-48
8503,-35,-77,-66,-42,2,-9,-26,-21
8503,25,83,96,71,-12,-4,17,14
8504,111,49,94,-18,10,0,13,60
8504,42,43,26,0,-2,12,9,115
8510,-69,-69,-57,-54,-41,-18,-41,-103
8510,-86,-74,20,41,-20,-14,38,94
8512,16,5,76,34,19,2,-37,-55
8512,32,15,47,62,19,0,-32,-96
8524,32,105,5,29,11,1,13,46
8524,-61,-21,-56,-9,-22,-11,-10,-101
8532,49,14,-106,-116,-29,-4,19,56
8532,-50,-24,-24,-2,-2,-3,-16,-80
8547,4,-62,-14,34,17,-3,-6,-10
8547,-14,-32,-50,-20,-6,6,12,20
8549,-27,0,33,84,21,-2,1,-24
8549,1,-26,-70,-93,-22,-8,5,87
8571,1,13,19,41,9,2,-13,-9
8571,19,6,24,-1,-4,11,-11,-15
8572,-4,12,-19,-26,-12,-7,-7,-30
8572,-30,-41,26,22,-26,-10,-11,-89
8583,-29,-75,-56,-13,5,-5,-13,-17
8583,40,22,-28,8,14,9,-16,-58
8599,6,38,6,-1,-1,10,19,-9
8599,-25,-9,8,30,-3,-6,11,66
8607,-7,29,32,-9,13,-2,-2,-90
8607,16,9,-6,2,-2,17,47,71
8609,-30,-33,-32,1,-2,-7,-10,-74
8609,-13,-2,-4,-28,-7,-25,-35,-58
8630,10,22,44,11,-11,-12,-23,38
8630,52,-7,-42,-21,-8,2,11,94
8631,-24,6,27,18,16,26,43,6
8631,-17,-13,-18,-26,0,-7,-2,-32
8645,12,12,13,6,-5,-3,-17,-82
8645,-14,-2,-2,-5,4,-16,-29,-117
8652,-14,5,-2,-4,-3,-3,-35,-42
8652,0,4,-7,3,16,47,48,87
8667,-12,-5,2,-17,-23,-34,-30,-69
8667,7,3,13,7,-29,-20,-11,-44
8668,-11,6,-9,-8,0,2,0,-14
8668,4,2,4,21,47,14,35,44
8690,-11,-13,8,7,1,15,-38,26
8690,-3,1,-6,-20,3,-7,19,-49
8691,12,3,-7,-8,-8,-11,11,73
8691,-8,5,1,-14,-37,-42,-69,-20
8703,24,15,14,23,23,18,66,127
8703,3,-15,-13,0,8,18,-8,-13
8712,-13,-10,0,-15,8,7,1,-30
8712,-7,-14,-18,-11,-13,3,6,32
8727,12,20,31,-3,-5,4,12,8
8727,3,8,-9,-25,-8,0,-32,-18
8728,-2,-10,-3,-3,15,2,30,30
8728,-18,-26,-28,14,-4,8,3,-66
8750,10,3,14,15,-7,-46,-6,-6
8750,29,32,67,9,4,16,6,22
8751,-1,0,7,9,7,4,-13,-4
8751,-1,-15,-16,-2,8,10,32,3
8763,-16,-27,-29,0,-1,33,-3,-68
8763,-4,24,13,-28,-23,-63,-22,28
8773,-9,-17,46,33,-16,-21,-27,39
8773,-28,-33,-51,-9,2,12,-3,-39
8788,33,61,80,34,20,25,48,-6
8788,-5,21,-21,30,22,33,-22,-57
8794,-12,-16,-26,-36,-27,-26,-23,-63
8794,12,21,11,11,12,-10,13,38
8810,-20,-40,-114,-59,-9,2,-2,-31
8810,8,-2,30,-31,-7,10,17,1
8811,0,30,65,41,7,-8,-4,49
8811,-5,-22,-43,-17,-13,10,-12,10
8824,-5,8,32,25,26,4,0,28
8824,43,40,12,30,15,16,42,53
8833,-25,-38,6,25,-20,-29,-12,-16
8833,10,-25,63,3,-21,-50,-37,20
8848,1,6,-7,-11,-20,-6,-22,-3
8848,-34,-44,-63,-25,10,4,-21,-40
8853,15,15,-25,-14,29,47,42,42
8853,5,20,-1,-7,5,27,10,-39
8877,10,-16,-9,-15,-3,19,28,54
8877,-22,-51,-21,-10,0,-5,16,31
8879,6,53,-32,-22,-27,-39,7,38
8879,0,-14,11,-15,-32,-63,-61,-78
8883,25,21,45,18,13,-6,-8,12
8883,-14,-18,6,34,14,12,-3,44
8892,12,10,5,-3,11,31,17,7
8892,-19,-4,5,16,12,22,2,-27
8907,-8,17,-24,-6,-8,-10,-18,-42
8907,0,-39,1,-2,-3,0,14,17
8909,-4,4,-19,-6,-3,1,-5,23
8909,6,13,18,3,16,8,8,-12
8930,1,4,5,5,-29,-27,4,-26
8930,-20,-12,-45,-18,-4,6,-3,68
8931,15,-43,-14,-36,-5,-12,-19,-40
8931,14,23,29,17,9,22,20,13
8944,14,15,13,31,30,-13,3,31
8944,-11,-8,24,20,-13,4,0,33
8952,-4,0,-2,-4,0,12,-37,-108
8952,-11,-3,-34,-14,-5,-5,4,16
8967,-1,-18,16,4,11,-18,7,17
8967,-7,-13,-11,-15,-40,-18,6,-15
8969,3,12,-4,1,16,14,-22,36
8969,-6,-10,-18,-15,16,-3,14,-6
8990,10,-30,-1,-4,-16,-4,25,24
8990,-12,52,34,-4,-20,-45,-39,-30
8991,-8,-21,-35,-6,-1,6,7,-20
8991,-4,12,-5,-14,2,17,6,65
9020,1,-35,17,9,19,34,22,19
9020,-4,-15,1,17,21,15,-8,-72
9021,-8,-13,-2,-13,-17,-16,-12,-6
9021,8,28,4,7,-8,-20,-10,-57
9026,-1,-17,-21,-34,-6,18,10,90
9026,34,39,6,0,24,75,18,-33
9033,-17,-13,-36,-32,-25,-71,-5,4
9033,7,-23,26,14,-20,-42,2,-4
9050,-11,33,9,12,-16,-24,-27,-35
9050,2,11,-7,-6,-3,-26,-36,-3
9052,3,-3,11,11,29,60,27,-6
9052,-4,-15,-13,-7,15,15,15,14
9064,4,24,0,-9,-8,15,5,0
9064,-6,0,-6,3,2,-9,2,-3
9073,6,28,17,-8,1,14,1,-17
9073,10,68,10,19,-7,-3,-2,-2
9087,-14,-40,-2,1,-16,-24,-10,13
9087,-2,-11,-13,-2,-1,-22,-10,-15
9093,10,-2,8,10,-9,1,-1,9
9093,-2,-1,-12,-21,4,-2,5,-18
9110,-8,-7,-14,-8,3,3,-13,4
9110,1,-5,3,-12,-23,-18,-7,-5
9112,-4,13,2,9,19,-7,-6,5
9112,5,-8,12,7,-1,68,24,28
9133,-6,12,-15,-6,-17,-57,-7,-22
9133,12,-14,4,-9,-3,-29,-3,7
9134,1,29,17,14,13,67,4,0
9134,-9,-19,-12,11,28,18,2,3
9147,0,2,-2,-18,-2,2,22,-14
9147,-1,14,7,14,-40,-67,-29,-7
9155,-3,-37,-2,-24,-35,-46,-3,6
9155,-8,-20,-5,27,12,0,-22,-5
9170,7,15,5,14,18,56,9,-3
9170,-5,-13,-4,4,34,30,8,11
9172,4,-6,-4,2,16,52,17,-14
9172,15,26,8,-18,-25,-45,-11,7
9192,-8,-2,-1,2,-4,-14,-21,-2
9192,-1,-6,-13,-9,16,83,13,-11
9194,-14,-13,-3,-4,-11,-67,5,11
9194,4,-6,-5,-5,-8,-6,-3,3
9207,-8,3,7,3,-14,-45,-29,-7
9207,-17,-14,-9,-8,-11,6,12,-23
9214,8,8,3,9,4,12,-4,4
9214,-7,-18,-10,-7,18,28,10,-18
9230,-1,-2,0,2,15,21,13,29
9230,-19,-1,4,2,-25,-57,-5,-5
9231,23,-9,-3,9,-16,-29,-26,3
9231,-6,-11,-4,-20,-9,-21,-6,-11
9253,20,18,-13,-11,19,71,0,36
9253,4,7,2,-4,15,-2,31,21
9254,-12,7,7,29,15,6,4,-1
9254,0,0,7,1,-18,-10,-20,-13
9282,16,-10,3,-7,-11,11,17,7
9282,8,-6,-4,-2,28,51,13,4
9283,-12,5,2,3,-4,-75,-8,-39
9283,6,-1,-4,-5,-16,15,-7,-9
9297,-23,-12,-3,-2,-11,-36,-12,34
9297,8,8,-3,-6,-32,-39,-12,-1
9298,-3,-1,-13,-21,12,58,0,14
9298,-8,6,-2,-5,9,-12,18,-20
9329,-7,-19,15,24,11,4,-5,-10
9329,7,12,2,15,5,24,6,-19
9330,1,-2,-2,1,23,39,11,9
9330,-7,-6,1,-6,-22,-50,-12,15
9331,-8,-19,-20,-25,-32,-40,-18,-27
9331,-7,1,-6,-10,-6,-43,-18,4
9335,-31,-6,7,13,12,27,-8,-53
9335,8,8,-11,-1,19,39,23,48
9350,3,0,-3,-4,1,-12,3,13
9350,-4,-4,2,7,-5,-3,-1,0
9351,8,-4,-2,0,-1,0,1,13
9351,-8,-16,1,-11,-5,-4,-4,-9
9373,6,35,5,7,7,35,0,-13
9373,6,-7,1,-2,1,-40,-12,1
9374,10,-3,-19,-19,-9,-2,11,15
9374,-8,-18,3,8,-11,-39,-24,-5
9386,-4,20,-3,-2,-3,12,-2,-54
9386,16,11,-3,7,21,20,10,55
9394,-2,-1,4,7,-2,5,12,-16
9394,-6,-6,-2,-10,-13,5,1,2
9410,12,10,2,-4,-1,-26,-15,-21
9410,-14,-14,-12,-15,23,50,3,-40
9416,12,6,11,19,-12,-15,16,62
9416,-7,-8,2,0,-14,11,0,42
9433,8,3,-4,-14,-5,-57,-21,-19
9433,10,26,11,-4,-25,-28,-18,-29
9434,-5,5,1,14,12,17,14,41
9434,3,7,-4,2,10,3,-3,-29
9446,-12,-20,1,5,20,55,16,8
9446,3,-13,-2,-3,24,26,-1,3
9455,6,6,-7,-26,-36,-42,4,-11
9455,5,10,2,8,-17,-12,-11,0
9470,-20,-17,-3,-4,-7,-13,0,4
9470,8,19,-7,-3,3,-1,-16,-52
9471,-6,-13,9,5,10,22,5,-12
9471,16,29,0,5,28,59,23,10
9493,-6,-1,-5,-14,-21,-41,3,-4
9493,-9,-21,-8,-13,-12,-2,-6,8
9495,10,8,11,26,-15,-29,-13,-3
9495,-11,-13,-2,-2,-12,-37,-15,-44
9515,-19,-10,2,0,8,30,3,60
9515,16,17,4,7,11,31,28,12
9517,-7,3,-11,-19,0,-27,-13,-8
9517,2,-1,2,-3,-6,-3,1,-5
9529,-2,-2,-9,-12,9,40,3,-18
9529,-5,-25,1,21,20,15,13,3
9536,17,26,17,11,-17,-13,-23,-4
9536,-6,1,0,-11,-28,-40,-7,-11
9552,-12,-12,-14,-9,4,-13,0,-22
9552,13,-13,1,-14,15,26,5,13
9553,5,2,-3,8,4,0,-5,-25
9553,6,38,9,7,12,23,2,34
9575,15,7,7,9,9,33,31,-6
9575,-12,4,-4,-16,-66,-97,-46,-7
9576,-17,-27,-6,-12,14,0,-18,-2
9576,-5,-25,-9,-14,19,-5,8,6
9589,24,18,-5,14,-21,-26,18,7
9589,-10,2,-5,-3,-30,-39,-37,-21
9592,-28,-5,0,-7,2,-9,-5,-15
9592,2,-9,-15,-4,21,40,1,-17
9612,20,15,26,11,30,55,22,36
9612,-17,-14,-6,13,-4,-21,14,51
9621,1,18,1,-6,-16,-7,-9,0
9621,-4,-4,-1,1,29,64,12,-15
9626,-9,0,-3,-10,-25,-52,-26,-26
9626,0,12,3,4,1,13,12,-4
9635,-13,-21,0,-10,13,15,4,-5
9635,9,-1,8,17,-16,-21,-4,95
9650,-11,-31,-25,-14,-16,-26,-18,-37
9650,-8,-16,0,7,1,19,9,6
9652,10,15,2,8,9,6,10,-37
9652,-18,-13,5,-3,-5,-13,-6,-20
9673,1,3,-8,5,9,4,-5,1
9673,-15,-14,-1,-7,13,30,10,4
9674,7,-9,-2,-11,3,15,9,11
9674,-7,16,-2,10,-12,-11,-7,-26
9686,-13,-17,7,3,-3,7,-3,3
9686,14,25,10,4,18,-4,26,-8
9718,2,-8,-10,-1,-7,4,-28,4
9718,-19,-28,-7,-22,-57,-95,-15,-39
9719,11,17,0,3,5,-11,-33,23
9719,5,1,4,0,9,10,5,-39
9721,-2,-7,-12,-3,17,40,24,11
9721,4,-9,-3,-9,23,50,15,23
9732,-4,15,9,16,-5,0,7,-46
9732,-5,-8,-7,0,-17,-21,-10,-3
9734,3,0,8,7,-2,-8,-8,9
9734,15,24,-2,3,8,-2,-1,6
9746,10,5,4,-7,6,14,13,24
9746,-11,-5,-10,-11,-19,-25,-31,-39
9755,-9,-11,1,-4,-10,-20,8,-19
9755,14,-3,0,16,19,20,10,58
9777,-3,0,-6,-28,12,24,1,2
9777,-1,-6,1,12,-5,-6,10,6
9779,3,-5,-4,1,-33,-41,-18,8
9779,-5,10,2,9,18,9,-9,-46
9792,-1,9,18,9,10,27,8,1
9792,3,-23,-33,-21,13,28,13,34
9794,7,7,13,-1,-21,-29,-5,-17
9794,3,-8,0,-2,-16,-16,-11,-24
9815,-1,5,-9,-1,5,-6,12,78
9815,8,4,10,3,11,22,4,1
9816,-2,-4,-3,6,10,31,11,20
9816,-2,-1,4,-1,4,-1,-5,-36
9844,-12,-10,-12,-26,-35,-46,-11,-24
9844,-3,-2,-2,7,-3,-10,-8,19
9847,8,16,3,1,15,20,8,2
9847,-4,-11,5,7,1,9,4,5
9859,-10,6,-3,1,9,18,4,-30
9859,0,-1,4,-3,4,4,-5,-28
9862,6,7,-12,-6,6,7,8,83
9862,-7,-1,-3,-9,-48,-42,-12,-18
9866,-4,10,-3,0,-2,-34,-23,-22
9866,2,-4,-3,-7,3,7,3,-1
9883,7,3,9,-9,12,20,9,-7
9883,4,0,1,11,24,28,15,21
9914,4,-16,3,23,-7,18,11,21
9914,-6,5,4,-1,-18,-29,-21,-29
9915,-10,-9,-4,-10,1,-4,-8,-24
9915,4,2,-12,-15,-6,-27,-1,20
9916,-3,-9,5,3,4,6,-4,-27
9916,-5,-9,4,7,15,24,17,10
9935,6,9,-2,3,-10,-19,-4,-32
9935,-2,3,-11,-17,12,26,2,-22
9936,-1,-11,15,23,-1,4,5,3
9936,-8,3,-2,-13,-30,-41,-11,-10
9938,-3,-1,-8,2,10,5,-13,-12
9938,7,8,17,19,17,38,0,21
9950,-6,-1,-9,-18,-17,-31,-7,-29
9950,1,-9,7,-3,-2,6,-3,-20
9952,-4,-12,-15,6,2,-8,15,72
9952,7,22,8,-8,-8,-6,-12,-13
9973,-6,-7,-5,3,9,8,0,-12
9973,5,13,-4,-8,8,26,0,17
9974,-8,-7,2,0,-12,-28,-10,-36
9974,-19,-19,-9,-3,-3,-4,4,39
9986,17,13,2,7,-4,-4,-8,-34
9986,-9,-2,1,9,13,18,11,69
9996,-5,-2,-5,-13,2,7,-4,-46
9996,-7,-7,3,-7,-14,-4,5,17
25,-8,-20,-1,-5,-27,-47,-17,-21
25,4,7,-11,1,13,3,-3,0
33,-1,10,5,11,4,10,-2,-23
33,1,-2,0,2,11,22,4,-13
34,0,-3,-6,-14,5,6,5,23
34,-2,-5,2,2,-16,-22,-6,-15
35,-1,-2,2,-8,-17,-23,-13,-7
35,6,-5,-13,-5,0,-3,1,-16
55,16,9,-2,5,26,50,16,26
55,-4,1,0,1,-2,-24,2,3
57,-10,-3,16,-14,-27,-23,-10,-13
57,-1,-5,-33,12,3,-19,-18,-57
77,-11,-3,3,-6,-11,-12,-4,-13
77,11,9,12,12,15,26,7,38
79,-1,2,-1,5,24,50,12,1
79,-1,-3,-1,-14,-20,-37,8,-13
117,-11,-8,-1,-6,-18,-36,-32,-18
117,-8,-11,-13,0,7,6,-6,-32
118,16,9,2,5,6,2,9,47
118,-7,-10,10,5,8,18,4,1
119,13,21,-6,-2,9,22,6,-10
119,-7,-7,-6,-14,-21,-36,-8,5
132,-8,-12,-2,2,3,-2,-1,-7
132,-4,-3,5,-4,-5,-4,-2,-9
133,4,11,-7,-12,-4,-12,3,20
133,5,-11,11,12,8,23,6,-13
136,-7,-17,-12,17,5,2,4,-2
136,12,21,6,2,15,30,1,15
152,-5,-12,5,4,-12,-13,5,-1
152,2,13,-8,-14,-20,-28,-36,-16
154,2,2,-5,-11,-7,-41,-10,-43
154,-11,-21,-1,5,1,8,3,13
165,-7,-17,-3,-8,27,52,14,-42
165,14,40,10,11,4,11,16,-7
175,-5,-7,1,-2,-20,-6,-1,12
175,8,-1,2,-8,-5,-22,-16,-24
190,5,-1,-3,10,1,3,3,30
190,4,-3,1,-3,10,3,0,6
191,-7,-3,0,-6,-11,-4,-3,-53
191,4,7,-8,-16,-6,11,17,71
213,10,-6,0,11,-4,-26,-8,3
213,-7,-9,11,4,2,-5,-12,16
215,-1,1,-11,-6,24,36,3,-6
215,-1,3,0,-3,-23,-24,-1,-11
234,-10,-7,3,1,-12,-22,4,5
234,4,2,-8,-7,7,10,4,-19
243,0,3,4,11,11,20,5,55
243,2,8,8,7,4,-6,2,-25
257,-3,1,-2,-5,-20,-25,-13,5
257,-8,-13,-14,-15,-12,-18,-12,-25
258,-2,3,1,-2,2,2,3,49
258,0,-6,4,9,13,21,3,-18
273,6,16,3,11,11,12,3,41
273,6,-11,-4,-2,-21,-8,14,2
274,-9,-6,-8,-18,-13,-24,-23,-10
274,-7,-3,-2,2,2,-5,-3,-10
295,-16,-17,-1,-3,11,18,7,21
295,7,11,-19,-16,5,11,3,-29
302,7,8,9,11,-13,-16,-3,8
302,5,-4,1,5,-1,-12,-4,30
310,-9,6,13,7,9,20,-1,-11
310,-12,-8,-13,3,13,4,9,11
333,16,12,5,-5,-13,23,5,-16
333,-9,-6,-10,-15,-26,-58,-22,-14
333,-8,-16,-9,-15,13,38,6,-10
333,-6,9,16,11,5,7,9,20
335,-7,-13,-5,7,8,5,0,-24
335,0,6,3,3,-8,-4,-7,2
355,1,0,-6,-2,-7,-18,-12,4
355,1,-5,3,4,3,13,2,4
357,-1,-8,-3,-8,10,9,8,23
357,-6,-9,-3,0,-7,8,4,3
376,2,3,3,-14,-17,-45,-10,-43
376,-7,-14,-14,-5,-7,-11,-16,-13
379,5,2,-7,2,9,7,8,5
379,-5,-6,0,-6,12,24,12,3
392,11,9,6,16,6,18,0,-11
392,-7,-2,4,0,-13,-16,5,9
394,1,-4,6,-1,-13,4,-11,-11
394,0,6,-8,7,10,-10,-7,-10
423,-6,-4,2,1,-4,16,0,-45
423,11,23,7,2,-6,-18,0,78
425,-3,9,2,-4,-6,-15,-3,-17
425,-3,-5,-5,-11,10,26,5,-11
438,3,-4,-5,6,10,7,7,12
438,4,-3,1,-3,-5,5,-1,-18
440,-10,-12,-4,1,1,-18,-4,1
440,6,5,1,0,-3,-6,-11,-30
467,2,0,-1,-6,-6,-4,4,19
467,-3,1,3,-1,-8,1,-8,-50
469,7,5,0,-6,3,-4,9,63
469,-6,-1,-3,15,8,10,4,12
475,-2,-3,-2,1,-1,-5,-7,-3
475,1,-2,-1,-7,-14,-16,0,1
476,-7,-11,-13,-14,2,4,-3,-23
476,0,0,7,6,1,2,0,2
490,-1,5,1,-1,-16,-16,1,13
490,1,-1,0,2,10,9,0,-4
521,-8,-8,-5,-1,-2,-9,-12,-31
521,2,-3,2,-6,3,9,2,12
521,0,-3,-7,-6,7,10,2,10
521,0,2,2,3,-6,-11,-5,-24
523,-1,8,8,0,-7,-12,-11,-52
523,3,0,-2,-2,-3,-4,6,94
542,-4,-4,-11,-12,4,16,6,2
542,-5,-2,13,18,8,6,-4,-8
544,-2,4,-14,-9,-14,-22,-5,-7
544,0,-2,7,2,-10,-13,-6,-33
558,1,2,0,1,9,16,3,1
558,-3,-6,-5,-11,5,8,5,17
559,3,1,1,5,-1,2,1,10
559,-5,-4,-6,-9,-15,-15,-6,-22
572,0,3,-3,-2,-3,-11,-3,3
572,2,3,2,3,11,18,6,1
579,-2,-7,4,8,5,14,9,-1
579,0,7,-5,-10,-4,-14,-8,-10
602,3,10,3,-6,-14,-18,-9,-49
602,0,-2,-1,7,-1,0,-6,20
603,0,-3,-5,-7,-1,-5,2,14
603,-1,1,-3,-4,3,12,3,2
609,-3,-1,7,5,5,7,2,-21
609,-2,-2,-8,-4,-5,-6,1,-23
616,0,-2,0,-1,-2,2,-4,2
616,-1,1,1,5,0,0,0,-9
633,1,-5,2,1,3,0,2,20
633,3,0,-1,-4,1,7,2,4
634,-1,-3,-3,-5,7,9,-1,6
634,-1,-4,1,2,-21,-25,-3,-8
655,-1,1,-5,-5,-12,-17,-11,5
655,-2,-2,-5,-8,9,8,3,6
656,-2,-2,3,15,6,14,5,-4
656,-2,-3,6,11,7,-12,-4,-12
669,0,-4,-6,-5,-6,-4,-2,12
669,1,0,-3,-3,-2,1,-1,-2
678,2,2,-1,-10,-4,-2,-2,1
678,-2,-2,-5,-5,3,13,4,0
692,0,-3,2,4,4,6,0,8
692,-2,0,-1,-9,-12,-25,-7,-3
700,1,0,1,0,-5,-7,2,-5
700,0,-2,-2,-5,-3,1,-3,-2
715,0,0,-4,2,1,3,-1,-9
715,0,0,2,3,10,22,7,4
717,-1,0,0,3,-1,-9,-2,-6
717,-2,-2,-1,-2,-12,-8,-8,3
728,-2,0,-2,-7,-2,-14,-4,-3
728,-1,-3,-2,2,3,8,-1,-2
761,-2,-2,1,5,-2,-11,2,2
761,0,2,-10,-10,7,11,1,-10
763,0,-1,3,-10,-6,3,-1,13
763,0,6,2,10,-6,-19,-8,1
766,-1,-3,-1,0,2,8,0,-1
766,-2,-1,-1,-4,6,21,2,-3
782,-3,-2,-4,-6,-10,-20,-2,6
782,0,-1,0,-2,-1,5,-5,-2
789,-1,2,-4,-11,-1,-1,-2,0
789,2,-1,0,6,1,4,2,2
789,0,-3,0,8,-1,-9,-4,-1
789,-1,-3,0,2,5,13,9,-1
797,-2,-2,-3,-17,-13,-3,-2,1
797,-1,1,1,-6,-9,-17,3,1
812,-6,-1,-3,4,1,-6,-14,-13
812,-7,-4,17,1,4,-12,-10,4
814,8,2,-2,-1,10,21,11,-30
814,0,-1,2,8,5,14,1,-12
835,1,3,7,-1,0,4,5,7
835,-6,-6,-9,-5,-16,-17,-3,-16
837,-6,-1,-5,5,3,1,-4,11
837,2,6,-10,-22,-3,-4,-2,9
849,-3,-10,6,17,14,13,7,-11
849,7,11,-6,-1,-7,-7,1,5
857,-4,-4,-1,1,-16,-22,-12,-1
857,0,-2,-5,2,0,-5,-14,-9
873,1,1,-6,0,3,-7,6,12
873,-2,-1,3,-7,-3,11,2,-3
874,3,-3,3,0,3,12,5,8
874,-1,1,3,0,-7,-16,-3,-6
895,-2,3,-10,-6,-9,3,-11,-16
895,6,-4,21,9,5,-3,7,20
896,2,1,-5,-9,0,-1,2,20
896,-2,0,-1,6,13,48,6,-3
909,1,-6,-3,-8,-4,-27,-1,-21
909,-2,2,-13,-8,-15,-30,1,9
917,-14,-12,16,13,-8,-4,-23,-52
917,7,-4,-4,6,6,-6,2,90
932,1,5,0,-15,9,24,1,3
932,0,-4,-8,-4,2,2,3,-17
947,3,13,6,16,-3,-11,4,4
947,-11,-14,1,9,3,-6,-7,-70
955,0,1,-8,-6,-17,-10,-8,19
955,17,2,7,-5,7,15,12,88
961,-1,2,-2,-8,2,4,7,12
961,-2,1,3,1,-7,-8,-4,-40
968,-1,3,25,10,15,47,16,-2
968,-4,-3,-7,0,2,-67,-31,-76
977,7,-3,-4,-4,-19,-7,2,65
977,-1,1,-6,-5,-6,-11,-8,1
992,-9,-8,1,-4,14,13,1,-17
992,-1,1,-15,-25,-6,38,5,-4
998,-1,-4,35,41,19,10,7,-17
998,-5,-6,-16,1,-5,-13,-4,-6
1015,-20,-2,-8,7,-1,-10,-15,-47
1015,16,-2,-1,13,11,11,2,34
1017,-1,4,-11,-26,-15,4,-8,-46
1017,3,4,7,-12,-6,-17,12,63
1029,4,-1,-4,5,3,22,4,0
1029,-20,-5,-7,1,-6,-15,1,-37
1037,-17,-11,-9,1,-4,-28,-16,-49
1037,9,7,4,-4,5,8,-5,-14
1052,-8,1,-12,-20,-22,-23,-11,-17
1052,8,-22,16,33,13,33,12,3
1058,0,8,0,13,15,30,6,3
1058,-29,-11,4,-9,-22,-47,-25,-85
1075,35,7,0,3,6,20,32,118
1075,-8,-5,-12,-13,6,14,-5,-37
1076,9,-1,9,-13,-17,-16,10,25
1076,-1,4,-4,-3,3,16,-6,-14
1088,-6,-9,-2,1,6,11,-6,-20
1088,-1,8,-2,-3,10,18,3,1
1097,4,0,-10,8,-8,-44,2,29
1097,0,4,-5,-6,8,2,-2,9
1112,-6,4,5,-11,-16,-2,-2,-10
1112,4,-8,7,9,4,6,1,-4
1118,0,2,-15,-15,14,6,-3,-6
1118,6,-8,12,15,4,18,12,7
1135,7,8,11,45,24,-29,-4,-19
1135,-12,-10,-25,-69,-70,-21,-15,29
1137,-10,0,26,4,-2,-3,-13,-21
1137,20,1,-5,-3,-6,-6,20,110
1159,0,-2,-5,17,33,15,-2,-29
1159,-6,11,-5,28,12,17,5,-25
1160,-14,-10,-23,-57,-46,-40,-7,-24
1160,5,0,0,-3,2,9,-7,-17
1172,-3,4,3,-6,-15,2,-3,-7
1172,1,8,12,68,52,-18,-2,32
1186,7,-22,-3,-11,4,34,17,60
1186,-6,17,-3,-28,-29,3,0,-45
1195,-8,-3,2,0,-14,-26,-9,-21
1195,6,3,-7,-26,-6,-4,-14,-40
1196,-2,-2,-4,25,27,18,2,-8
1196,4,-3,10,-1,-2,23,6,-3
1225,0,-3,-3,-6,-17,-38,-9,-3
1225,-11,3,-8,3,45,11,-2,-17
1226,17,8,23,-19,-44,-1,4,41
1226,1,5,7,-15,-18,-5,-2,9
1232,-2,0,-16,-22,-7,1,-5,-5
1232,5,-9,12,6,4,2,4,10
1246,-6,5,-14,1,12,5,2,-32
1246,-13,-8,-9,8,2,-12,-11,-42
1255,11,-3,-1,-7,-3,2,7,88
1255,-25,-43,-64,-56,-18,-5,-1,-32
1256,19,4,39,44,16,4,8,-13
1256,21,42,29,51,25,3,3,15
1278,-9,-4,7,13,-17,-9,-13,-20
1278,-6,3,6,37,4,9,0,-11
1279,-19,-31,-55,-62,-26,-19,-2,25
1279,-6,-13,-1,-28,8,-5,-2,3
1291,-4,1,66,93,21,14,1,-34
1291,-8,-3,-61,-94,-52,-33,0,16
1300,8,12,-2,10,20,2,5,-50
1300,10,-15,-1,18,12,1,3,38
1314,-2,8,-18,-25,-11,-3,0,-10
1314,-6,6,51,13,0,7,-3,-28
1317,-9,-2,-16,18,16,9,-18,-68
1317,-5,-6,5,-24,-8,-6,3,-75
1338,4,-5,-11,-10,8,6,4,-35
1338,4,6,16,12,-7,0,2,-2
1339,-5,6,-7,5,15,25,-13,-18
1339,-12,-11,-6,6,-17,-35,-4,15
1352,7,-2,-14,-23,-10,-10,-8,31
1352,7,15,15,9,-1,5,-5,-9
1376,8,6,0,-1,5,6,5,46
1376,-8,-11,-18,-1,-1,16,3,6
1377,-1,7,-1,-4,0,1,7,-2
1377,2,-1,0,11,-3,-17,-8,-25
1378,2,-2,1,3,-4,-11,4,51
1378,-5,2,3,4,5,6,-6,-67
1397,-1,-6,-19,-14,7,-3,2,-24
1397,4,2,12,9,-6,17,12,26
1398,-23,-9,-12,-20,-8,-16,-18,-50
1398,16,7,9,20,5,-3,1,24
1412,2,-13,-31,-24,-3,20,7,29
1412,0,4,9,3,-4,-1,4,-8
1421,-9,-11,-9,2,2,-2,-9,-19
1421,5,5,9,-3,7,7,2,15
1435,3,-2,10,21,-4,-33,-6,-11
1435,-3,0,1,-6,-19,-4,-5,15
1436,-7,-3,-4,-1,21,14,4,-1
1436,-6,4,21,-7,-16,22,13,11
1457,5,4,-8,-17,-11,-12,-17,-3
1457,2,-4,6,16,4,-15,-7,-16
1458,-7,12,21,28,3,-4,1,36
1458,-5,-24,-42,-37,-11,4,0,-4
1480,-1,3,-1,-4,-1,13,15,-2
1480,-32,-8,-16,-12,7,2,-19,-112
1481,33,16,9,2,-6,-2,8,-10
1481,-19,-8,-34,-22,-28,-31,-7,-54
1495,-6,-14,33,35,-4,-7,-4,-35
1495,7,3,-18,-3,32,13,4,0
1497,-15,7,-11,-3,7,17,4,-36
1497,1,4,25,16,-20,-4,-8,-7
1517,2,-12,-5,-47,-3,-11,1,76
1517,1,-7,-14,11,-1,29,4,30
1518,-20,-8,19,14,1,-36,-24,-99
1518,-4,-4,-13,0,0,-8,13,-25
1531,16,3,-14,17,22,11,21,63
1531,14,18,34,-9,-6,-10,5,-57
1540,4,-5,-29,-20,-12,-1,-2,-60
1540,-35,-34,-16,-33,-5,-18,-39,-29
1554,10,31,15,12,-2,17,2,36
1554,-6,-33,-30,-9,-7,-7,17,120
1557,-11,-1,1,-14,-12,19,2,-97
1557,13,21,56,46,26,-32,-20,-70
1579,23,11,21,35,8,8,-3,-11
1579,-13,-26,10,-40,-20,-1,4,-6
1581,6,-21,20,-14,-13,-3,-14,-30
1581,-75,-49,-32,22,16,18,-55,-45
1601,42,49,17,0,25,3,46,-17
1601,-20,-7,8,37,2,-9,-11,9
1603,-18,-49,-69,-63,-18,-2,2,-50
1603,13,15,11,-13,-31,-6,1,-36
1622,-16,37,4,-11,-17,-8,-24,-81
1622,-2,12,-6,-4,10,3,-11,-36
1624,-11,-13,-5,-9,0,0,3,18
1624,26,7,-48,-16,18,15,37,61
1653,11,3,59,12,-7,14,-5,-75
1653,20,35,78,95,19,4,17,-6
1655,-11,17,16,24,4,-17,-20,-17
1655,-3,-5,-35,20,-9,-11,-4,-9
1656,-37,-75,-122,-113,-43,-17,-7,-6
1656,0,7,-7,-43,-18,-22,-10,-46
1668,12,7,-71,-10,22,14,-10,-4
1668,2,-4,75,13,11,3,20,30
1677,-9,4,18,18,4,18,10,10
1677,2,-5,3,24,8,1,-11,0
1678,6,18,10,19,-29,-9,8,17
1678,12,1,-53,-49,19,10,18,7
1698,-24,-24,-6,-12,-21,-22,-20,-51
1698,12,22,33,8,4,6,-3,-48
1700,6,-17,6,20,16,-2,9,90
1700,-8,5,-13,-10,-10,-1,-7,-33
1711,-1,-12,5,17,16,8,9,7
1711,1,-17,-25,-12,-11,9,-4,-80
1720,12,18,41,26,-2,-21,11,61
1720,7,17,18,18,0,2,-6,-63
1735,-21,-27,-19,-9,-4,-23,-8,-31
1735,18,-6,-21,2,8,20,5,77
1736,-5,20,21,16,13,6,0,-2
1736,27,2,6,4,-7,12,16,70
1758,-13,-9,-23,-17,6,2,-4,-72
1758,3,5,-6,4,-16,-4,20,74
1759,-3,-13,-11,-15,-14,-7,5,36
1759,-10,-22,-5,3,5,-5,-12,23
1771,-25,13,-33,-5,-1,-23,-22,-51
1771,21,8,52,9,7,-7,-1,-5
1780,20,7,17,14,3,18,-3,-25
1780,0,7,15,15,-5,15,6,-23
1796,-3,-11,-5,-3,6,13,-9,40
1796,-19,-12,-42,-35,-9,0,4,-22
1802,1,6,-1,-19,-9,-14,24,23
1802,3,6,0,-14,13,-18,-25,-22
1817,-4,-11,0,20,-3,4,-13,-94
1817,5,0,-17,-9,4,-7,12,78
1819,-2,5,21,22,33,28,-4,-62
1819,-3,-10,-69,-84,-41,-1,18,9
1831,4,1,-36,-22,2,0,17,66
1831,-7,-15,64,40,1,-15,-23,-39
1840,9,36,40,23,15,6,-11,-15
1840,18,12,-1,16,16,13,-3,18
1855,-9,-6,4,-10,-2,3,-13,-6
1855,-1,0,-42,-33,-7,9,23,-4
1857,4,-23,-24,-30,-17,-25,20,125
1857,0,5,17,13,-4,-4,-27,-59
1877,-6,-15,-68,-14,7,-10,-11,-8
1877,-36,-28,12,-35,-4,-2,-8,-14
1879,33,17,88,38,-23,4,-1,13
1879,21,5,36,42,21,14,17,-13
1891,2,-9,29,16,7,2,0,74
1891,-4,1,-47,-35,-18,-5,-3,-52
1900,-9,-43,-100,-61,-11,-12,7,-3
1900,-5,18,41,25,19,12,-5,-19
1914,2,5,19,14,-3,4,9,41
1914,-4,0,-5,5,-5,-10,-18,-32
1928,-8,1,-35,-14,-4,6,8,23
1928,-7,-5,18,8,18,-3,5,31
1937,19,6,14,14,-20,7,7,8
1937,0,7,-44,-29,-8,-10,13,9
1939,-32,-8,39,30,-2,-19,-35,-80
1939,9,-4,-1,13,-1,-8,-2,61
1951,21,30,11,6,1,3,-4,-16
1951,15,10,18,9,15,7,-9,14
1959,-7,-2,-28,-31,-4,18,4,-44
1959,-24,-33,-23,-8,-1,-1,15,-5
1975,3,7,24,-12,-12,-10,6,5
1975,8,-23,-30,6,5,-15,-39,20
1981,0,35,13,3,13,10,-4,-55
1981,0,2,8,6,-7,13,13,9
1997,-5,-8,5,-3,-2,8,29,6
1997,-5,-2,-13,2,-4,-19,5,22
2000,-7,-15,-4,8,-6,-27,-61,9
2000,10,-5,-16,-31,-8,-7,14,24
2011,1,6,3,-5,1,5,-24,-19
2011,7,3,16,16,11,15,26,-13
2020,-23,-30,17,30,5,6,14,5
2020,-15,-23,-97,-72,-37,-16,-16,5
2034,32,-13,51,3,3,-12,-6,4
2034,15,29,57,45,16,22,11,-13
2041,3,-10,-13,-32,-19,-4,13,15
2041,-6,-11,-16,7,7,-20,-16,-13
2057,-29,-35,-35,-20,-10,-11,-6,28
2057,10,10,1,-14,-3,1,-8,-59
2058,-8,4,-3,27,18,18,5,-35
2058,1,-3,-2,-4,-8,2,17,12
2080,-13,5,11,2,-7,-5,-9,-7
2080,2,2,4,16,-1,-2,-8,-3
2081,-1,-5,-30,-1,24,-2,10,45
2081,8,24,59,-42,-42,6,5,-8
2094,-7,-15,-33,-13,15,5,5,2
2094,-15,4,6,0,-6,-9,-12,-15
2101,32,12,7,-6,-5,-8,17,99
2101,-6,17,12,38,20,9,-46,-86
2118,-8,2,6,9,-6,4,24,31
2118,-19,-26,-31,-23,-11,-11,-10,52
2119,0,-7,-2,3,-2,3,8,18
2119,4,4,8,15,8,-5,7,0
2140,-17,-1,-10,16,-3,-3,-19,-104
2140,0,7,21,-17,-8,-3,7,22
2141,-2,-14,-29,4,-1,-7,-10,-21
2141,4,6,26,7,12,5,17,46
2154,0,-6,47,10,-15,1,-7,-39
2154,-43,-23,-29,-2,-1,-14,-35,-97
2161,15,25,29,44,23,2,-9,-94
2161,16,3,5,-61,-33,0,17,73
2178,-1,7,-12,-31,-4,-3,-3,-43
2178,-12,-8,-22,1,3,1,-18,-111
2179,5,0,1,-22,-11,-2,1,-7
2179,-13,-8,-20,47,28,-3,3,-17
2208,-4,2,-6,1,-5,-1,-26,-19
2208,57,20,-5,-7,-3,16,58,95
2209,20,-5,8,-8,-1,-2,-6,66
2209,14,7,10,19,7,10,39,91
2222,-16,-5,-16,-4,-3,-8,-10,-48
2222,-1,1,4,6,8,3,-16,30
2223,-2,2,7,5,-4,6,16,-4
2223,-5,-5,-11,-2,-4,-2,-13,-85
2237,20,12,8,4,8,5,25,80
2237,-25,-13,-13,-1,-4,-12,-27,-114
2239,3,1,-2,-16,-15,0,15,81
2239,-12,-7,-4,1,-5,-14,-24,-63
2268,-5,-8,-15,7,7,-4,-6,-52
2268,2,4,2,1,-5,-1,-3,6
2269,4,-1,-4,-9,-7,6,4,-14
2269,-18,-7,-3,10,4,-5,-19,-72
2273,3,1,4,13,7,4,17,54
2273,4,-2,-2,-6,-5,4,12,44
2282,-9,1,-1,-10,-6,-4,-13,-30
2282,-4,-6,-6,7,3,-3,-13,3
2298,10,3,-2,-2,-4,-2,6,19
2298,3,1,1,-1,-2,2,9,7
2299,-16,-7,-10,-5,-5,-5,-17,-53
2299,-2,-1,1,3,1,0,4,13
2320,0,1,-3,2,1,0,-6,1
2320,-5,-1,-1,2,0,-3,-4,17
2322,2,0,3,1,-3,4,-5,-21
2322,-2,-3,-5,-3,-3,2,1,22
2334,-4,1,3,-2,1,2,-2,-35
2334,-1,0,-1,1,2,-2,1,21
2343,-13,-4,-1,-5,-3,-3,-6,-61
2343,8,2,0,0,0,3,9,55
2366,-2,-2,-7,2,0,-10,-9,-33
2366,3,0,0,-1,-1,1,4,23
2370,-5,-2,-2,-2,-1,-3,-4,10
2370,-7,-4,-2,0,1,-4,-14,-87
2381,1,1,1,1,-2,-2,0,6
2381,-2,0,-1,-2,-4,0,2,-45
2384,-11,-2,0,-2,-1,1,2,-25
2384,-1,-3,-3,1,4,-1,-3,-55
2395,0,0,0,1,-1,-4,-3,6
2395,2,0,-3,-1,2,-4,-2,-3
2410,-1,-2,-3,-2,-1,0,-4,-13
2410,-1,0,-2,0,-2,-1,3,37
2418,6,0,0,-1,-2,0,-3,18
2418,3,0,-2,-2,-6,-2,0,28
2419,0,-1,0,-1,1,1,1,20
2419,-1,-1,-1,0,-2,-1,1,17
2440,0,-2,-2,0,-4,1,0,21
2440,-2,-2,-2,-2,-5,0,3,-5
2441,-1,0,-3,-1,0,-3,0,10
2441,-3,0,-2,-1,1,-6,0,6
2454,-7,-2,-3,0,2,2,-2,-7
2454,4,1,1,1,-4,1,0,1
2463,-3,-1,-1,-2,-5,-1,-5,-32
2463,1,-1,-3,-3,-1,0,1,5
2477,1,1,0,0,1,-1,-1,0
2477,-3,-3,-1,-1,0,0,-4,-23
2485,8,2,1,0,-1,1,9,23
2485,-4,-2,-2,0,-2,-6,-5,-18
2500,-1,-1,-1,-2,0,-1,-1,7
2500,-1,-1,1,-3,-2,-2,2,5
2501,-5,-2,-1,-3,-1,-2,-3,-8
2501,0,-2,1,-1,0,-1,2,10
2514,1,0,0,-2,0,-1,4,8
2514,-1,-1,-2,-1,3,-3,0,6
2522,-4,-1,0,1,0,-3,2,4
2522,1,0,-2,1,0,1,2,-2
2537,-5,-4,-2,0,0,-3,-1,3
2537,1,0,-2,0,0,-1,4,1
2539,-1,-2,-1,-1,1,0,0,6
2539,-1,0,0,0,2,1,2,7
2560,2,2,0,-2,0,2,-1,-20
2560,1,1,-1,0,1,0,0,-2
2561,3,2,1,-1,-1,-2,-1,5
2561,-1,0,0,-1,-1,0,-2,-8
2574,0,-1,0,0,-1,0,1,2
2574,0,1,-1,-1,-1,1,0,7
2583,3,1,-2,-2,0,0,0,-1
2583,-2,-1,2,-2,0,0,-2,0
2597,1,1,-1,-2,0,1,2,2
2597,-1,-2,-3,-1,0,1,-3,1
2599,-2,-1,0,1,-1,-1,-4,-7
2599,2,-1,-1,0,-1,-1,-2,3
2620,1,0,1,0,-2,3,1,3
2620,0,0,1,-1,0,-2,0,-5
2622,1,-2,1,-2,1,0,-2,3
2622,-1,-1,0,0,1,1,-1,3
2633,-1,-1,-1,0,-2,-2,-3,-1
2633,1,-2,1,-1,-3,-1,-2,-1
2650,-2,-1,-1,-2,-2,1,1,1
2650,-1,0,-1,-3,0,1,-2,2
2657,4,0,-2,-2,-1,0,-1,-2
2657,0,-1,-2,-1,-1,0,-1,0
2658,-1,-1,-2,-1,-2,0,0,0
2658,0,-2,-1,0,-2,-2,-1,-2
2680,-1,-2,0,-2,-2,-1,-2,0
2680,-1,-2,0,-2,-1,-1,0,0
2681,1,-1,-1,-1,-2,-1,-2,-2
2681,0,1,0,0,-1,1,-1,-1
2694,-3,-2,-1,-2,-1,-3,-3,1
2694,-3,0,0,-2,-1,-1,-1,1
2702,-4,-1,0,-2,-2,-2,-5,-4
2702,1,1,-2,1,-3,-1,-2,1
2716,0,-2,-2,0,0,-2,1,-1
2716,-3,0,-1,-2,-2,0,-1,-2
2719,-5,-1,-1,0,-2,-2,0,-1
2719,5,-1,0,0,-1,-4,0,3
2740,-1,0,1,0,-1,0,1,-1
2740,-1,-2,-1,0,0,-1,0,0
2741,-1,-1,-1,0,0,1,0,1
2741,-3,-3,-1,-1,-2,0,-1,1
2763,-3,-1,-2,0,0,-1,-4,0
2763,-1,0,-1,1,-1,-1,-1,-1
2763,-3,0,0,-1,-3,-1,-2,-1
2763,-3,0,0,-2,-2,0,-1,-3
2777,-2,0,-1,0,0,-1,-2,0
2777,-1,-1,-1,0,-2,1,0,1
2778,1,-1,-1,0,-1,-2,-1,0
2778,-2,-2,-2,0,-1,-2,0,-1
2800,-1,-1,-3,-1,-1,0,-1,0
2800,-2,-3,-1,0,-1,-3,-2,-1
2802,-1,-1,-1,0,-1,0,1,0
2802,0,-1,0,-1,-2,-1,0,-2
2813,-1,-1,-2,-1,-1,1,0,-2
2813,1,-2,-2,-2,-2,0,-1,0
2823,1,-1,0,0,-2,-1,1,-1
2823,0,0,1,2,-2,0,0,0
2837,1,0,-1,-1,0,-2,0,0
2837,-2,1,0,0,0,0,-2,-2
2844,-3,-2,-2,-2,1,0,-1,-1
2844,-1,0,-2,-3,-1,0,-1,-2
2860,-2,-2,-1,-2,-1,-1,-1,-1
2860,-1,0,-2,-2,0,-1,-3,0
2861,0,1,-2,0,-1,-2,-3,-2
2861,-2,-1,0,1,-1,-1,0,0
2874,0,-2,0,-1,0,-1,-1,-3
2874,-1,0,-2,1,-1,-1,1,0
2882,-1,-1,-3,0,1,-2,-3,0
2882,-1,-1,-2,-1,-1,-1,-1,-2
2896,0,0,0,0,-1,-4,0,-2
2896,1,-2,1,-1,-1,-3,-1,-1
2905,1,0,-1,-1,0,-1,0,0
2905,-1,-2,-2,-2,-1,1,-3,-4
2920,-1,0,-2,-2,-2,0,-2,-3
2920,-2,-1,-2,-2,-2,0,-3,-3
2922,2,0,1,-1,-1,-1,0,0
2922,-3,0,-1,-1,-1,-1,-3,0
2934,-3,-1,0,0,-1,0,-1,1
2934,-2,0,-1,-2,-2,-1,-1,-1
2943,-1,-1,-1,0,0,1,0,0
2943,0,-1,0,-2,-1,-2,-2,2
2965,0,-2,0,-2,0,-2,1,1
2965,0,-1,-1,1,-1,-2,-1,-1
2966,-2,-2,0,-1,-2,-1,0,-1
2966,-1,0,-3,-1,0,-1,0,1
2980,-1,-2,1,-1,-1,1,-1,1
2980,-2,0,-1,-2,-1,-1,-2,0
2981,-1,1,0,0,-3,0,-1,-2
2981,-2,-2,-3,-1,-2,0,-1,-3
3002,3,0,0,1,2,0,-1,-1
3002,1,-1,-2,-2,0,0,-2,-3
3004,-1,1,-1,-1,-2,0,-1,-1
3004,-2,0,-2,-2,-1,-1,0,1
3017,-2,0,-2,0,-1,-2,0,1
3017,0,-1,-1,-1,0,1,1,0
3023,0,-1,-2,-1,0,-3,0,1
3023,-1,-2,-2,0,0,0,1,-1
3040,0,0,0,-2,-1,-2,0,1
3040,-3,0,0,-2,-1,0,2,0
3041,-1,-3,-2,1,-2,-2,-1,-1
3041,-2,1,-1,-1,0,-2,-2,-2
3063,-2,-1,-2,-1,-2,-1,-2,-5
3063,0,-1,-1,0,-1,-2,-1,-1
3064,-1,1,0,-2,-1,-1,0,-2
3064,-2,-2,-3,0,-2,-1,1,-2
3077,-1,-2,-3,-1,1,1,-1,0
3077,-1,-1,-1,-1,-1,-1,-1,0
3083,-1,-1,-1,-2,-2,-1,-2,-1
3083,0,-1,0,-2,-1,1,-1,0
3100,-2,-1,0,-2,-4,-2,0,0
3100,1,-1,0,-1,0,-3,-1,-1
3102,-2,-2,-2,-1,0,-1,0,-2
3102,0,-1,-1,-1,1,-1,-2,-2
3122,-3,-1,-3,0,0,0,-3,0
3122,0,-1,0,0,0,-2,-1,0
3130,-1,0,1,0,0,0,-1,-1
3130,1,0,0,0,-2,-2,-1,-2
3136,-2,0,-3,0,-2,-1,0,-1
3136,0,0,-1,-2,-2,-1,0,1
3145,-2,-2,0,-2,-2,-2,-1,-2
3145,0,0,0,0,-1,-3,-1,-2
3159,-2,0,0,-2,0,-1,-1,-1
3159,-2,-1,-1,0,0,0,-1,-2
3161,-1,-1,-4,0,0,-1,0,0
3161,1,-2,0,-2,0,-1,0,-1
3182,-1,-1,-1,-2,-1,-3,-2,-1
3182,0,0,0,0,-2,-2,2,1
3184,0,-1,-2,-2,-3,-2,-1,1
3184,-1,-1,1,0,-1,-2,0,-1
3196,-2,-1,-1,0,-1,2,0,0
3196,2,0,1,0,-1,0,-2,-3
3205,-1,1,-1,1,-1,0,-2,-4
3205,-2,-1,-1,-1,-1,0,-2,-1
3220,1,-2,-1,-1,-1,-1,0,-2
3220,-1,-2,-1,0,-2,-1,0,1
3221,-1,-3,0,-1,0,-2,1,0
3221,0,-2,1,-2,0,-2,-2,0
3242,-1,-2,-1,0,-1,0,0,-3
3242,0,0,-3,0,0,-2,-1,-1
3244,-1,-2,-3,1,-2,-2,-1,0
3244,-1,-1,-2,-1,-1,-1,1,1
3256,0,-2,-2,0,-2,-1,-1,0
3256,-5,-2,-1,-3,-2,0,-2,-1
3265,-3,-1,-2,-1,1,2,-2,0
3265,-2,0,-2,0,0,1,-2,0
3288,1,-2,0,-1,-1,-3,1,1
3288,-1,-1,-1,-2,-2,0,0,-2
3289,1,0,-1,-1,0,-1,1,-1
3289,-3,-1,0,0,-1,0,0,-3
3302,-3,0,-1,0,-2,0,-1,-2
3302,1,0,-1,-1,-1,-1,-2,-1
3303,-1,-3,0,-3,-3,-2,-3,-1
3303,1,0,-2,0,-1,-2,-2,-1
3316,-2,-1,-2,1,-1,-3,-2,-1
3316,-2,-1,-1,-2,0,-1,-2,-1
3324,-3,-1,-1,0,-1,-2,-3,-1
3324,-1,-2,-2,-2,-1,-1,-3,2
3340,-2,0,1,0,0,0,-1,0
3340,1,-1,0,0,-1,0,-1,-1
3341,-1,0,0,-1,-1,0,0,1
3341,-2,-1,-2,-2,-2,1,0,1
3362,-1,-1,-2,-2,1,-2,1,-2
3362,3,0,-1,0,0,-2,1,-1
3364,1,-1,-1,-1,0,-1,-1,-2
3364,-1,-1,-2,0,-1,-1,-2,-1
3377,0,-2,-2,-2,-1,2,-1,0
3377,-1,-3,-1,0,2,-1,1,1
3385,-1,0,0,-1,0,-2,-1,-2
3385,0,0,0,-1,-2,-2,0,-2
3400,-2,-2,-1,-1,1,-2,-2,-2
3400,-2,2,-2,0,-1,0,-2,-2
3402,-1,-1,0,0,-1,0,0,-1
3402,-1,-1,-1,0,0,0,-1,-2
3422,-1,0,-2,-1,-2,-2,-2,1
3422,-2,-4,0,-3,-1,-1,-2,0
3424,-1,-1,-2,-1,-1,-2,-1,-1
3424,0,-2,-3,-1,-2,1,-2,0
3436,0,0,-1,-2,-2,-2,1,-2
3436,-2,0,-2,-1,-1,-1,0,-4
3445,0,0,-1,0,0,1,0,-2
3445,-1,0,0,-1,-1,-1,-1,-1
3460,-1,-1,0,1,0,-1,-3,-1
3460,-1,0,-2,-1,-2,-1,-1,-1
3466,0,0,0,-2,-2,0,1,1
3466,-1,-2,0,-1,-1,-1,-1,0
3482,0,-2,-1,1,-2,0,-2,-1
3482,-2,-1,-2,1,-2,-2,-2,-1
3484,0,-1,-3,-2,-2,-2,-2,-1
3484,-2,-2,-3,-2,0,-1,0,-1
3496,-1,0,-1,-1,-1,-2,-2,-1
3496,-1,-1,-2,-2,-2,-2,-1,0
3512,0,-1,-2,0,0,-1,-2,-2
3512,-1,-2,0,0,0,-1,0,-2
3519,-2,0,-2,-2,-1,0,0,-1
3519,-4,-2,-1,1,1,-1,1,-1
3522,-2,0,-2,-1,-1,0,0,0
3522,-3,0,-1,0,0,-1,-3,1
3542,-1,-1,-1,-2,-2,-1,0,-1
3542,0,-2,2,-1,-1,-1,-1,-1
3544,-1,-1,-1,-1,-2,-1,-2,-2
3544,0,0,-1,0,-1,-2,-3,-2
3557,0,-1,-1,-2,-1,0,-1,-2
3557,1,0,-2,-1,-2,0,0,0
3572,2,-2,1,-1,-2,-1,1,0
3572,0,-1,-2,-2,-2,-1,1,-1
3580,-2,-2,-1,-1,0,0,-1,-1
3580,-1,0,-1,-1,-1,0,0,-1
3581,-2,-4,-1,-1,0,0,0,-1
3581,1,-2,-1,-1,-2,0,-1,0
3602,0,0,-1,0,-1,0,-2,-2
3602,-2,-1,-3,-2,-1,0,-1,-1
3603,-1,-1,-2,-1,0,-1,-1,-1
3603,-3,-2,0,0,-1,-1,-2,-1
3616,0,-3,-1,-2,-1,-3,0,-1
3616,2,-1,-1,1,-1,-2,0,-2
3625,-1,-1,-2,-2,-2,-2,-2,-2
3625,1,0,0,0,0,-1,-1,0
3640,-1,-1,0,0,-1,0,0,0
3640,-1,0,0,-2,-1,0,0,0
3640,0,0,0,-1,-1,0,-2,0
3640,-3,1,-2,-2,0,-1,0,-2
3662,-3,-1,-2,-2,-2,-1,-2,0
3662,-1,-2,-1,-3,0,-2,-3,0
3663,-2,-2,-2,-1,0,0,-1,0
3663,-1,-2,-2,-1,-1,-2,1,0
3684,-1,0,-1,1,-1,0,0,-1
3684,1,1,-1,1,-2,0,-2,-1
3684,-2,-1,0,0,-2,0,-1,-1
3684,-1,0,-1,0,-1,-2,-1,-3
3699,-2,-1,0,0,0,-3,0,-2
3699,-2,-2,-1,-1,-1,-2,1,-2
3700,-4,0,0,-2,-1,-1,1,-2
3700,-1,-1,-1,-1,-3,-1,0,-2
3721,0,-2,-3,-2,-2,-3,-2,-1
3721,-1,-1,0,-1,-1,-1,-3,1
3722,-2,0,-1,-2,-1,-1,-2,-1
3722,0,1,-1,1,2,2,-2,0
3745,0,1,-1,-2,2,0,-1,-1
3745,-1,-2,-1,0,0,0,-2,-1
3745,-2,-1,-1,0,-3,-3,-1,-1
3745,-1,-2,0,-2,-2,-1,-1,-2
3759,2,-1,1,0,-1,0,-1,1
3759,-2,-1,-1,0,-1,-2,0,0
3760,3,-1,0,-1,1,0,0,-1
3760,1,-1,-2,1,-1,1,2,0
3782,-1,-1,-2,-1,-1,1,-2,0
3782,0,0,-2,-2,-2,0,1,0
3796,1,-1,-1,-3,-2,-4,-2,-1
3796,0,0,-1,0,0,-1,0,0
3804,0,0,-2,-2,0,2,-1,-2
3804,0,0,-2,-2,-1,-1,-2,0
3805,-3,-1,-1,0,0,1,-1,-1
3805,2,-1,-1,0,0,-5,-1,1
3821,-1,-1,-1,-1,-1,-2,0,0
3821,-4,-3,-1,0,0,-2,-1,-1
3822,-1,0,-2,-1,-1,-2,-1,0
3822,-1,-2,-1,-1,0,-1,-4,-2
3842,-1,0,0,-1,-1,-1,0,0
3842,-3,-2,0,-1,-1,0,-2,-3
3849,-3,-3,-1,-1,0,-1,-1,-2
3849,-2,0,-1,1,0,0,0,-1
3863,-1,-1,-2,-2,-1,0,-1,5
3863,-1,0,-1,-2,0,-3,0,-3
3865,-2,-1,-2,-1,0,0,-1,-18
3865,-1,-1,-1,-1,-3,-1,2,0
3880,2,-2,-1,-1,-1,-1,3,4
3880,0,1,-1,0,-2,-2,0,5
3880,0,-2,-1,-2,0,0,0,3
3880,-1,0,0,-2,-3,-2,-2,-4
3901,-4,1,-1,-1,-2,-2,-3,-2
3901,-1,-1,-1,-3,-3,-1,0,-1
3903,0,1,-2,-2,-1,-1,-2,5
3903,-3,0,-2,-2,0,0,-3,0
3924,-1,-2,-1,-2,-1,0,-3,-1
3924,0,-1,-1,1,-1,0,-1,-4
3924,0,0,1,0,-1,1,3,0
3924,-2,-2,0,-3,0,-2,0,3
3939,-3,-2,-1,1,0,-2,0,-10
3939,-2,-2,-1,-1,1,0,-1,-7
3940,-1,-1,-1,0,-2,-2,0,4
3940,2,1,1,0,-1,-3,0,0
3961,-1,0,-1,0,0,-2,-3,0
3961,-2,0,0,0,-1,-1,-1,-1
3963,-3,-1,-1,-1,-2,-2,-1,4
3963,-3,-1,-2,-2,-2,2,0,-10
3984,-2,-1,-2,-3,-2,-2,-2,-4
3984,1,0,0,-1,-1,1,1,-1
3985,0,-1,-1,-2,0,1,-1,2
3985,-3,-1,-1,-2,-1,-1,-1,1
4009,1,0,0,0,-2,-2,2,-1
4009,-1,-2,-3,-1,0,-1,-1,1
4009,0,-2,-1,0,-2,-1,-1,-2
4009,-1,-2,-3,-2,-1,-1,1,3
4022,0,-1,-1,-1,0,0,-4,-6
4022,-2,-1,0,0,-1,-2,-2,4
4023,-1,-2,-1,-1,1,-3,-2,-1
4023,-2,-1,-1,-1,-1,0,-1,-1
4052,-1,-3,-1,-1,-3,-2,-2,0
4052,1,-1,-1,-2,0,0,-3,-4
4054,0,0,-1,-1,-1,-1,1,-1
4054,-1,-1,0,0,-1,-1,-2,-2
4059,-2,-1,-1,-1,-1,-1,2,2
4059,-1,-2,0,-2,-1,0,-2,-4
4060,-1,0,-2,0,-2,1,3,1
4060,-1,-1,-2,-2,1,1,-2,1
4082,-1,1,0,-1,0,0,-1,-3
4082,0,-1,0,0,-1,-2,-1,7
4082,0,0,-1,-1,0,-1,-2,-10
4082,-2,-2,-2,-1,1,-2,-1,-2
4104,-2,0,-1,-1,1,-2,-1,-1
4104,-1,-2,-2,-1,-2,-1,1,0
4105,0,-2,0,-2,-3,-1,-3,2
4105,-1,1,-1,-1,-3,0,-1,-2
4120,2,-2,0,-2,-2,-2,0,13
4120,-1,0,0,-1,-1,-2,-1,-17
4120,0,-1,-1,0,-1,-3,0,3
4120,-2,-2,-2,0,-3,0,-3,-4
4150,1,-1,-1,1,-2,1,-3,-1
4150,0,-1,-1,0,-2,0,0,4
4151,-1,-2,-3,1,-1,0,3,0
4151,0,-1,0,-1,-2,-1,0,1
4164,0,0,0,-1,0,-1,-1,-5
4164,-3,0,-1,0,-1,0,-2,-1
4165,-2,0,-1,-1,0,-2,-4,-1
4165,1,0,-1,-1,1,-2,-1,-7
4187,2,-1,-1,-2,-2,-1,-1,-5
4187,-1,-3,-2,-1,0,-1,-1,0
4188,-2,-2,1,-2,-1,1,-3,3
4188,-1,-2,0,0,0,-1,-2,3
4217,-2,0,-1,-1,0,1,0,-10
4217,2,0,-1,-1,-2,0,-1,4
4219,-2,1,0,-2,-1,-1,-4,-7
4219,-1,-2,0,0,0,-2,-2,6
4224,-3,0,-1,-1,0,0,0,-5
4224,0,-2,-2,-1,0,-2,0,3
4233,-2,-2,0,-1,-1,-2,0,-6
4233,-2,-1,-1,-1,-1,0,-2,-6
4248,0,-1,-2,0,-3,-1,-1,10
4248,-3,-1,-2,-3,-1,-1,-1,-1
4248,-1,-1,0,-2,0,-2,-3,-1
4248,-2,-1,-1,-2,-1,-2,-5,-15
4262,-1,-2,-3,-1,0,-1,0,0
4262,-2,-2,-1,-1,0,-1,1,17
4263,-1,0,-2,1,-2,-1,0,-8
4263,0,1,-3,-1,-1,1,3,-17
4284,-1,-2,0,1,-4,-1,-1,12
4284,0,-2,-1,1,-1,-1,-4,-13
4284,-1,-1,-1,-1,0,0,-1,4
4284,3,0,1,1,-1,-1,-1,0
4308,0,-1,-2,0,-1,0,-3,-11
4308,-3,-2,-2,0,0,0,-2,0
4308,3,-2,-4,-1,-2,0,-1,2
4308,-4,-3,-3,-1,-1,0,1,-3
4322,-1,-2,-2,-2,1,-1,1,1
4322,-2,0,1,-2,-1,-1,-4,-6
4323,0,0,0,0,1,-2,1,-2
4323,0,-2,-2,-3,-1,-1,1,9
4344,-3,-1,0,-1,-2,-1,-1,-14
4344,0,-1,-2,-1,-2,1,0,-3
4345,-5,-2,-1,-1,-1,-1,-2,3
4345,-2,0,-2,0,-2,-1,-3,5
4359,-3,-1,-1,-1,0,-2,0,8
4359,0,1,-1,-1,-3,-2,-4,-27
4360,3,0,-1,-1,1,-1,3,15
4360,-2,-2,-1,-1,-1,-2,-6,-13
4382,4,0,-2,-1,-1,2,8,36
4382,-3,0,-1,0,2,-1,2,3
4382,0,-2,-1,1,-1,0,0,6
4382,-1,-2,-2,-3,-2,-1,-2,-4
4405,-3,-3,-2,-2,-1,-1,-5,-12
4405,0,-1,0,-1,-1,-3,0,5
4405,-3,-1,0,-2,-3,-2,-3,2
4405,1,1,1,0,0,0,-1,-3
4428,-2,0,-2,-1,-2,-3,-3,-7
4428,5,-1,-1,-1,-1,-1,1,9
4428,0,-1,-2,-1,-1,0,-1,-21
4428,0,-1,-1,-1,-1,0,2,17
4442,0,0,0,-2,-1,-4,2,6
4442,-1,0,-2,-4,-2,-4,-4,-18
4443,-3,-3,-2,1,-2,-2,-1,13
4443,3,1,-1,0,0,-1,3,5
4464,-3,-4,-1,0,1,0,-2,3
4464,-1,-1,-5,-1,-2,0,0,-17
4465,0,-2,-2,-3,-1,-2,-2,-4
4465,-3,-1,-1,-1,-1,-1,-2,0
4481,-1,-1,-2,-2,-2,0,-2,3
4481,-2,0,-3,-1,-1,0,-1,0
4482,0,0,0,-1,-1,0,-1,-4
4482,-8,-4,-2,-2,-2,0,-4,-4
4502,1,1,0,-1,0,0,8,-17
4502,-2,-1,0,0,0,-1,-12,-24
4503,0,1,1,-2,-1,1,8,27
4503,-6,0,-5,1,-1,0,3,4
4533,-5,-2,-2,-2,-2,-1,-4,-6
4533,0,0,-1,0,-1,0,0,8
4533,-1,0,-5,0,0,-2,-7,-14
4533,-2,1,21,-1,-1,-1,-3,-5
4539,1,0,1,0,-2,-1,4,6
4539,-2,0,1,1,-1,0,1,-17
4546,-1,1,7,-1,-1,-2,1,17
4546,3,-2,-4,-1,1,-2,0,3
4561,-1,0,-3,-2,-2,-2,-5,-1
4561,4,-1,5,-2,-1,1,2,6
4562,-7,-3,-4,-3,-3,-3,-5,-14
4562,1,-1,-5,0,-2,-1,0,1
4585,-4,-1,-1,1,-1,-2,-7,-7
4585,0,-2,-3,-1,0,0,3,17
4585,2,-4,-13,-3,-3,-1,-2,-10
4585,0,-1,9,1,0,0,-1,-8
4600,-2,1,0,0,-2,-3,-5,-13
4600,4,1,0,2,1,2,6,51
4607,3,-1,-1,0,0,-2,0,-4
4607,3,1,-4,-1,1,1,-3,1
4622,2,3,17,0,-1,-1,-2,-13
4622,3,5,0,-2,-1,1,12,24
4622,-8,-8,4,-1,-2,-2,-12,-39
4622,-6,-1,-4,0,0,-1,5,19
4644,9,4,-1,-1,0,-1,-1,2
4644,-4,-11,-15,-12,-7,-3,-5,-1
4644,4,2,1,1,0,-1,1,-1
4644,-7,-5,-5,-3,-3,-2,-5,-13
4658,-8,-2,-4,2,1,-2,-9,-24
4658,-2,0,4,1,1,1,2,-27
4666,4,0,-4,-3,-1,-3,-1,17
4666,-5,-7,-3,-2,0,0,5,5
4681,11,6,-2,3,2,0,3,20
4681,-7,-1,-7,-6,-5,-4,-17,-100
4683,8,-2,-9,4,1,2,12,77
4683,-26,-5,-8,-1,-1,-2,-2,-33
4704,8,2,1,-2,-2,0,12,47
4704,-9,-7,3,2,-3,-6,-23,-78
4705,-1,-2,-14,-5,-4,-2,-2,25
4705,9,6,17,3,6,8,0,-26
4721,4,-4,-11,-2,0,2,6,31
4721,-6,-4,-2,5,4,-2,-5,-1
4726,-4,2,5,-7,-3,-2,5,36
4726,13,1,-6,-5,-3,-5,-3,4
4742,-7,-3,0,-4,-1,-1,-11,-22
4742,11,3,5,4,0,-1,14,91
4743,-1,-3,4,3,-1,3,4,-43
4743,-1,1,-8,0,-5,0,4,21
4765,-8,0,6,-17,-7,-5,-8,-51
4765,3,-5,4,3,-3,-2,6,9
4765,-11,4,2,4,3,4,-15,-38
4765,2,0,2,6,1,-2,3,8
4795,2,-3,-4,0,-5,-2,-2,-9
4795,-8,-2,-7,-14,-10,-5,-2,-46
4795,0,-1,3,-5,-4,-5,-3,51
4795,2,0,-4,0,0,-1,-9,-4
4802,-2,-3,-3,5,7,3,4,-13
4802,-3,0,-2,2,0,-1,-3,-18
4802,2,0,1,3,2,1,3,-28
4802,6,3,2,7,6,-1,0,32
4825,1,-3,-6,-10,-11,0,-3,-9
4825,0,0,1,4,2,1,-2,20
4825,-9,-3,-3,-3,-4,-6,-9,-43
4825,3,1,1,-7,0,1,12,13
4854,-3,-3,1,16,2,1,1,-10
4854,-2,1,-2,-5,0,2,1,10
4863,-6,-3,-2,4,-1,-2,-5,-23
4863,0,-2,-3,1,5,2,-1,-31
4864,-9,-3,12,39,6,1,-5,-17
4864,-2,-1,-18,-62,-52,-6,1,39
4865,-6,-5,-3,-21,3,-8,-3,-11
4865,5,2,-6,-4,-6,-6,-6,-4
4884,-11,-6,-14,-4,12,-3,-7,-19
4884,7,1,15,33,19,2,-1,17
4885,7,2,-2,5,0,6,11,-8
4885,-4,2,19,11,-12,-2,-3,-44
4908,2,-2,8,-1,7,-3,-2,-12
4908,-13,-6,-12,31,20,2,-1,-7
4909,0,4,8,11,3,1,-2,-35
4909,8,-1,-5,-24,-5,2,-4,-17
4921,12,1,-12,-8,-8,-1,34,121
4921,-9,3,11,-11,-5,-1,-13,-80
4922,-19,-15,-16,-20,-1,1,-12,-46
4922,7,3,-24,-60,-29,-15,6,44
4945,-11,8,19,64,28,3,-4,18
4945,15,13,1,-20,-25,3,6,24
4945,-16,-16,1,-2,24,0,5,5
4945,2,6,7,37,10,-5,-9,22
4967,-3,-39,-28,-39,-22,15,8,-15
4967,3,8,32,25,38,4,4,26
4968,21,66,34,13,1,21,-1,-1
4968,-16,1,-7,54,6,-20,-20,-51
4990,28,-7,-43,-74,26,11,26,25
4990,-4,-10,-32,56,9,9,-7,-10
4991,-8,-28,-14,-39,-42,-20,-9,8
4991,1,-37,4,-5,0,-10,-8,-21
5003,-1,78,41,24,-6,0,-25,-40
5003,9,8,-1,-19,-1,8,37,53
5005,-1,6,-7,18,6,4,14,0
5005,-15,42,25,12,18,-14,-17,-30
5027,-25,-86,-34,-38,-49,-23,-9,36
5027,-8,-76,-60,-27,20,50,6,-9
5028,13,54,26,27,15,-5,31,61
5028,10,-6,-10,-37,-40,-22,-8,17
5041,-17,39,35,12,11,-34,-43,-39
5041,6,20,-9,21,9,-21,-11,1
5043,-17,-41,17,-3,-16,12,-14,-44
5043,-18,-7,-9,-19,9,23,18,15
5064,12,2,7,9,-3,4,6,-39
5064,0,3,2,-7,-6,-4,0,33
5064,-5,-15,-32,28,27,-4,-4,-38
5064,24,24,58,-19,-32,24,13,61
5087,1,0,-9,41,35,35,52,47
5087,-8,12,35,3,-11,-31,29,22
5088,20,16,12,-18,-41,-58,-43,8
5088,-21,-47,-50,-15,-7,-11,-29,-28
5102,9,-11,-17,-9,-12,-33,-40,28
5102,-28,12,0,-30,0,38,-30,-128
5102,49,1,-35,1,29,30,82,126
5102,3,23,15,31,-3,1,4,-31
5132,-27,-39,9,0,-7,-6,-41,-123
5132,13,19,27,18,9,-11,4,77
5133,-36,-14,-5,9,-11,2,-50,-81
5133,69,13,8,44,45,59,81,127
5147,-34,-5,-55,-14,-14,-9,-5,-65
5147,-17,7,13,48,-23,-68,-85,-85
5149,13,-2,53,-62,-50,-10,3,-17
5149,-21,-15,-65,-68,22,9,-2,-75
5161,11,-3,39,19,-17,3,-9,-76
5161,14,-11,-56,24,24,24,27,-90
5163,-22,-11,-23,-22,1,-14,-55,-92
5163,-4,4,57,61,10,-4,14,-25
5185,-24,14,11,39,-5,-9,-62,-96
5185,23,5,-9,-49,7,13,76,127
5185,12,9,18,33,-7,-4,9,-34
5185,-29,-21,-27,-25,-21,-20,-24,-2
5209,17,3,-16,-21,20,12,13,1
5209,-8,-2,43,12,-10,-5,-14,-4
5210,-5,1,-39,3,3,10,12,43
5210,-22,-15,-26,1,16,-6,-21,-14
5221,17,1,2,-23,-17,0,15,97
5221,-4,-6,4,24,14,-13,-25,-29
5222,-11,-21,-37,-69,-19,7,7,-20
5222,-2,26,3,-4,-5,7,-11,-75
5244,1,-20,20,10,1,8,28,38
5244,26,30,43,15,12,6,16,-7
5245,-1,-3,-7,-6,0,-15,-35,-27
5245,-8,-19,-49,-34,5,-2,24,30
5268,-1,-11,66,6,-17,-24,-13,-30
5268,-6,-36,31,21,0,6,-35,-25
5268,2,47,62,105,47,25,37,55
5268,1,-29,-66,-80,-37,-9,-18,-2
5282,-19,-54,-66,-67,0,-7,1,22
5282,30,52,-7,-4,-17,-5,14,11
5282,-15,-30,43,78,9,1,-32,-54
5282,-13,-3,-3,22,11,9,26,22
5304,-25,-58,33,66,3,16,20,56
5304,10,24,20,-62,-23,-13,-7,-1
5304,96,74,31,13,12,-2,40,112
5304,-15,68,77,81,10,-6,-79,-84
5327,-13,-34,-67,-26,23,-2,3,78
5327,-84,-102,-106,-113,-82,-10,36,6
5329,-9,-27,89,33,14,0,-27,-38
5329,110,91,77,64,11,-4,7,90
5342,-2,29,29,33,19,12,0,-34
5342,-17,-43,-47,-11,-2,5,0,-11
5342,-52,-73,-128,-128,-37,-24,-7,24
5342,-40,-62,-36,-2,18,21,17,-32
5364,69,123,94,17,-4,10,8,-6
5364,-18,1,-8,13,6,-17,-16,-77
5365,14,-5,-16,-26,-4,-15,20,93
5365,5,-12,10,-16,2,4,5,-36
5387,-14,-8,-56,-65,-36,5,9,-16
5387,10,-17,10,1,13,1,-3,6
5388,-11,5,-11,12,2,4,-18,-108
5388,-7,-35,24,20,6,2,20,37
5401,-12,-6,-17,-19,-3,-14,-18,-29
5401,14,2,34,30,3,6,-9,63
5410,-20,-27,-2,16,14,15,5,-37
5410,1,7,-26,-24,-8,-8,2,8
5424,-8,-9,-37,-45,-25,-4,-7,-128
5424,27,8,47,37,26,17,17,61
5425,-6,2,-4,3,-4,-1,3,12
5425,-25,-13,1,-23,-19,-19,-22,-80
5447,14,6,2,25,11,-7,6,68
5447,4,-1,-22,-5,1,-7,-1,-2
5447,2,-6,1,-14,1,10,0,24
5447,-4,-15,8,-4,-12,-5,1,11
5461,1,9,-7,-13,-2,-8,8,47
5461,8,13,-23,1,9,-3,-17,4
5463,-10,-2,7,1,-5,-2,-9,-21
5463,-2,-11,-5,-5,-1,1,0,-55
5484,15,6,7,15,8,8,14,57
5484,-6,17,6,-5,-4,-4,-11,-30
5485,-7,0,1,-3,-10,2,5,-21
5485,-6,-24,-16,0,-5,-13,-3,-13
5509,9,15,2,5,-3,1,-8,-16
5509,-1,-12,0,-1,-4,2,2,28
5509,-10,8,2,-1,9,9,-11,-100
5509,15,5,13,12,6,15,25,99
5521,-8,-4,1,5,5,-13,-11,-57
5521,-4,0,1,1,-6,-11,-9,-14
5530,4,4,13,-6,-6,3,10,46
5530,-14,-20,-19,-10,-10,-10,-9,42
5544,0,4,-20,-28,-9,1,-1,-28
5544,-7,-5,0,2,7,1,-11,-7
5545,5,6,17,10,-1,-6,11,24
5545,3,5,-7,4,3,1,-5,34
5568,-3,-5,4,1,5,6,13,22
5568,-14,-20,-2,5,12,-2,-12,-2
5569,15,20,-3,-1,-2,2,18,-12
5569,-9,4,17,5,0,-1,-24,-56
5581,-3,3,4,9,-4,9,-1,-53
5581,2,3,-4,-10,-8,-3,9,43
5590,-5,-15,-6,0,-1,-6,2,-1
5590,-8,-11,-21,-17,-8,-12,-6,-7
5605,16,14,16,4,6,8,1,-17
5605,0,5,-3,-3,2,1,1,-12
5605,-20,-19,-1,5,-1,0,-17,-43
5605,9,18,4,19,19,0,8,16
5629,-5,-19,-8,-31,-31,2,-1,23
5629,10,9,3,-5,0,-3,3,-9
5632,-4,-3,-7,-12,-14,-11,-1,22
5632,-18,-20,-6,-9,3,7,-9,-43
5634,2,0,3,22,11,-12,5,17
5634,8,10,4,1,-2,6,7,13
5642,-4,-10,-8,-4,-4,-5,-7,2
5642,3,4,4,-4,-8,-6,-6,-36
5655,1,6,-1,7,9,2,5,54
5655,-9,-3,7,-4,-8,-10,-14,-48
5664,8,2,-10,3,8,5,0,59
5664,5,6,4,-7,-6,1,6,52
5680,1,3,0,-7,3,2,-3,-10
5680,-8,-5,7,12,0,5,-4,-32
5680,-7,-6,-1,4,-3,-3,-8,-38
5680,9,2,0,-6,-8,-6,7,2
5694,-7,-5,-10,-1,5,-4,-1,28
5694,-1,2,-4,-6,-9,2,0,-8
5701,2,-1,-1,-11,-9,-9,-1,-5
5701,-10,-3,-6,-7,-8,-4,-13,-53
5716,-1,-3,2,12,9,5,2,-13
5716,2,2,-3,2,3,2,12,-2
5723,-3,2,2,-7,-3,-2,-2,-18
5723,-5,-7,-9,-9,-5,-14,-5,-17
5740,-11,-10,-1,10,5,1,-2,2
5740,15,13,4,5,5,1,-1,-7
5741,6,4,1,3,2,6,-6,8
5741,-2,-1,3,0,-2,3,6,-1
5753,2,6,1,6,0,-1,-2,-13
5753,-13,-12,-13,-12,1,1,0,2
5761,2,-3,1,6,2,4,4,0
5761,-1,3,-1,-2,-7,-14,-4,-5
5776,-8,-7,-3,0,-5,-8,-8,7
5776,2,-1,-2,-2,1,1,-1,-13
5801,2,1,0,1,7,10,10,30
5801,-4,-3,1,-1,-4,-7,-3,-15
5802,-3,-2,-4,-3,-8,-7,-4,-34
5802,-2,-1,-2,-4,-2,-2,-1,-14
5803,2,2,0,0,5,10,16,60
5803,-1,-1,-1,7,-2,-4,-1,13
5814,1,1,1,-2,-4,-7,-6,-16
5814,1,7,1,-3,-4,-6,-3,-1
5830,-5,-5,3,5,3,2,-1,-20
5830,-1,-4,1,0,0,8,1,-1
5836,5,5,2,-4,1,7,4,7
5836,-3,-5,-3,0,-6,-6,3,12
5851,-3,-2,-3,-4,-3,-10,-7,-15
5851,-2,2,3,-1,1,4,-7,8
5859,-2,-2,-1,1,-1,4,-2,-11
5859,1,-3,-6,-7,-8,-4,1,13
5859,1,-3,-2,3,3,-7,-1,-14
5859,2,4,-1,-5,2,5,5,7
5882,-7,-7,0,11,4,4,-5,-30
5882,0,8,3,6,-2,-2,-3,34
5882,5,6,-1,-8,-6,-5,-4,-16
5882,0,0,-1,0,1,3,0,0
5896,-3,-5,-6,-3,2,0,2,13
5896,-7,-12,-2,-5,-3,-7,-1,-9
5903,5,3,4,4,-1,-4,-4,-24
5903,-1,-5,-3,0,-2,-3,-3,36
5918,3,3,1,-2,0,6,1,4
5918,-7,-6,-2,1,5,5,2,-8
5929,-2,-2,-6,-6,-2,-7,-1,6
5929,-2,-1,-2,-4,-7,-4,2,-12
5930,-2,-2,-6,-6,-2,-7,-1,6
5930,-2,-1,-2,-4,-7,-4,2,-12
5931,-11,-10,-1,10,5,1,-2,2
5931,15,13,4,5,5,1,-1,-7
5931,6,4,1,3,2,6,-6,8
5931,-2,-1,3,0,-2,3,6,-1
5936,2,6,1,6,0,-1,-2,-13
5936,-13,-12,-13,-12,1,1,0,2
5938,2,-2,-1,0,-1,-3,2,25
5938,-5,-1,0,-3,1,1,-10,-27
5941,-1,-2,-3,-1,4,6,2,5
5941,1,-1,3,4,6,8,1,-5
5956,-1,2,3,4,-4,-7,-5,-3
5956,5,-1,-3,-7,-8,-5,3,48
5963,0,-2,-1,1,-1,-4,-3,-2
5963,-1,-5,0,-2,-3,-4,-4,-1
5979,0,-1,-1,-7,0,1,-1,13
5979,-1,0,0,3,7,7,-2,-24
5987,-5,-5,-1,-1,0,7,1,5
5987,0,2,-1,-2,-5,-16,-1,3
5995,2,-2,-2,-2,-2,-11,7,-1
5995,-4,-11,1,0,-1,-3,-1,-5
6001,15,25,-1,1,5,8,-3,-2
6001,5,11,10,9,3,14,4,-11
6018,-1,1,-1,-1,1,0,1,-5
6018,-6,-6,-1,-1,1,-2,-9,-5
6024,-10,-16,-5,-6,-7,-9,-2,-6
6024,0,-3,-3,-5,0,6,3,6
6038,1,2,2,2,2,4,0,-2
6038,0,2,-1,-1,2,5,0,7
6055,-4,-4,-2,-2,2,-9,-8,-12
6055,-3,-6,-1,0,-4,-8,-7,-7
6056,0,0,-1,-3,-5,-3,-1,-15
6056,0,-1,-1,0,4,5,-3,-6
6061,-5,-1,2,-3,-9,-13,0,0
6061,-3,-5,-4,2,1,5,3,-3
6076,-10,-16,-17,-21,-9,-5,-9,-2
6076,3,6,3,6,3,2,2,-4
6084,10,17,18,14,0,3,-3,1
6084,-6,-4,-3,-1,0,-5,-3,8
6099,-2,0,-1,1,-7,-4,-5,-6
6099,-3,-2,-8,-8,-8,-7,-3,-6
6106,-7,-11,-5,0,6,11,2,2
6106,3,0,0,-4,3,11,2,2
6122,0,4,1,-2,2,-2,3,1
6122,-3,-4,-3,-7,-8,-24,-13,-5
6122,-2,-3,-4,-1,-5,-3,-3,4
6122,3,1,1,1,3,6,0,-3
6136,-2,1,3,2,7,4,6,-4
6136,-1,2,-3,1,0,7,2,-15
6144,-1,-6,1,-1,-2,-8,-3,15
6144,-3,-1,-5,-13,-10,-6,-6,-6
6158,1,3,1,5,0,7,1,8
6158,-1,-5,6,4,8,4,0,-9
6167,2,-3,-5,-5,-4,4,4,-7
6167,-3,-4,0,4,-12,-18,-1,-4
6181,-1,1,-1,-1,0,-16,-16,2
6181,2,2,0,0,0,5,5,4
6183,-4,-4,-2,-1,4,12,-3,-3
6183,-2,-1,1,-1,4,4,3,-2
6196,2,0,-1,1,-3,-1,2,-1
6196,0,-1,-3,3,-2,-5,-2,8
6203,-3,-5,-4,-5,-5,-4,-2,-5
6203,-3,-9,0,1,2,2,4,-5
6218,4,11,3,1,1,2,-1,9
6218,-3,-1,-2,-4,1,1,-2,-2
6226,-1,0,0,-1,-10,-10,-2,3
6226,0,-2,-10,-13,1,7,3,1
6242,-4,-13,1,4,-1,-9,-3,-8
6242,9,9,1,0,-7,-8,4,8
6242,-3,0,0,1,7,16,-1,4
6242,0,3,-2,4,7,-7,3,-5
6256,-2,-2,-3,-7,3,13,2,7
6256,-5,-5,-16,-13,-8,-6,4,0
6264,-9,-16,0,-7,-26,-33,-15,-47
6264,7,1,-6,-14,-3,-12,-9,58
6278,-5,18,17,19,7,6,5,-5
6278,-1,-3,14,26,16,16,0,-2
6287,-3,1,-2,2,19,23,6,-11
6287,2,-7,-6,-1,7,24,5,-12
6301,4,-9,-18,-22,-1,14,11,17
6301,-3,-3,3,7,-12,-40,-13,-20
6303,-3,-4,9,8,-30,-44,-12,17
6303,0,4,1,0,-6,-23,-20,-18
6316,0,-3,-4,10,27,29,3,7
6316,1,1,-10,-22,12,83,38,1
6323,0,1,-5,-8,-2,-38,-17,3
6323,-2,-2,9,14,-35,-37,-15,-7
6339,-7,-15,-5,0,-12,-25,-20,-14
6339,11,14,4,5,8,-14,-9,5
6347,-3,2,-3,-2,27,66,20,2
6347,-4,-1,-15,-25,12,2,10,-8
6370,-2,-7,8,10,-20,-17,2,-3
6370,-2,1,10,24,-15,-18,-13,-1
6370,0,-2,-9,-7,5,4,2,3
6370,-3,1,3,6,8,20,-1,-14
6377,0,0,-4,-15,-3,-6,-5,-1
6377,-3,-4,-22,-30,-3,-2,9,14
6384,5,3,15,9,3,7,3,-7
6384,-7,-6,10,13,-5,1,6,-2
6399,-2,-3,-8,-15,-17,-21,-17,-12
6399,0,1,9,20,6,-5,-16,9
6406,1,0,-2,14,25,16,2,9
6406,2,7,2,-6,-10,1,20,-6
6422,-3,-5,-18,-20,-20,-16,-11,5
6422,-2,-3,0,-13,-6,-18,-12,-20
6422,-9,-5,7,12,3,-6,-2,0
6422,11,21,-5,8,12,16,-1,-2
6436,7,3,10,9,-4,-1,8,3
6436,-1,-3,-7,-5,5,11,8,5
6444,3,-2,-1,-15,-4,-3,0,7
6444,-3,-5,2,4,6,7,4,5
6459,-2,-2,-1,1,-5,2,2,-7
6459,-3,-2,3,2,-4,-8,0,2
6467,-1,-2,-7,-12,-4,-4,-2,-10
6467,4,-1,-13,-9,1,-5,-5,20
6481,2,4,20,16,10,1,4,-22
6481,-9,-8,-10,-5,-3,-1,-1,-10
6482,-6,-14,-9,-11,-25,-13,0,-6
6482,11,20,-4,-4,2,4,-4,-4
6496,2,5,6,9,3,4,-2,21
6496,2,-2,-1,-17,-10,-27,7,15
6504,-3,2,-1,11,18,27,-11,-11
6504,-9,-15,-4,7,4,-10,-1,-28
6526,-7,-6,2,0,-21,-13,13,9
6526,-4,-5,-10,-11,-8,-8,-8,2
6543,10,20,10,13,12,10,6,21
6543,1,2,14,-11,11,29,11,9
6550,-6,-3,-15,14,11,5,4,-6
6550,-1,-7,8,12,-14,-27,-22,17
6552,3,7,1,-8,-10,-16,2,-36
6552,-6,-3,5,6,10,3,-7,-16
6572,7,-4,-3,-10,15,17,13,19
6572,8,4,3,-17,-3,33,9,1
6573,-5,-2,-5,16,-2,-34,1,28
6573,-12,-1,-3,-7,-24,-24,-14,-61
6586,-1,-15,-7,-19,-15,-23,-31,-16
6586,2,5,12,24,29,34,7,12
6595,1,-17,-13,-6,14,60,46,20
6595,11,17,7,8,-22,-33,7,41
6610,-9,3,1,-12,6,-14,-28,-44
6610,0,-4,-15,-23,-36,-43,-26,-42
6612,-5,-3,9,8,-8,-15,-15,25
6612,-6,-27,-18,-11,22,23,9,7
6624,9,19,13,9,13,33,10,19
6624,0,4,10,6,20,34,14,-6
6632,-3,4,1,-9,-23,-41,-8,-18
6632,-6,-14,-20,-15,-6,-19,-19,13
6647,2,13,10,-4,13,19,8,-2
6647,-10,-24,-7,41,21,19,3,-3
6654,14,9,1,-1,12,69,7,29
6654,-2,4,11,-2,4,-43,0,-15
6670,-9,-10,-2,-16,-53,-59,-5,-16
6670,-14,-14,-27,-32,-36,-61,-40,10
6672,2,-21,-1,-11,4,0,-1,-18
6672,5,17,9,14,25,51,0,-24
6683,3,4,5,21,27,46,32,26
6683,7,7,1,-9,-19,-31,-9,-9
6693,-8,-10,-11,-9,6,9,-7,-1
6693,-4,-4,10,6,19,19,1,-3
6707,-3,-7,-10,-9,-28,-30,3,-2
6707,3,6,0,3,-20,-26,-11,-18
6713,-6,-2,-11,-22,3,-6,-5,-8
6713,1,-6,-22,-17,5,8,10,14
6730,14,29,25,60,30,38,12,12
6730,-4,-7,0,0,-3,7,1,-8
6731,-3,17,6,-3,-15,-28,-11,-16
6731,-12,-28,11,-5,-1,9,1,6
6753,1,-1,-4,18,20,18,-6,8
6753,2,4,-15,-16,-9,-9,14,-30
6754,-10,-5,3,0,-22,-21,-26,23
6754,-2,-5,-2,-7,-14,-32,-2,-4
6775,7,7,-12,-34,-5,-16,-10,-8
6775,-1,-1,11,16,24,64,20,-21
6777,0,-3,-6,1,0,-42,-12,-19
6777,-10,-7,-11,0,-11,13,0,-2
6790,-4,-6,7,-1,-8,8,-9,-20
6790,3,8,4,2,4,-11,16,-8
6791,8,8,-2,-9,2,8,11,31
6791,-1,3,11,28,10,18,-6,-12
6812,-4,-10,-23,-33,-10,-11,3,-13
6812,-2,-3,16,12,-8,-26,-12,31
6813,1,10,-2,4,24,33,-1,-50
6813,-3,2,12,7,-23,-29,2,-5
6835,-7,-14,-18,-17,-23,-31,-3,6
6835,-2,3,3,-27,21,26,11,31
6836,-1,0,5,33,5,20,6,-25
6836,-9,-20,-14,3,-2,-14,-20,21
6850,6,6,7,0,-18,-9,14,-14
6850,8,12,7,-15,-15,-58,-14,2
6856,-14,-9,-18,-12,-11,1,-8,-30
6856,2,8,2,-19,8,32,5,-7
6880,7,11,-16,-6,26,35,-1,-5
6880,-10,-10,22,29,2,20,19,7
6881,5,-1,-2,2,-13,-35,-20,-23
6881,16,27,7,6,-13,-25,5,6
6887,-16,-14,-4,-7,18,26,-5,-23
6887,10,7,-3,-9,26,74,27,10
6895,-9,-19,8,-10,-38,-89,-13,30
6895,6,30,-18,2,-37,-39,-25,-50
6910,-9,-20,3,8,22,1,-1,-16
6910,10,15,-8,13,44,111,14,14
6911,-8,-3,1,-13,-7,-51,-3,-24
6911,4,-15,-1,-18,-32,-30,-13,32
6933,4,9,0,13,-11,-27,-19,-17
6933,-18,-12,-9,7,-1,-12,1,8
6935,8,-5,4,9,20,57,22,11
6935,3,8,10,-5,18,19,4,-27
6946,4,-2,4,24,-3,5,14,82
6946,-2,0,-4,12,25,19,-1,-10
6955,0,1,7,-25,-43,-37,-3,-9
6955,-11,-16,-27,-11,-37,-63,-36,-15
6970,-12,-22,1,-3,1,-15,-18,6
6970,2,7,-20,-12,8,5,-11,-21
6971,1,3,5,8,25,52,23,9
6971,3,-8,21,29,22,36,15,52
6993,2,0,-6,-15,0,7,6,40
6993,-6,1,13,-7,-23,-44,-9,2
6994,1,-13,-22,-7,-3,12,5,-4
6994,-9,-15,5,4,-14,-38,-16,-32
7006,23,25,10,-8,1,4,6,1
7006,-7,-7,10,16,14,7,-4,-23
7015,5,5,-11,-4,1,14,9,14
7015,-4,2,-3,-12,-4,-11,-22,-18
7029,-8,0,3,2,-12,-24,-4,-37
7029,-2,-13,-7,-8,-7,-4,7,52
7037,0,-5,-11,-15,14,32,2,-8
7037,-1,7,3,21,18,3,20,16
7052,-3,-1,-5,-11,-23,-18,-19,-13
7052,3,-4,2,-14,-18,-31,-18,0
7054,-8,-2,-2,17,10,17,9,-13
7054,1,4,1,-11,17,34,15,14
7066,-11,-13,-11,-1,17,28,11,-6
7066,8,5,10,-12,-32,-50,-5,14
7076,-1,14,2,-6,-32,-41,-25,-63
7076,5,-4,-2,16,17,19,2,48
7090,-5,-12,5,12,15,13,-7,-14
7090,-3,-3,-18,-1,10,14,12,-4
7091,2,11,11,-10,-11,-10,-5,16
7091,1,2,-3,-17,0,10,5,-4
7113,6,-8,9,20,18,10,15,41
7113,5,10,-12,-1,5,17,7,4
7114,-5,-6,-24,-39,-47,-69,-33,9
7114,-9,-3,13,12,-15,-18,-13,-59
7126,-7,-13,-8,12,10,8,18,47
7126,13,23,4,-5,3,13,3,-24
7135,2,3,12,13,26,33,6,19
7135,-7,-5,1,9,0,17,33,1
7150,-2,3,5,-7,0,8,-5,-24
7150,-3,-1,-2,-7,-19,-43,-27,-12
7151,2,-18,-8,-2,1,1,5,16
7151,13,15,-12,-13,-3,-1,-7,61
7180,-7,-9,-3,-13,-13,-8,-2,-44
7180,-3,9,5,11,7,6,0,14
7181,-3,-5,0,4,23,35,4,-4
7181,-13,-28,-2,-11,-11,-13,0,20
7202,10,28,-3,11,-20,-22,-6,-36
7202,-1,6,-1,-1,-4,-17,-25,-4
7204,4,0,2,0,6,2,2,-9
7204,0,-2,-9,12,21,39,15,-16
7210,-2,-6,-2,-12,11,35,1,37
7210,0,-15,0,-16,-29,-40,16,48
7213,-9,3,-11,22,-18,-42,-21,-11
7213,5,-8,-2,1,6,4,-7,-19
7232,-4,-5,5,0,12,13,-2,1
7232,-6,-8,8,16,12,19,2,-24
7238,-4,-17,-7,-11,-8,-6,9,20
7238,19,34,13,0,0,9,2,2
7247,-7,-3,-2,-3,-13,-27,-17,-23
7247,-11,-16,-16,-14,-2,0,-3,-9
7261,0,6,15,18,11,16,8,-36
7261,1,4,1,-6,6,16,-3,4
7270,-2,-10,-17,-26,-19,-27,-6,-57
7270,8,6,7,18,1,-9,-2,82
7271,-6,-16,7,7,5,-2,-4,5
7271,0,4,-11,-4,-4,-1,2,-8
7292,-4,1,0,4,24,38,8,10
7292,-6,-12,-13,-11,-20,-35,-13,-57
7294,18,29,14,4,-21,-15,3,15
7294,-6,4,4,4,15,20,3,3
7315,-5,-1,0,6,-7,-14,-3,14
7315,-9,-9,-10,-7,0,-10,-6,-42
7317,4,2,7,-3,5,20,4,69
7317,-13,-21,-1,17,-18,-37,-20,-49
7330,10,11,-12,-15,6,7,10,27
7330,1,-5,15,25,15,38,16,18
7331,2,-1,-2,-9,6,-6,-1,-11
7331,-5,-4,-14,-9,0,8,-1,14
7353,-5,1,8,9,10,14,-7,-35
7353,2,-4,6,-6,-18,-14,-9,-28
7354,-2,-4,-9,-17,-22,-43,-8,42
7354,3,-2,-5,16,6,0,-6,-32
7365,2,13,5,0,-6,-14,-10,-3
7365,-3,-2,1,-1,21,43,15,4
7382,-5,-4,6,5,12,6,6,-20
7382,3,-2,-15,-32,-22,0,9,18
7390,-2,-3,1,4,-19,-32,-7,11
7390,-2,12,8,5,-1,-12,-17,-28
7395,-1,-4,-11,7,17,24,6,11
7395,-5,-7,0,0,25,40,16,8
7412,6,-4,3,-12,-17,-5,3,8
7412,-7,-9,-10,-10,-33,-50,-27,-36
7414,8,-2,-9,-25,-1,-8,13,42
7414,3,34,13,36,-4,-15,-16,9
7426,-4,-15,-1,7,11,20,-1,-13
7426,1,0,-5,7,19,41,13,-3
7435,2,16,3,0,4,-6,-8,-18
7435,-8,-18,-11,-27,-23,-15,0,-8
7465,4,7,2,-3,-9,-24,-7,19
7465,0,1,-9,-10,4,10,7,-9
7467,-10,-5,9,18,11,17,6,-31
7467,10,19,5,-15,-14,-16,-6,9
7480,-5,1,-3,11,-7,-24,-7,-3
7480,-5,-16,-7,-9,-1,-1,-5,2
7481,-4,-4,2,6,9,24,4,-8
7481,3,-3,9,0,7,5,4,25
7495,-3,0,-2,-2,5,13,8,-21
7495,1,5,-5,-6,-14,-24,-5,-14
7501,-1,-8,-8,6,-6,-20,-11,-26
7501,-2,-7,-3,-3,3,5,-2,1
7517,0,-2,-6,-4,3,0,3,16
7517,-5,-13,0,-6,-2,7,2,25
7524,4,11,3,15,-2,11,-2,-3
7524,1,-14,-3,-14,-8,-16,1,-9
7532,-3,-2,14,18,-2,-4,-5,-4
7532,-4,-3,-12,5,11,11,3,-9
7533,-3,-2,1,-10,-3,-1,-5,-16
7533,-8,-12,-3,-6,-2,4,-1,-24
7546,5,0,0,-9,-6,-6,7,12
7546,-2,1,-1,-5,-1,-3,0,-10
7564,2,5,-4,3,0,10,-1,14
7564,-7,-13,7,12,18,6,3,0
7570,1,1,-7,-16,-23,-26,-6,-23
7570,4,15,5,1,-12,-18,-7,13
7571,-6,-12,-8,-4,7,7,-1,-9
7571,-4,-10,-4,-2,-5,-1,-6,-3
7592,0,1,-7,10,6,6,-3,-19
7592,3,-3,3,5,5,12,7,3
7594,2,2,3,1,5,7,9,59
7594,-3,-1,0,-6,-14,-15,-8,-12
7606,-4,-2,-4,-15,-2,-4,-1,5
7606,2,2,-2,4,5,8,0,7
7615,0,1,2,-5,-7,-8,-4,-28
7615,2,4,1,5,0,-6,0,6
7638,1,1,-4,-2,1,7,3,23
7638,-1,1,3,2,5,4,3,-3
7639,-3,-2,-1,-2,-5,-4,-4,-3
7639,0,-1,-3,-2,-4,-5,-4,5
7653,-2,2,-2,-11,-3,-8,2,-3
7653,-2,-1,-3,-8,-6,-3,0,4
7655,-3,-1,10,12,3,7,-2,-5
7655,-4,-7,-6,4,2,-4,-4,0
7666,0,8,-1,-3,-2,3,-6,4
7666,-2,-2,-4,-3,0,-2,4,5
7683,-3,2,-3,-5,3,7,-7,-6
7683,2,2,4,-1,-3,-7,11,5
7690,0,-2,1,-6,-1,0,-2,4
7690,-4,-3,-4,-3,-6,-10,-3,-10
7703,0,0,-8,-13,-4,15,6,9
7703,-1,1,4,4,3,2,-5,-30
7720,-6,-5,0,6,-8,-23,-8,-1
7720,-1,1,1,-13,-6,-12,-6,-7
7722,0,-2,-3,10,4,3,3,3
7722,1,2,-2,-3,13,14,3,-4
7726,0,0,-1,-3,2,9,6,-1
7726,1,0,3,5,-1,-6,-3,-7
7736,-4,-4,-4,-7,-16,-13,-9,-14
7736,0,-1,-4,-7,0,2,2,17
7749,2,0,2,3,3,4,-5,3
7749,0,-2,1,7,1,8,3,6
7758,-2,0,-1,-5,1,3,5,-2
7758,0,1,1,1,-9,2,-5,6
7772,-5,-2,0,0,-4,-19,-9,-11
7772,1,1,0,-8,-6,-1,-3,2
7774,1,-1,-10,-14,-8,-11,-3,-2
7774,1,0,11,16,4,4,1,5
7795,-1,-3,-15,10,13,17,-2,-7
7795,-1,7,29,7,7,3,4,0
7796,1,1,-4,-10,-5,-13,-6,-4
7796,1,-4,-4,-9,6,14,3,6
7809,5,-1,-1,0,1,-7,3,0
7809,1,2,-8,-2,-8,-13,1,2
7816,-4,-4,-3,1,-4,0,-1,-7
7816,-5,0,0,-6,-14,-24,-8,-7
7833,-2,-2,1,4,12,19,6,-2
7833,1,-5,-4,3,15,21,-1,-11
7834,6,4,8,16,-4,-10,7,44
7834,-3,0,-9,-13,-14,-5,0,0
7855,-8,-4,-8,3,-2,-7,-5,-30
7855,6,0,-15,-14,-13,-5,-7,23
7857,-3,-3,13,11,13,10,-1,-21
7857,5,-1,-4,-6,-2,5,0,9
7870,-2,-1,-8,-3,-3,-15,3,3
7870,-6,2,19,-1,0,4,2,-21
7876,2,-4,-3,2,-1,-5,-3,6
7876,0,13,7,-3,-2,-8,-5,-12
7893,-1,-13,3,-13,-7,-2,-4,-11
7893,-9,-4,-15,7,2,-11,-6,-10
7894,3,0,-12,-6,-3,-1,9,59
7894,-4,-4,30,13,12,11,7,-10
7915,-1,13,6,-3,2,15,3,7
7915,-15,-5,-25,-2,5,23,3,-32
7916,32,4,0,-3,-11,-48,-8,60
7916,-1,-4,-15,-16,-11,-9,-6,28
7929,6,2,-6,-2,16,17,6,6
7929,-5,-2,14,8,-8,3,4,-11
7938,-16,-12,1,7,9,20,-7,-59
7938,5,11,-2,10,3,-20,-2,11
7953,-4,-2,3,0,-6,-10,-6,5
7953,0,-3,9,-2,5,1,-3,2
7954,1,8,-18,-6,2,6,-2,-12
7954,-2,0,-4,-5,2,5,3,-4
7975,-4,-12,-7,14,15,14,5,4
7975,0,1,4,-14,-28,-26,-6,-16
7976,-3,-6,7,8,10,15,-6,39
7976,-6,8,16,-2,0,-28,-5,1
7988,7,-6,9,-6,-11,8,4,47
7988,9,-7,-10,2,1,-17,-5,15
7998,-10,-3,-1,2,4,-4,-4,-21
7998,4,-1,-14,14,6,19,1,-11
8013,-2,-1,0,-21,-12,3,-2,-7
8013,3,1,4,-3,-3,5,8,14
8014,-12,-8,9,12,-9,-1,-7,-56
8014,8,-4,-7,7,12,-11,6,29
8034,2,-1,3,7,-1,-1,-10,-32
8034,1,-3,-13,16,8,-2,9,54
8036,3,0,1,-16,9,32,1,-24
8036,-3,-6,-5,-16,-32,-20,0,-6
8049,-2,5,0,-2,-1,-8,-10,-29
8049,-1,-3,-10,-6,2,4,-3,-3
8057,-1,3,-2,-2,-3,-6,5,43
8057,-6,-7,-1,-6,3,7,-5,-5
8072,1,3,8,11,-2,-4,3,5
8072,1,4,-10,-6,4,6,1,-11
8073,-2,5,2,6,2,0,6,-15
8073,-2,-4,-4,19,26,48,2,-7
8095,-6,-2,-8,-40,-49,-68,-7,-7
8095,-7,-6,6,9,0,-9,-13,-11
8096,9,21,-1,-13,-4,14,2,0
8096,-6,-9,-2,-1,0,-7,-6,-20
8117,4,-2,-3,10,16,29,5,74
8117,9,5,7,-9,-9,4,9,23
8120,-6,-5,-4,2,-18,-48,-8,-21
8120,-8,-8,-3,-15,-4,15,-18,-56
8132,7,6,13,18,13,10,21,46
8132,0,-7,-16,-29,-19,-26,-12,13
8134,3,-3,-13,13,8,9,9,22
8134,1,3,30,2,5,-3,2,-13
8155,0,3,6,-5,-12,21,0,-32
8155,4,-2,-11,0,15,0,3,2
8156,-5,-5,5,2,-6,7,0,-16
8156,-7,-5,-15,7,-2,-23,-9,20
8168,-5,-2,-6,-16,-1,20,-10,-46
8168,5,2,16,18,15,0,10,35
8178,0,-3,-6,-3,-2,0,2,-16
8178,0,-3,-18,-45,-42,-28,6,18
8192,-9,-4,1,6,10,-3,-25,-50
8192,-10,1,2,16,-1,1,-4,46
8194,13,1,8,9,15,13,1,-12
8194,2,0,-5,1,-2,16,11,2
8215,0,2,3,2,6,-5,7,8
8215,-7,0,-1,-5,-9,-10,-7,-45
8216,-11,-3,2,1,-2,-12,-3,-8
8216,-2,-4,-25,25,14,-6,-9,1
8228,3,-4,-3,-33,-33,-8,3,0
8228,6,1,1,-3,11,30,3,-3
8237,-19,-5,2,-7,2,-13,-1,-20
8237,-1,5,6,11,-3,4,-8,-115
8252,31,-5,6,5,1,-20,25,113
8252,-7,-3,2,-7,-12,-14,-16,-84
8254,3,1,4,1,2,-2,-9,-17
8254,-8,-19,12,22,22,15,8,12
8275,-9,6,11,25,14,6,-2,-18
8275,-5,-5,-2,-7,-9,0,0,18
8277,3,-1,-14,5,3,1,3,-6
8277,0,1,-2,-29,-20,0,-3,26
8288,-16,-7,-14,-3,-7,1,6,-29
8288,-16,-9,-15,-7,14,15,-30,-40
8313,11,-5,-1,5,-16,-56,1,-40
8313,4,27,5,-18,-11,8,4,-1
8313,-4,-2,3,10,-1,5,-4,-18
8313,-6,2,5,-8,1,11,12,-14
8319,-8,-3,-29,-4,19,14,-13,-45
8319,18,-4,44,8,9,3,12,102
8334,-11,-12,-14,-21,-24,-19,-11,-40
8334,9,5,14,22,16,-3,4,7
8337,-7,-4,2,3,4,12,-13,-30
8337,1,16,-8,30,25,-3,-2,2
8349,-13,-10,-33,-42,-12,2,9,37
8349,10,2,18,3,-28,-17,1,35
8357,3,-8,-22,-20,-10,9,14,39
8357,-15,-6,21,21,27,1,-30,-116
8373,16,27,22,-11,-26,4,41,78
8373,-2,-14,-33,-6,12,-8,1,25
8374,1,13,16,-24,-24,1,-8,11
8374,0,-13,-23,1,9,-7,1,-9
8402,3,28,-8,-5,3,9,-9,-28
8402,-24,-11,-4,-7,-3,-19,-25,-112
8404,23,10,16,21,5,4,14,98
8404,-1,-6,-14,-16,-13,-12,-9,2
8409,1,-13,-4,26,20,3,-4,-36
8409,-7,0,-17,-8,8,37,5,-39
8417,-42,-10,-8,11,2,-31,-26,-128
8417,48,5,11,-19,-29,6,46,43
8433,-27,-26,-24,14,7,-28,-35,-81
8433,8,-28,-2,-10,-19,10,6,-1
8434,-4,52,0,-16,-3,1,-15,-82
8434,-2,6,-21,3,6,1,-5,18
8455,21,10,49,26,18,18,24,58
8455,20,-1,10,5,10,-6,3,70
8456,-39,-28,6,-19,-17,7,-4,-70
8456,44,43,-8,-15,0,3,28,81
8469,18,-9,-20,41,19,4,-12,-44
8469,-16,76,16,2,-22,-24,-20,-90
8477,4,-15,22,-3,-11,-9,8,68
8477,10,-12,-18,16,27,22,16,-16
8490,-15,-6,0,-24,-12,3,-13,-55
8490,19,-20,-32,-40,-6,-26,13,21
8500,-17,-24,-29,21,17,10,-12,24
8500,-54,-21,33,0,-28,-2,-30,-92
8514,1,-9,16,43,27,10,4,-23
8514,32,9,-1,-7,-18,-15,21,41
8517,7,-15,-51,-60,-21,-3,-7,-63
8517,-1,-33,-6,0,-2,-4,7,-45
8528,27,50,38,32,12,13,-12,-75
8528,-22,-25,30,26,1,3,-3,-9
8537,16,-3,12,21,8,-1,8,26
8537,-25,-17,-69,-70,-22,-12,-13,-27
8551,-33,-32,-40,-69,-25,-21,-19,-1
8551,13,16,33,26,17,18,10,-18
8559,16,11,47,48,13,10,17,50
8559,-49,-32,16,29,-2,-15,-46,-128
8575,26,15,-38,-55,-10,-2,43,54
8575,-3,-4,-47,-22,0,-8,-4,-58
8577,-4,8,-32,-34,9,8,-13,4
8577,8,14,80,43,-8,5,8,21
8588,-18,-10,8,20,11,-17,-15,-83
8588,2,2,1,24,19,14,9,98
8597,7,-2,-36,-40,-42,-10,-3,-11
8597,7,9,-42,-35,-2,-5,4,26
8611,17,7,50,41,1,-17,10,44
8611,-21,-19,47,32,7,-3,-25,-66
8618,-1,6,21,30,19,17,-5,4
8618,0,7,-29,14,12,10,10,19
8635,-4,-19,4,-31,-12,6,1,22
8635,0,-16,-76,-64,-19,13,20,1
8636,-2,-4,9,7,-5,-20,2,-61
8636,-3,3,-4,-9,-7,-11,-22,8
8665,-20,-4,-10,-8,3,-7,-14,26
8665,11,17,32,28,-1,8,-4,-1
8667,14,5,35,-8,-5,13,16,0
8667,-16,-14,6,22,17,4,-4,34
8680,-8,-3,7,22,2,9,-12,-54
8680,2,-2,-9,3,30,0,26,48
8681,-7,-6,-15,-4,-20,-16,-13,70
8681,-3,-4,8,-39,-39,-19,4,-7
8703,5,11,-12,14,50,1,-5,45
8703,-17,-11,-9,-21,-45,-7,-5,-25
8704,-2,-26,25,-15,6,-3,-6,-19
8704,-5,-4,10,51,21,11,-7,-49
8718,35,56,36,-23,-27,12,13,64
8718,0,-4,-58,-54,2,7,4,-86
8719,-2,-2,-11,-4,13,-10,-6,96
8719,-3,-11,2,42,10,-7,-10,-10
8732,-15,-20,16,-5,-33,-18,-12,-33
8732,-15,0,12,23,5,-2,-9,-54
8738,41,19,33,36,11,25,16,46
8738,-5,-1,-52,-34,3,11,26,-4
8755,-10,-6,-29,-22,-24,-17,-5,-32
8755,-7,-3,29,19,-3,-21,-20,-30
8757,-13,-17,-25,-14,6,4,-4,-33
8757,8,17,3,-3,6,7,-3,-43
8778,1,-12,-68,-14,8,18,15,77
8778,-21,-29,29,-15,-20,2,-15,-23
8779,28,28,23,23,20,-15,41,73
8779,-9,15,-1,5,-2,0,-24,-61
8792,-17,-26,-8,-13,-23,-3,-14,-70
8792,-36,-26,-84,-18,-1,-17,-32,-84
8798,34,13,46,-2,-6,6,30,66
8798,-8,-3,24,8,0,3,-9,-31
8815,-1,5,60,20,6,-1,12,41
8815,-14,3,0,25,21,-9,-34,-62
8818,34,3,-30,-28,-9,27,38,-30
8818,22,4,-39,-29,-38,-13,-5,-85
8837,-22,-28,-98,-40,8,-23,-5,-13
8837,38,49,98,27,19,41,34,24
8838,-57,-17,0,32,2,-10,-40,-103
8838,19,-7,-76,-66,-34,-11,4,29
8852,0,2,51,9,13,13,18,-42
8852,3,-23,-6,18,3,-2,5,22
8866,-42,-12,5,-12,-22,-24,-7,-120
8866,17,51,64,70,52,16,-17,26
8875,-6,-29,-98,-11,-22,-3,-15,-1
8875,25,34,37,22,22,17,30,96
8876,0,10,22,-5,1,10,-2,-67
8876,-17,-29,-19,-29,-17,-22,-17,87
8898,24,12,-16,-17,-2,-2,16,-18
8898,6,0,7,-13,-12,4,-7,-28
8900,-26,-26,-79,-24,-15,-23,-7,-42
8900,5,0,30,-4,10,-1,19,52
8927,11,16,54,43,7,17,9,57
8927,-30,-18,1,23,4,9,-18,-81
8929,8,6,18,14,-11,-8,33,97
8929,46,-1,-14,-65,-22,-26,14,107
8950,-5,6,-27,2,19,12,-15,-25
8950,2,3,8,-7,-5,-10,-2,-1
8952,1,-1,-16,10,12,18,-6,-23
8952,-20,-4,48,5,-1,5,9,-43
8958,-20,-27,1,2,-9,-18,-19,-40
8958,2,10,-5,12,7,-1,-21,-30
8959,-7,-6,-55,-19,-12,-2,-7,73
8959,-19,-16,-3,-22,-21,-12,-6,-32
8971,8,30,63,25,-3,-10,-9,8
8971,-8,0,39,-11,1,11,-3,-102
8980,0,-2,-5,16,17,2,-12,-6
8980,0,-6,-28,3,-11,0,20,87
8995,8,0,-1,-28,-5,10,0,-36
8995,6,-4,-29,-9,-5,-12,21,18
8996,-4,2,19,12,14,-4,-14,-44
8996,2,14,24,12,5,19,1,-10
9018,-1,-3,-4,23,13,-4,2,-8
9018,3,-3,-24,-12,-12,-8,-2,2
9019,-14,-20,-9,-17,-11,-11,-15,7
9019,-19,8,7,23,13,13,-8,-128
9032,-11,-5,-5,-4,-9,-13,-23,-66
9032,4,-2,-38,-32,-11,-10,8,37
9038,1,4,16,29,9,-2,-10,-25
9038,-1,-8,22,5,-5,1,3,-23
9055,-13,2,10,24,20,6,-1,58
9055,22,11,4,-11,-14,13,11,31
9057,1,0,-20,-2,11,11,3,-15
9057,-2,-6,-47,-20,-17,-23,8,-12
9077,-9,-10,40,14,5,-16,-18,-56
9077,21,8,-14,7,-1,-4,16,127
9078,2,4,35,1,-1,8,-7,-13
9078,7,0,5,7,11,10,4,-45
9092,-12,4,-12,-7,-5,7,-18,-69
9092,19,-4,-10,2,13,-7,35,92
9099,4,7,-7,-16,-27,13,11,1
9099,-10,-1,22,1,11,-4,1,38
9115,16,-2,-14,-7,-4,-7,4,-24
9115,-8,-4,8,2,-4,-6,-17,8
9121,-1,9,3,-1,5,-3,5,-17
9121,-1,-22,-25,9,-4,-7,-9,22
9137,3,4,2,3,12,7,5,17
9137,-2,-2,-26,-38,-15,3,5,14
9144,-2,-9,16,-13,-9,-6,-5,0
9144,-1,8,27,10,6,1,-5,-7
9151,0,-3,-2,-1,1,4,4,15
9151,-15,-4,-11,15,5,-5,-12,-39
9160,3,5,0,-8,-1,-3,-6,-24
9160,-30,-7,-8,-4,2,-2,-22,-82
9175,19,-12,-16,-2,-2,6,60,95
9175,-10,8,19,6,-1,-1,-6,-80
9176,6,9,0,-2,-6,2,-4,-41
9176,5,-2,1,4,5,3,8,-6
9198,-33,-3,23,0,-9,-11,-22,-78
9198,11,-10,-15,-3,-6,-8,-21,54
9199,-14,3,10,2,8,12,11,-112
9199,44,14,-34,-5,-4,-4,-5,9
9219,8,2,28,-6,-3,0,8,18
9219,-32,-14,2,2,-2,-6,-23,-108
9227,-17,-6,-12,-2,2,-3,-12,-23
9227,14,12,11,6,5,9,19,15
9243,-6,-16,-31,-10,-7,-3,-20,-24
9243,6,4,6,3,-4,-7,-3,20
9244,-11,-11,-8,-1,-6,-5,-22,-5
9244,-12,-2,5,-2,0,3,16,-1
9258,1,8,8,0,-1,-2,-13,-30
9258,-7,-1,4,1,1,3,10,-3
9259,6,-4,-9,-6,-3,-2,11,76
9259,-12,-4,4,4,1,-3,-5,23
9271,10,7,-12,-6,-1,6,-6,-17
9271,-1,-3,-2,1,2,5,19,-3
9280,4,-4,-1,-7,0,-4,-13,-11
9280,-8,-7,-4,9,-3,-6,-11,4
9295,-5,-1,-6,-2,-1,-2,3,10
9295,4,1,2,2,-1,1,-4,-19
9296,9,2,-3,1,2,2,10,5
9296,-5,1,6,-3,2,-2,-8,1
9326,-3,1,-4,-4,-1,1,-1,-37
9326,4,0,2,1,0,-1,1,98
9327,2,0,-2,0,1,-3,0,34
9327,-5,-5,-3,-4,-3,-2,6,-11
9333,-3,2,-1,0,-3,-5,-3,36
9333,-1,0,-2,2,1,-3,-9,-49
9340,-1,-2,1,0,1,-3,-3,-31
9340,3,-1,-1,-3,0,2,0,-62
9355,-4,-2,-2,-3,-1,-3,-3,-73
9355,-12,-1,-1,-1,-1,1,2,-40
9356,11,2,-1,0,-2,-4,1,-13
9356,-12,-2,-3,-1,-4,-4,-13,-76
9378,4,2,2,0,0,-1,-1,33
9378,14,1,2,2,4,9,31,107
9379,-1,-4,-2,0,-3,1,-2,-13
9379,2,-4,-1,-1,-1,0,-6,16
9391,0,-2,-2,-3,-3,-3,-8,2
9391,-2,-2,1,-3,-1,-3,-10,-19
9400,0,-2,0,1,1,-1,-1,12
9400,3,0,-1,0,1,2,5,45
9423,-1,0,-4,-2,-1,2,-1,7
9423,5,4,4,3,0,-1,-5,-14
9424,-6,-5,-11,-6,0,4,-3,-30
9424,5,2,2,-6,-2,2,-2,21
9439,-1,2,-3,-1,-3,2,6,19
9439,-4,-3,-2,-1,-5,-4,-10,-38
9440,-3,-1,1,1,-4,-2,-7,-11
9440,-2,-3,-2,-1,-4,-4,-3,-17
9451,1,-3,-2,-1,-6,-1,0,-7
9451,-1,-2,-3,-3,-5,-3,-5,5
9460,-1,0,-2,0,-2,-1,-2,4
9460,-1,-1,-2,0,0,-2,4,26
9474,-2,-2,-1,-1,0,0,-1,4
9474,-10,-4,-4,0,2,-1,-12,-50
9481,10,3,2,2,0,2,13,85
9481,-5,-2,-2,-1,-4,-1,-1,10
9497,-4,-2,-2,-2,-2,-2,-2,-14
9497,-1,-2,-3,-1,-3,-3,-7,-25
9499,-7,-2,-3,-3,-2,-5,-5,-16
9499,1,2,-2,-2,0,-1,0,13
9510,-2,-1,-1,-2,-1,-2,-2,3
9510,-1,-1,0,0,-3,-3,-1,-3
9520,-1,-1,0,1,-1,-2,1,-12
9520,-2,-1,-3,0,-2,-2,1,-13
9534,-5,-2,-3,-2,-2,-2,-5,-27
9534,9,2,0,2,1,0,7,44
9541,2,0,0,0,-2,1,-5,-9
9541,-2,-2,-3,0,0,-1,-2,0
9557,-1,0,-2,-2,1,-1,-1,-6
9557,-5,-2,-1,-3,-3,-2,-1,1
9565,-3,-2,-2,-3,-2,-4,1,7
9565,-4,-1,-2,-1,0,-1,1,1
9571,0,-1,-1,-1,0,-1,-1,6
9571,1,0,-2,-1,-1,-3,-3,-32
9580,-4,-2,-2,-1,0,-1,-2,-8
9580,-4,-1,-3,-2,0,-1,-1,-5
9594,1,-1,-1,2,1,0,1,2
9594,-4,-1,-2,-1,1,-1,0,-9
9601,-1,-2,-3,-2,1,-2,-2,-16
9601,-1,-3,-2,-2,-2,-2,-1,-4
9618,-1,-1,-3,-2,-3,-1,-1,-6
9618,7,0,2,0,-2,0,-1,4
9620,-1,-1,0,0,-3,-1,-5,-1
9620,-1,-1,0,0,-2,-1,-2,5
9631,0,-1,0,-1,-3,-2,-3,12
9631,-2,0,-1,-1,-2,-1,4,19
9640,-4,-4,0,-2,-1,-2,-5,-25
9640,3,-1,0,0,1,-1,-2,-24
9655,0,0,-2,0,0,2,11,76
9655,-1,-1,-1,-1,0,-2,-5,-14
9661,0,0,-1,2,-1,-2,-2,7
9661,-1,0,0,-2,-2,-1,-5,-17
9678,-4,0,-2,-1,-1,-2,-6,-31
9678,-4,-1,-3,-2,-3,-1,-3,6
9679,-2,0,-2,-1,-2,-1,-3,-4
9679,-1,0,-2,0,0,0,0,11
9699,-1,-2,0,-1,-1,0,-4,-28
9699,1,0,1,0,2,3,5,39
9702,-1,-1,-1,-1,0,0,0,-4
9702,-1,-2,1,-2,0,0,2,11
9713,-2,-2,-1,-1,-1,-2,-1,-11
9713,-2,-2,-2,-1,-2,-3,-3,-22
9723,-5,-1,-1,-1,-1,-1,1,2
9723,3,1,0,1,-1,1,1,17
9737,-2,-1,0,0,-2,-2,-2,-5
9737,-1,-2,-1,0,-2,-2,-3,-5
9739,-1,1,0,-1,0,-2,0,-2
9739,1,-2,-1,-1,-1,-1,4,5
9760,0,0,-1,-1,-1,0,-3,-7
9760,-2,0,-3,-1,-1,-1,-1,-2
9762,2,0,-1,0,-2,0,-3,2
9762,-3,-1,-2,0,-1,-1,-3,-2
9773,2,-1,0,-2,0,0,-3,-1
9773,-2,-2,-1,-1,0,-1,-2,-2
9783,0,-1,-1,0,-1,-1,-1,4
9783,-3,0,0,-1,-2,-1,-1,2
9797,-1,-1,-2,0,-1,-1,1,-8
9797,-3,-1,-3,-3,-3,-3,-2,-11
9798,2,-1,-2,-1,0,-1,0,2
9798,-1,-2,0,0,0,0,-2,5
9836,-1,-1,0,1,-2,-1,-4,-6
9836,-3,0,0,-2,-1,-1,-5,-4
9837,3,-1,-1,0,0,-1,0,-2
9837,0,0,-2,-1,0,0,1,0
9838,-3,-1,-2,-1,1,-2,1,0
9838,-4,0,-1,0,-1,-2,-4,3
9843,3,0,1,-1,-1,0,3,-46
9843,1,0,-1,-1,0,2,4,46
9857,0,-1,-1,-2,0,-1,1,-6
9857,2,-1,-1,1,-1,1,-1,7
9858,-5,-1,-2,-2,-1,-3,-7,-21
9858,0,-1,0,0,-1,-1,-1,-15
9879,-1,0,-1,-2,-2,0,-1,7
9879,-2,-1,-1,-2,0,-1,-1,-18
9886,-1,-2,-2,-1,-2,-1,-2,19
9886,-1,-1,-2,-2,-2,-2,-1,-8
9894,-1,-1,-1,0,0,-3,0,12
9894,1,-1,-1,-1,-2,-2,3,-7
9902,-1,-1,-1,-1,-2,-1,1,13
9902,-3,-2,-2,-1,-2,0,0,4
9916,-2,-2,-1,-2,-2,0,-4,-14
9916,2,1,-2,0,-1,1,1,3
9925,-1,0,-2,-2,0,-1,1,13
9925,-3,-2,-1,-1,-3,-2,-4,-15
9940,-1,-1,-1,-1,0,0,-1,1
9940,3,0,1,0,-1,-2,0,0
9941,-1,-1,0,-1,0,0,-1,2
9941,-3,-3,-1,-3,0,-2,-7,-4
9953,4,1,1,1,1,1,4,26
9953,-2,0,-1,-1,-2,0,4,9
9962,-1,0,1,1,-1,-1,2,24
9962,-1,1,-2,1,0,-1,-3,-16
9978,0,0,-1,-2,-1,0,2,18
9978,-2,-2,-2,-3,0,0,-3,-12
9979,0,-2,-2,-1,1,-1,-1,-2
9979,0,-2,-1,1,0,-2,-1,-6
0,1,-2,-2,-3,-3,-3,-1,-2
0,1,-2,0,0,-1,-1,1,-6
2,0,-1,0,-2,-2,-1,-2,3
2,-1,0,0,0,-1,-2,-1,-6
13,-3,-1,-1,0,1,-1,-5,-6
13,4,0,-1,1,-1,2,2,43
23,-2,0,0,-2,-2,0,-3,-13
23,-1,0,-1,-1,-1,-1,0,0
37,-4,-2,0,-3,-1,-1,-2,-4
37,-2,-2,-2,-1,0,-2,-3,-12
39,-3,-3,-1,0,-2,-2,1,5
39,-1,0,-2,-2,-1,0,0,-8
60,0,-1,-1,-1,-2,0,-2,-16
60,-3,0,-1,-2,-1,-2,-4,-7
61,-3,-1,-2,0,-1,-2,-2,-5
61,-2,-1,-1,0,0,-1,1,4
73,-2,-1,-1,-1,-1,-1,1,-9
73,-2,-1,-1,0,1,2,-3,-5
90,-1,0,-1,0,-1,-1,0,2
90,2,0,0,-2,0,0,-3,-3
97,1,-1,0,2,-1,-4,0,-1
97,-1,-3,-2,1,-1,0,-2,-11
99,-1,0,-2,-1,-4,0,-1,15
99,-1,0,-2,-2,0,1,0,1
128,2,-2,-2,0,1,-4,-1,-2
128,-1,-1,2,0,-1,-2,0,-2
129,0,0,-1,0,-1,-1,-3,-6
129,0,-1,0,-1,-2,1,-1,2
133,-2,0,-1,-3,-1,0,-2,1
133,-3,-1,-1,0,-1,-2,-1,-2
142,0,-1,0,-2,-2,1,-2,-4
142,0,-1,-1,-2,-1,-1,1,1
157,-2,1,-1,-1,-1,0,-1,-6
157,1,-1,-3,-2,0,-1,-1,-2
159,1,0,-4,-1,0,1,1,-4
159,-1,-3,0,0,-2,-1,-1,-1
180,-3,-3,0,0,-2,0,-3,-2
180,-3,-2,0,-2,-1,0,-1,-1
181,-3,-1,1,-2,0,-2,0,-2
181,-1,-1,-2,0,-1,0,-2,-6
193,1,0,-1,1,-1,-2,0,5
193,1,-1,0,0,-1,-2,1,-3
202,1,-1,-1,0,0,0,0,8
202,-3,-1,-1,-2,-2,-1,-4,-13
218,-1,-1,-2,-2,-1,1,1,2
218,-1,-1,-1,-3,-2,-1,-5,-11
219,0,0,-1,0,0,-1,0,9
219,1,1,-1,-1,-1,-1,0,-9
240,1,-1,-2,-1,-2,-1,1,2
240,-2,-1,0,-3,-3,-1,0,-4
241,-4,-3,0,-1,1,-1,-1,-9
241,-1,0,1,1,0,-1,2,9
254,-3,-1,-1,-1,-2,-1,-2,-10
254,-1,-2,-2,-1,-2,-1,1,5
262,-3,0,0,-1,-2,-2,-3,-4
262,-2,-1,-2,-1,-1,-1,-1,5
285,-1,-1,-2,-3,-2,-1,-1,-4
285,0,-1,-1,0,-1,-1,0,4
286,1,-2,-1,-1,0,0,0,1
286,-1,0,-1,-1,-1,-1,-1,0
300,-2,-3,-2,-2,-1,0,-1,-4
300,0,-1,-2,1,-1,0,-1,7
301,-2,0,-3,0,-4,0,0,-6
301,-1,-3,-2,-1,-2,0,0,-5
314,-2,-1,-1,0,1,-2,-1,10
314,-3,0,-1,-2,-3,-2,-2,-3
323,1,-1,-1,-1,0,-1,-2,-11
323,0,-1,0,1,0,-1,-1,11
345,0,0,0,1,-1,-2,-1,-2
345,-1,0,-3,-1,-1,-2,-2,-1
346,-1,0,-2,-1,0,-1,-1,-3
346,-1,-1,0,-1,-1,-1,-2,-1
359,0,-2,-1,-2,0,-1,-1,-3
359,0,-2,-1,0,-2,-1,0,-4
362,-1,-1,1,0,-2,0,-2,-3
362,-1,-1,0,-2,0,0,-1,0
374,-1,-1,-1,-1,0,0,0,-1
374,-1,0,-1,-1,2,0,1,-1
382,-1,-2,-2,-2,1,-1,0,-6
382,-1,-2,-2,0,-1,0,0,3
397,0,-2,-3,-1,-2,1,-1,-4
397,1,-2,-3,0,0,-1,-1,-4
404,1,-2,-2,-2,-2,-2,-1,7
404,-5,-2,-1,-1,-3,-3,-3,-23
419,-3,0,0,-2,-3,-2,-2,8
419,-4,-1,0,-2,-2,-2,-1,-18
422,7,0,0,-1,-2,-2,5,64
422,-2,1,0,-2,1,-2,-4,-27
434,-1,0,-2,1,-1,0,3,16
434,-1,0,-1,0,0,0,-1,1
443,-4,-1,0,1,-1,-3,-2,-18
443,0,-2,0,-1,-2,-3,0,9
457,0,-2,-2,0,0,-3,-4,-19
457,0,0,0,-1,0,-3,-4,-1
464,-2,0,0,0,-1,-2,2,-8
464,1,0,-1,-2,0,0,1,8
480,-2,-1,2,-1,-1,-2,-4,-6
480,0,-3,-2,-1,1,0,0,5
481,-4,0,-2,-1,0,0,-4,-5
481,-1,-2,-1,-1,-2,0,2,11
493,0,0,0,-2,-2,-2,0,1
493,1,-1,0,0,0,-3,-1,8
503,-1,0,-2,0,0,1,-4,-17
503,-1,0,-1,-2,-1,-3,-1,-2
517,-1,-2,-3,-1,0,0,3,16
517,-1,0,-1,-1,0,0,-1,1
523,0,0,-2,-2,0,-1,-2,-5
523,0,-1,-1,1,-1,1,-4,-1
540,-3,-1,0,-2,0,1,-2,-5
540,0,-1,-1,-2,-1,-2,-2,3
542,-6,-4,-1,-2,-1,-1,-18,-31
542,0,1,-1,-2,0,-3,13,-5
554,-3,0,-2,0,0,1,9,-32
554,-4,-2,-2,0,-2,-1,-4,-18
563,-2,-1,-2,1,-2,1,3,3
563,-1,-2,-1,-2,-2,0,-9,-8
576,-2,-3,-2,-1,-2,-3,-5,-7
576,-2,-2,-1,-2,-1,0,0,-3
584,-2,-3,-2,-2,-1,0,1,-2
584,-1,-2,-1,-2,0,-3,4,22
607,-4,-2,-2,-3,-3,-3,-3,-52
607,8,2,1,1,3,4,13,35
610,-2,-2,-1,-2,-1,-1,-4,-10
610,1,-1,0,0,0,-1,-2,-2
623,-2,-2,-1,-2,-1,-2,-2,-1
623,-4,-3,0,-1,0,-1,-7,-20
624,4,1,0,0,-2,-1,-4,3
624,0,-1,-1,2,0,2,6,6
636,-1,-1,-1,-1,1,1,-9,10
636,-2,0,-1,-2,-3,-2,1,3
643,-1,0,1,0,-1,1,6,10
643,-3,-2,-1,-2,-2,-3,-5,-3
660,3,0,0,-2,-1,-1,1,16
660,1,-2,-1,0,-2,-1,-4,-1
661,1,-1,-1,-1,-1,-2,3,-10
661,-3,2,-2,2,0,-1,-5,2
682,2,0,-1,-1,0,1,4,2
682,-3,-1,-1,-2,-1,0,0,-1
684,-1,-1,-2,-1,-1,0,2,-1
684,-3,-1,-2,0,0,0,-1,0
696,1,0,-2,-1,-1,-3,0,10
696,0,-1,-1,-2,-1,-2,0,-1
704,0,0,0,-1,0,1,-1,-21
704,2,-2,-2,-1,-1,-3,-4,31
720,0,-1,-2,0,0,0,7,29
720,1,-2,-2,0,-1,-1,-2,17
722,-1,0,0,0,0,2,1,8
722,-1,1,0,-1,-2,1,-3,-21
742,-2,-2,1,-1,-1,-2,-8,-12
742,-3,-1,-2,-2,-2,-1,-2,-6
743,-2,-1,-1,-1,0,-2,-3,-16
743,-2,-2,0,-1,0,-4,-4,11
756,-1,-1,0,0,-1,-3,-6,-17
756,2,-1,-1,-1,-2,0,13,23
765,1,-2,-2,-1,-1,-2,0,0
765,-1,0,-3,-2,-4,0,9,-7
780,-2,0,0,-1,-1,-1,-5,1
780,-3,0,0,-1,-1,0,-2,-20
781,-1,-1,0,-1,-2,-3,-1,4
781,1,-1,-1,-1,-1,0,-4,-11
802,0,0,-1,-2,-1,-2,1,7
802,-2,-1,-2,-1,-1,-2,-5,-2
810,-2,-1,-1,-2,-1,-3,-17,-39
810,7,0,-1,1,2,4,25,79
816,-1,1,0,-1,-1,2,6,-20
816,-4,-2,-1,-1,0,-2,1,-9
825,-2,-1,-1,-2,0,-3,-5,7
825,-3,-2,-2,-2,1,0,-11,-31
841,-1,0,-1,-1,0,0,-1,0
841,1,-2,-1,-1,-1,-3,-2,18
842,-2,-3,-2,-2,-2,-2,-1,-10
842,-2,0,0,-1,-1,0,-2,-16
863,-3,-2,-1,0,0,-1,0,8
863,-2,1,-1,-1,0,-1,-6,-24
869,0,-2,-2,-2,0,-3,2,15
869,-1,-2,-1,-2,-1,-1,1,-5
876,-2,-3,-2,-1,-2,-2,-6,-26
876,0,-2,-2,-1,-4,-3,-4,16
885,1,0,-1,0,-1,3,17,26
885,-1,-2,0,-2,-1,-1,-6,-15
900,3,-1,-2,1,-1,3,1,13
900,-2,-2,-2,-2,0,-1,-6,-28
901,4,1,0,0,2,-1,5,28
901,-6,-2,-2,-1,0,-2,-8,-27
922,2,0,-1,-1,0,-2,5,34
922,1,1,1,-1,-2,0,-1,-30
924,0,0,-1,-2,-5,0,7,8
924,0,2,-2,-2,-2,1,-2,1
936,-2,-1,-2,-1,-2,0,-3,-17
936,-2,0,-1,1,-1,0,-3,4
945,-7,-3,-2,-1,0,-4,-4,23
945,4,0,-1,-1,-1,-1,6,-33
960,-2,-2,-1,-3,0,1,1,5
960,-1,-1,-1,-1,1,-1,-1,-2
961,-2,-1,-1,0,-1,-2,-6,-4
961,-1,-3,-1,1,-2,-1,-8,1
982,2,0,-2,-2,-1,-2,5,27
982,2,1,-1,-1,-2,-1,-3,0
