0,-1,-1,-1,-1,-1,-2,-3,-2
0,-2,0,-3,1,-2,-2,-1,-2
1,-2,-1,0,0,-1,-1,-2,-3
1,-2,-2,-1,-1,-3,-1,-2,-3
5,-1,-1,-1,0,0,-1,-3,-3
5,2,-2,-1,0,-1,0,0,-2
6,0,0,-1,0,-2,-2,0,-2
6,2,0,-1,-2,-2,-2,0,-2
11,-1,-1,-1,-2,-1,-2,1,2
11,-2,-1,0,-1,-1,0,-2,0
20,-1,-1,-1,-1,0,0,-1,1
20,1,0,-1,-2,-1,-2,0,1
27,1,1,0,-1,-1,-1,1,-1
27,-2,-1,-1,-1,-4,-1,-1,0
41,-3,-2,-1,-1,-1,-1,-1,0
41,5,0,0,-1,-1,0,-2,1
49,-1,-1,0,0,0,0,2,-1
49,-1,0,-1,-4,-2,0,1,0
72,0,-2,0,0,-2,-1,0,-1
72,-7,-4,-2,0,0,-3,-2,-2
73,1,3,0,0,1,-1,-2,-2
73,-2,0,-1,1,-1,-1,-1,0
119,-2,-1,-1,0,-1,1,-2,1
119,0,-2,-1,-1,-2,1,-1,-3
121,-5,-3,0,-3,0,0,-4,0
121,0,-1,-1,0,0,-2,-1,0
124,-4,-1,1,-2,-1,-2,-3,0
124,1,0,-3,0,0,-1,0,0
125,2,-1,-5,-3,-3,-3,1,-1
125,-2,0,-11,-2,-2,-1,0,-1
130,2,0,16,0,1,-1,2,1
130,-2,-1,0,-2,0,-2,-3,-2
138,2,-1,-3,1,0,0,0,2
138,0,1,-1,-1,0,0,-1,1
146,0,0,-5,-1,-1,-2,-1,0
146,-5,-2,-1,-1,0,-3,-2,1
161,1,-1,3,2,1,-1,0,2
161,1,0,2,0,0,0,0,0
167,-1,0,-5,-1,-2,0,0,0
167,-2,-2,0,-1,-1,0,-1,0
191,-1,-1,-4,1,-2,-1,0,-3
191,0,-2,1,-1,-2,0,-2,-1
193,-2,-2,-5,-1,-2,-2,-2,-4
193,3,1,-2,-1,-1,-2,-2,0
205,0,1,0,-2,-1,-1,0,-3
205,-2,-2,-4,-2,-1,-1,0,-4
221,1,-1,0,0,-1,0,0,-1
221,-3,-2,-2,1,-3,-2,-1,-2
229,-3,-1,0,-1,-2,-1,-1,-3
229,1,1,6,0,0,-2,0,-2
235,-1,1,-7,1,-2,-2,-3,-2
235,-3,-1,-4,-3,-1,1,0,-2
259,-1,-2,5,-1,-1,-2,-1,-1
259,-5,-2,1,-3,-1,-1,-1,-1
261,1,-2,2,-1,-1,-2,0,1
261,-1,1,-1,0,-2,0,-1,-1
265,1,-2,1,2,1,1,-2,-1
265,3,-2,-2,-2,-1,1,-2,2
289,0,-1,-1,0,-1,2,-2,-1
289,-1,1,1,-2,-2,0,-2,0
290,-1,-1,-6,-2,1,-1,-2,-4
290,-1,-3,-1,0,1,-4,-1,-1
292,-2,-4,-4,0,-3,0,-2,1
292,6,1,-2,-1,-1,-1,3,1
319,1,1,1,-1,-2,-1,0,0
319,-2,-1,0,1,-3,-2,-4,-3
321,0,-1,0,-2,-1,-2,-1,-3
321,2,-1,0,-1,-1,-2,-1,-1
334,-2,-2,0,-3,-3,1,-2,2
334,2,-1,1,0,-1,0,-4,-3
336,-3,-2,-3,-1,0,0,-3,-2
336,-4,-2,-1,0,0,-2,-7,-29
349,-7,-2,-2,-2,-2,-1,1,33
349,7,2,-1,1,1,1,2,-16
351,-2,-2,-2,-1,0,-2,-1,-4
351,0,-2,0,-1,1,-1,0,4
371,-3,-2,-1,-2,-1,-2,-3,-15
371,-4,-2,-2,-1,-2,-1,-2,1
374,0,0,0,-2,-1,-1,0,2
374,-2,-1,1,-1,0,-2,-1,-1
386,0,-2,-3,-1,-2,0,-1,-4
386,-3,-3,-2,0,-2,-2,1,10
394,2,1,-2,-3,0,-2,0,-7
394,-2,-2,-2,0,-2,0,-1,8
409,0,2,0,0,-1,0,0,-1
409,6,2,-1,0,1,1,2,3
411,-3,-1,0,-1,-2,-1,-1,-1
411,-4,-3,0,0,-3,-2,1,2
432,-1,-2,-2,-2,0,-1,0,-2
432,-6,-3,-3,-2,0,-1,-2,-6
433,-4,-1,-1,1,-1,-2,-2,2
433,-1,0,-1,-1,1,0,0,7
445,1,0,0,0,-1,-2,-4,-8
445,-2,-2,0,-1,0,0,1,1
455,1,-1,-2,-1,-1,1,-1,1
455,-1,2,-1,2,1,0,1,-1
469,-2,-2,0,-2,0,-2,-1,-4
469,-2,-2,-2,-1,-1,-1,-1,0
475,-3,-1,-1,-3,-1,-2,-2,0
475,2,1,-1,-2,-5,-1,-3,-2
492,-2,-1,-1,1,0,0,-2,-2
492,-3,-2,-1,0,-3,-3,-1,1
494,-4,-1,-1,-1,0,-2,0,-3
494,5,0,-1,0,-1,1,2,1
506,-1,-1,-1,-1,-3,0,1,-3
506,-2,-1,0,-2,-1,-2,-1,-1
514,-2,-1,-1,-2,-1,-2,-1,-3
514,-5,-1,-1,-2,-1,-2,0,1
529,-10,-3,-2,0,-1,-1,-3,-2
529,7,2,1,0,-2,-1,0,1
531,1,0,-2,-2,-1,-1,1,2
531,-4,-1,-1,-1,-1,-1,-1,0
552,-1,-1,0,0,-1,-1,-1,-3
552,3,0,-1,-2,-2,0,-1,3
553,-3,-2,-2,-2,-3,0,-2,-2
553,3,1,1,-2,2,-1,-1,-2
565,3,-1,-1,-3,-1,1,0,4
565,-4,-2,0,-1,-1,-4,-1,-1
575,2,-2,0,1,-1,1,1,-2
575,-3,-2,0,0,0,0,-1,-1
589,-3,0,-2,0,-1,-1,-1,-5
589,-3,0,-3,-2,0,-2,-1,0
591,10,3,-1,0,1,-1,1,0
591,12,3,1,0,-1,1,1,1
619,-1,-1,0,-3,0,-1,-1,-1
619,-5,-3,0,-2,-2,0,-2,-2
621,-5,-2,-1,0,0,1,-1,-4
621,-6,-3,-3,-2,-3,-1,-1,1
626,4,2,-1,0,0,-2,0,1
626,0,-1,-2,0,-2,0,-3,0
634,-5,-1,-2,-1,-2,-1,-1,-1
634,-6,-2,-2,-2,0,-1,-4,-4
649,8,1,0,0,-1,-1,2,0
649,-7,-1,-1,-2,-2,-1,0,-3
650,-3,0,0,0,-2,-2,-1,-3
650,1,-1,0,-1,0,0,-2,-8
672,1,-1,-1,1,-1,0,6,27
672,-1,-1,-1,-2,-1,-1,-1,9
673,3,0,-3,-2,-1,0,1,-1
673,-5,-4,-3,-1,-2,-2,-1,-13
685,3,0,0,1,0,1,-2,-13
685,4,0,-3,0,-2,-1,-4,-10
694,-5,-2,-3,-1,-1,0,-2,-16
694,1,1,-2,-2,-1,-1,0,6
708,-2,-3,-3,-5,-1,0,-2,-10
708,-3,-1,0,0,-2,-1,0,5
723,-2,1,1,0,1,-3,-2,-4
723,-4,-2,-1,0,-2,0,-2,2
732,-2,1,0,0,0,0,1,4
732,-2,0,0,-2,0,1,0,-10
734,1,-2,-2,-1,-2,-3,-1,5
734,-6,-1,-4,-2,-1,-2,0,3
746,11,4,1,1,-2,-1,0,1
746,-7,-2,-2,1,0,-2,-3,-2
755,-3,-2,-3,-2,1,1,-2,4
755,-1,1,-5,0,-1,0,-3,5
769,-7,-2,-2,0,-3,-3,-4,-11
769,-2,-1,0,1,-2,-1,0,-11
775,3,-2,0,0,0,0,2,27
775,3,0,0,1,1,-1,-2,-4
792,-4,-2,0,-1,-1,0,-4,-3
792,-1,-2,-7,-1,-2,0,0,2
793,-1,-2,2,-3,-1,-2,0,-4
793,3,-4,-2,-1,-2,-3,0,2
805,-2,-2,0,2,-2,-1,-1,3
805,4,0,1,-1,-1,-1,-3,-18
814,-1,1,1,0,-3,0,5,28
814,-2,1,1,-2,-3,-4,1,-8
829,-3,-2,-5,-1,-1,0,0,3
829,-4,-2,-1,-2,-2,-1,-2,-4
831,-3,-1,-2,-1,0,-2,-6,-12
831,8,1,2,0,0,0,-3,-9
851,-7,-2,-3,-2,-3,-1,-4,-1
851,0,1,6,1,0,0,2,11
853,-3,-2,0,0,-3,-2,-2,-18
853,-7,-2,-2,0,-2,-2,-2,6
874,-6,-2,-1,-2,-1,-1,-2,-7
874,4,1,-2,-2,0,-2,-1,10
876,2,2,-1,-1,-1,-2,-2,2
876,-6,-2,0,0,-1,-1,-1,-9
897,0,2,-12,-2,-2,-2,0,11
897,-4,-5,2,-3,-1,2,1,-19
898,-3,-1,-3,-2,-2,0,-2,-3
898,-3,-1,-2,-1,0,-1,-2,0
912,0,-2,1,-2,-3,-1,-3,-8
912,0,-2,-4,-1,-2,-3,-2,17
913,3,1,3,0,-2,0,0,-16
913,0,-1,1,1,-1,0,0,1
934,-2,-1,1,-2,-1,-2,-3,-10
934,2,1,1,1,0,-1,-2,-26
936,1,-1,-6,-2,-1,1,2,38
936,-4,-2,3,0,0,1,-2,3
950,-1,0,3,0,1,-1,0,-1
950,-4,-3,-1,-3,-1,-2,-2,-11
951,6,-1,-14,-1,3,-2,-2,-10
951,-1,-2,0,-1,-1,-2,1,2
979,9,-1,0,-1,-3,0,1,-2
979,-8,-2,-1,-1,-4,-2,-4,2
981,5,-1,-1,-2,-1,-1,-3,12
981,-1,0,0,0,0,1,4,-6
994,-4,-2,2,1,-1,0,-1,-3
994,-3,-1,-5,2,1,1,1,5
996,-2,-1,-2,-1,-2,-1,-5,-5
996,-2,-3,-5,-4,-1,-3,-3,-14
1009,-2,3,2,0,1,0,2,19
1009,-8,-6,7,1,0,1,-3,5
1011,5,1,4,0,0,-1,0,-10
1011,0,-1,1,-2,-1,0,-4,-6
1032,-6,-4,-4,-4,-1,-2,-8,-27
1032,15,10,11,-1,1,1,14,63
1033,-7,-3,-7,-3,-5,-2,-4,-18
1033,0,-8,-7,3,0,1,3,11
1054,1,-2,5,0,-1,-2,-7,-15
1054,-2,3,-6,-2,-2,-2,-7,-27
1055,-6,-8,-2,-1,0,-3,4,37
1055,4,6,1,0,1,1,-7,-11
1084,-2,1,-5,-2,-1,-2,-8,-47
1084,4,3,7,2,2,3,8,54
1091,-8,-10,1,0,1,1,6,15
1091,-7,-2,-1,-3,-1,-4,-5,-28
1092,-7,-6,-17,0,-2,-2,4,15
1092,9,6,20,1,-1,-2,-4,-34
1100,-4,1,3,-2,-1,-1,-10,-41
1100,-3,-1,2,-1,-1,-1,12,68
1114,-6,-3,-1,-3,-3,-3,-10,-26
1114,-3,-6,-14,-2,1,-3,0,12
1116,-5,1,2,-2,0,2,3,-2
1116,-4,-4,4,-2,-7,-5,-13,-50
1145,-15,-2,0,0,-3,-7,-1,2
1145,21,-2,-6,-2,-3,0,16,83
1146,3,7,6,4,5,6,-11,-93
1146,-7,4,-3,-1,2,2,2,-20
1150,-3,1,4,8,9,4,12,-6
1150,-15,-8,-16,-9,-9,-3,-8,-30
1159,-4,-5,2,-6,-3,-8,3,30
1159,-3,-2,4,18,7,4,-6,13
1175,7,6,7,-11,-4,1,-5,-14
1175,-4,-9,-3,-6,0,-1,-1,-8
1176,1,0,-1,-3,-2,-2,-2,-10
1176,-1,-4,-2,-3,-2,-1,0,5
1197,7,0,-3,-8,0,-5,-1,18
1197,5,4,4,20,2,0,-6,-32
1198,-1,3,-3,3,0,1,3,20
1198,4,-1,-2,-4,1,0,3,15
1210,9,-5,-3,-6,-4,-2,2,4
1210,-7,-2,-2,-6,0,-2,-7,-32
1220,-5,-2,1,24,5,-5,-8,-42
1220,-7,-1,-4,-12,-12,3,2,14
1235,4,2,-5,-45,-27,-4,-1,-1
1235,-15,-5,-6,-6,-1,-8,-10,-22
1236,2,3,1,4,5,3,16,85
1236,-14,-2,-1,6,9,-6,-18,-92
1257,11,2,19,19,7,4,5,6
1257,0,0,-21,1,1,6,7,-5
1259,-1,2,9,19,0,-1,3,5
1259,4,0,-4,-19,-1,-3,6,23
1271,5,-2,1,11,9,-9,-10,26
1271,0,3,11,9,-11,-6,-11,-45
1279,7,1,-9,-16,8,-1,-2,6
1279,10,-1,6,47,5,8,13,16
1294,-5,1,-2,-79,-50,0,4,41
1294,-7,-15,1,-22,14,2,0,-6
1301,-2,1,2,59,7,-8,-15,-22
1301,6,15,5,-49,-28,0,5,49
1324,-23,-24,-17,19,23,-1,1,-59
1324,13,15,17,23,5,-4,-20,4
1326,-22,-60,-90,-60,-51,-12,-19,-39
1326,-21,-8,-65,-34,2,-5,8,-38
1330,17,-30,99,97,38,26,12,34
1330,-11,-23,27,28,-17,-15,14,16
1339,-23,21,61,25,-3,-10,-33,-88
1339,25,57,-38,-84,-9,-8,-10,18
1354,5,-64,17,76,-47,7,5,19
1354,82,30,-34,-35,21,4,-12,-87
1360,-33,-75,-45,-6,37,23,33,127
1360,19,-15,-7,-41,-17,16,-4,16
1377,-40,63,58,66,42,-15,-13,-69
1377,-55,-94,-43,-37,-12,-17,-15,-12
1378,-8,-39,-17,-21,-19,-60,-22,22
1378,76,68,87,37,33,13,-12,-58
1399,30,1,30,24,0,13,14,39
1399,-74,-69,-43,1,-4,18,-6,-18
1401,-36,-76,-64,-15,-17,2,0,-18
1401,24,34,75,26,6,-3,10,-12
1413,13,61,-25,31,25,10,25,34
1413,0,-14,38,-21,-35,-2,5,10
1420,11,-12,-24,-13,14,36,14,22
1420,-30,-58,-8,-21,-18,-24,-12,-11
1437,34,15,-1,-37,8,-38,-8,82
1437,-26,-6,-2,21,-8,-13,-1,53
1438,3,44,9,-52,-27,-10,-22,-61
1438,4,-43,7,37,14,18,26,15
1460,1,30,-6,-21,0,7,-4,-55
1460,16,44,1,-1,5,-2,10,33
1461,31,46,56,22,18,13,-3,-27
1461,-13,-19,-32,24,8,11,3,21
1473,-66,-95,-62,-37,27,17,10,-22
1473,30,33,21,23,-15,8,48,9
1489,22,51,54,25,-2,-22,-35,63
1489,-34,-41,-25,3,7,23,-13,-29
1496,-6,-6,-48,-50,-21,-50,2,-12
1496,9,36,-1,50,7,21,-8,-107
1497,32,20,49,-46,-4,1,41,72
1497,-41,-40,-41,-7,-26,-39,-45,-25
1519,8,-14,-29,-4,-15,4,-64,-128
1519,-10,25,18,-16,-5,5,29,34
1519,9,11,7,13,5,14,21,25
1519,15,9,40,38,34,14,39,55
1534,18,-8,-34,-16,6,23,40,66
1534,-9,-25,-11,-21,2,-6,-21,-54
1541,16,15,7,-6,-13,1,-7,-53
1541,-10,14,-2,-6,-8,-12,6,48
1556,-24,-12,-9,-12,-11,-15,-48,-52
1556,-2,-9,-12,-21,-22,-7,17,81
1557,5,14,17,53,42,34,57,-68
1557,-31,-22,2,35,34,-14,-30,-90
1579,31,-2,-9,-59,-40,-3,12,-27
1579,-9,-10,-3,-35,-50,-34,-47,-37
1579,-9,1,3,-7,-5,0,-24,-61
1579,-17,-13,-7,36,29,2,6,56
1593,24,21,16,21,23,23,27,127
1593,1,-2,-11,-1,19,-5,-27,-97
1601,-37,-20,-57,-40,-45,-30,-46,-43
1601,34,2,17,-13,-27,20,64,-32
1617,15,17,14,9,5,7,12,-65
1617,-15,-1,-5,34,58,7,-20,-29
1617,-1,-16,10,16,-5,11,14,60
1617,1,11,-8,-1,-7,-4,-28,48
1639,-12,6,-6,-9,-33,-3,0,29
1639,-13,-11,-10,20,1,-23,-18,-26
1639,2,-8,-6,0,-3,-12,-8,-26
1639,7,4,0,-9,-14,-5,-4,59
1661,-16,-12,13,3,9,13,-20,-43
1661,10,20,-4,13,26,44,37,52
1662,1,-8,-12,7,4,-16,-8,-33
1662,22,3,-4,-13,-21,0,41,68
1676,-15,14,-1,0,-1,-40,-45,-117
1676,-5,-14,1,0,0,13,-9,-10
1677,22,4,-15,-19,25,73,59,0
1677,-13,-6,35,11,-23,-101,-51,-128
1699,-15,4,-14,-2,-12,0,-1,-30
1699,8,7,-2,-22,-17,-41,-26,5
1706,4,10,35,2,-3,16,14,57
1706,12,17,-13,8,32,44,9,60
1713,-26,-23,35,29,15,13,20,74
1713,31,22,11,-5,-11,11,23,-18
1720,-17,10,-9,-9,-5,-18,-26,-69
1720,-15,-26,-2,-4,-6,13,-3,-63
1736,18,4,-32,-17,-1,-1,10,32
1736,-30,-22,21,4,3,18,11,78
1736,24,8,15,20,11,-15,-4,51
1736,-6,28,-10,-6,-15,-13,-20,4
1759,-1,-25,-89,-63,0,4,9,-8
1759,3,21,29,16,10,-5,-2,-45
1759,-20,-59,9,21,-27,-4,14,-30
1759,16,74,83,48,7,-15,-30,-63
1772,-14,-32,-11,16,9,11,5,-14
1772,23,-1,-39,-39,14,31,5,7
1781,12,80,23,22,12,-28,9,-8
1781,-10,-66,-29,-24,-21,-4,-2,-21
1795,8,-34,-16,-31,-32,-49,-30,18
1795,-18,-21,20,22,-1,8,-10,20
1796,-3,-16,-26,-12,9,17,10,28
1796,-43,-56,-23,-16,6,9,14,3
1827,24,17,-1,-2,20,5,20,59
1827,23,8,24,20,-1,9,13,16
1827,-2,-22,-1,49,-8,-3,-30,-28
1827,-10,-15,-2,-9,-9,-5,-12,-20
1833,-11,2,25,20,1,11,-10,-15
1833,15,29,-13,-24,0,-8,11,57
1841,6,10,-2,-7,5,-18,-15,-36
1841,3,19,-29,-9,0,6,17,0
1856,0,18,5,-15,3,15,5,-6
1856,-5,-27,11,15,-8,-28,-3,35
1856,3,2,-14,-19,-10,-14,-16,1
1856,19,18,-16,-11,10,18,2,1
1879,-22,-18,37,8,-5,3,-10,-30
1879,2,7,-11,1,17,33,-7,-50
1879,-10,-23,2,-11,-6,-30,11,47
1879,-7,-5,-12,7,-13,-15,-14,-72
1901,-2,17,-6,-9,-15,6,-3,30
1901,0,0,-12,-14,-5,-21,1,48
1902,5,6,-6,-5,11,24,5,-48
1902,21,15,-13,23,14,18,33,33
1916,-8,-4,5,-3,-15,-20,-12,-84
1916,-16,-12,-8,-18,-5,-7,-13,-88
1916,-5,2,-2,3,13,5,-9,3
1916,-28,-9,-14,-24,-19,-15,-31,-62
1938,27,15,19,54,37,30,42,79
1938,-10,-1,-16,-53,-41,-7,5,-126
1939,4,-3,-4,3,10,-3,-2,0
1939,-17,-3,-20,-4,5,0,-19,-42
1962,-5,-10,-14,-1,-14,-13,-22,-47
1962,1,6,14,18,7,0,10,32
1962,-1,2,0,-18,-13,12,-3,2
1962,10,-6,3,-6,12,18,22,58
1975,7,14,4,13,34,32,3,-58
1975,-10,-9,-1,16,-8,-24,-4,14
1976,-11,-8,-6,-15,-43,-82,-42,-36
1976,12,10,-9,-38,-11,0,-5,33
2007,0,-1,-12,-20,2,15,26,61
2007,-1,-2,23,40,15,21,-9,39
2007,0,-2,9,10,4,31,6,-18
2007,6,1,-17,-29,-2,-8,2,-8
2022,-1,-6,13,10,-3,0,-3,3
2022,14,28,24,56,39,63,16,27
2022,-5,-1,2,-2,35,5,24,18
2022,1,-5,4,1,-49,-33,-3,-13
2036,-14,-10,-32,-69,-96,-114,-42,-9
2036,-2,-14,-31,-44,-3,-60,-28,-4
2037,1,1,19,49,31,48,3,-3
2037,-4,-3,14,21,52,92,22,7
2058,5,15,4,11,3,-23,18,9
2058,2,-1,1,-15,-22,6,3,0
2059,-8,2,-13,-24,-5,2,-4,-13
2059,-3,-8,11,13,1,-5,2,2
2082,-2,1,-27,-31,9,34,1,1
2082,5,3,25,27,1,-17,3,-6
2082,-1,-5,-4,-4,-17,-1,1,6
2082,0,-4,-10,2,1,21,-11,-1
2096,-4,-1,16,19,3,-34,-12,5
2096,-5,-9,-26,-35,-9,-19,-8,-9
2096,3,4,2,-18,-27,-6,-9,4
2096,12,-3,9,16,-3,-20,-5,1
2127,3,7,8,8,42,86,21,17
2127,3,3,4,-6,16,9,17,-16
2127,-2,0,1,9,-28,-42,15,3
2127,-8,-3,-11,-29,-35,-51,-43,-8
2141,-4,-10,-2,6,-7,-22,-11,-10
2141,2,-3,4,13,2,-14,-10,8
2142,2,5,-5,-12,26,53,6,-1
2142,1,-3,12,24,7,-18,18,14
2155,-5,7,9,14,2,19,2,-3
2155,4,5,-3,1,-7,8,6,7
2157,-3,-11,-9,-24,-7,-8,-5,-11
2157,6,3,-4,-15,5,2,4,8
2187,-1,8,13,24,8,10,5,1
2187,-4,-2,-9,-1,18,27,0,0
2187,-8,0,-4,-10,-29,-39,-2,-3
2187,-7,-8,-8,-11,-29,-28,-6,1
2201,-5,-5,7,18,-2,-25,-15,-14
2201,1,-3,-6,-7,11,47,4,1
2201,2,1,-15,-13,4,-45,7,8
2201,-4,1,18,8,2,4,6,-3
2215,4,-5,8,1,-3,-12,-23,-18
2215,-27,-4,-3,12,11,23,12,4
2217,15,4,7,15,39,68,15,5
2217,4,3,12,-7,-25,-30,6,-7
2239,1,3,-23,-16,-28,-41,-18,-4
2239,-3,-10,7,4,-15,-40,-7,-4
2239,-7,-4,-6,-7,-10,19,-13,3
2239,-3,2,-13,-13,25,6,4,-2
2261,-8,-2,16,7,26,84,25,8
2261,0,1,-3,0,2,-5,-10,-4
2262,12,1,2,1,-26,-63,-25,-7
2262,-4,-4,-5,5,2,24,20,20
2285,-6,1,3,-6,-5,6,-23,-9
2285,9,1,-17,-26,-6,-29,3,11
2287,-1,-9,-1,14,-1,16,9,-4
2287,-9,-3,14,20,2,4,-14,-11
2307,10,-1,0,7,25,34,21,21
2307,8,3,4,-5,-2,-4,4,-1
2307,-7,-2,1,-5,-13,-20,-13,-5
2307,-4,-4,-5,-4,8,-8,0,-8
2329,-23,-2,-3,-2,-18,-30,-13,-9
2329,-11,-6,-6,-10,-13,6,-10,-3
2330,-4,-2,1,-3,-5,-6,-1,-9
2330,4,3,-6,-14,7,10,11,13
2336,6,2,-2,-7,-3,-5,2,-4
2336,-2,-5,-4,9,0,-4,-1,6
2337,-5,-2,-12,-18,12,44,3,-9
2337,-10,4,15,19,0,0,4,12
2358,7,-9,-12,2,-4,-23,-14,-20
2358,16,5,1,-7,-24,-28,-1,6
2359,-36,-16,-4,-1,19,33,3,4
2359,18,7,-2,-8,33,54,6,10
2382,-5,-2,1,-1,-32,-69,-5,-3
2382,6,-1,-3,-3,-32,-25,-37,-13
2382,-11,-3,-3,1,5,-14,-3,0
2382,10,2,-1,3,8,52,0,-5
2396,1,6,12,4,18,-6,22,2
2396,1,-16,-13,5,-4,5,9,2
2396,1,16,5,1,-8,-20,-8,12
2396,-8,-8,-6,12,-17,-35,-17,-17
2419,-3,4,7,-11,8,17,6,-25
2419,-1,0,-1,-5,11,12,12,20
2420,21,0,-7,3,14,33,11,10
2420,2,-1,-2,7,-11,-12,-3,0
2442,-3,-2,-8,-10,-10,-6,-3,6
2442,-4,1,-3,-1,0,-18,-8,-13
2442,-6,2,-1,3,12,19,7,-7
2442,-1,1,0,-5,8,6,5,6
2456,-1,-3,-5,-3,-33,-29,7,-2
2456,-11,-5,8,3,-4,-18,-10,-7
2456,22,2,6,6,-6,-15,-9,0
2456,-7,-6,-11,6,9,12,4,-12
2479,-1,-2,1,-4,19,32,12,7
2479,-1,6,1,-12,-9,10,9,1
2486,4,-1,11,4,0,-9,1,4
2486,-23,-11,-19,-16,-5,-23,-5,-12
2509,17,3,6,13,-15,-14,-14,3
2509,4,-1,1,0,3,-5,-3,-1
2510,-3,-4,0,-2,1,4,3,-7
2510,-8,0,4,-8,6,25,4,-1
2516,-7,-6,-12,14,10,-5,0,9
2516,7,3,3,1,4,5,1,-4
2516,0,3,-2,1,-4,3,13,2
2516,1,-4,-1,-13,-23,-45,-20,0
2538,-5,-5,4,-7,-8,-1,-9,-5
2538,11,2,-3,4,14,21,1,4
2540,-3,0,-7,-4,2,-13,0,-1
2540,17,4,6,1,-10,-8,1,4
2561,-41,-4,-8,-5,9,11,-4,-10
2561,-21,8,2,4,0,5,2,-4
2563,0,-1,-1,-7,-3,4,-3,0
2563,9,-1,6,15,11,10,-6,-5
2576,5,1,-3,-10,-11,-10,2,1
2576,-5,-5,-2,-7,-3,25,13,-1
2577,1,2,5,5,3,-3,-6,1
2577,-12,-2,-4,0,-19,-45,-21,-8
2599,9,-5,-4,-17,5,8,-6,2
2599,-16,0,3,21,8,5,1,-4
2599,16,0,1,2,-1,4,6,2
2599,-3,0,6,-8,-13,-8,1,-1
2639,9,2,-12,-3,13,12,-1,-2
2639,-3,-4,3,4,1,-5,6,-1
2639,-1,12,2,-5,1,10,-14,-6
2639,-2,-1,0,13,2,-5,9,3
2641,1,0,4,-1,-6,6,-3,3
2641,3,1,-5,-11,-7,-19,-8,-4
2643,-8,-8,-5,-3,-9,-15,-10,-5
2643,-4,-3,-7,-9,10,34,6,-3
2666,5,4,5,-4,-3,-21,3,5
2666,-2,-3,0,-3,8,24,7,6
2674,0,-2,1,17,-12,-28,-8,-1
2674,-28,1,1,3,-6,-10,-13,-6
2682,2,-2,7,4,8,13,3,-2
2682,3,-1,-6,-9,-4,1,0,-2
2682,-17,-7,-7,-11,2,2,8,-5
2682,7,-4,-4,3,0,8,5,5
2696,-2,7,3,5,-3,-1,-8,-7
2696,18,4,2,-8,-7,-23,-6,7
2711,-8,-5,-5,-4,1,7,0,-1
2711,-1,-2,0,4,5,2,7,-5
2727,15,4,-3,-9,5,27,4,11
2727,11,1,3,-14,-16,-18,0,-3
2728,6,0,-6,14,-22,-48,-25,-4
2728,3,1,5,2,15,24,2,1
2773,-3,-3,-1,5,0,-3,3,-2
2773,-3,-1,-6,-11,5,14,3,-2
2774,11,3,7,-5,4,17,8,1
2774,-17,-3,-14,-24,-11,-12,-2,-2
2775,10,-2,11,21,8,11,4,5
2775,-11,-7,-7,9,1,-5,-12,-9
2779,0,1,3,-7,0,-9,0,-2
2779,0,-3,-5,1,4,5,0,-4
2782,-18,0,-2,-10,-1,-4,-5,-9
2782,3,1,0,-7,-1,5,8,4
2783,-4,-5,-1,13,-18,-19,5,16
2783,5,1,0,-3,-5,-20,-28,-18
2803,-7,-2,0,-1,7,7,-2,-25
2803,-3,0,0,10,14,46,3,29
2803,3,0,0,-6,-6,-19,5,-16
2803,5,1,-4,-9,-8,2,4,12
2816,2,-3,9,8,-11,-14,3,1
2816,-5,0,-14,0,-4,-9,-7,-11
2816,-2,1,-1,-20,6,13,0,4
2816,25,4,0,12,3,3,4,9
2838,5,1,-5,9,19,8,3,30
2838,-6,-1,4,0,-18,-19,7,-31
2840,-7,2,3,0,-20,-28,-31,-7
2840,-5,-1,-6,-12,6,-6,-2,-4
2862,4,0,-8,-7,-1,28,6,4
2862,-4,-3,5,16,17,1,12,0
2863,2,-1,-1,7,5,22,-4,-1
2863,-26,0,1,-3,-17,-30,-8,-17
2875,-16,1,-5,-3,-5,13,12,4
2875,-8,-3,0,-9,-3,-25,-19,-3
2877,0,-6,-10,-3,4,19,4,6
2877,19,2,6,-3,12,10,10,7
2898,-6,-1,0,-5,-2,7,-2,3
2898,5,-9,-5,19,-25,-32,-9,-6
2899,-19,-1,0,-2,11,10,0,1
2899,2,3,3,12,21,44,16,9
2922,-1,1,-5,-21,-23,-61,-12,-19
2922,5,-3,-3,-14,-16,-17,-13,12
2923,15,-2,1,6,5,15,8,-4
2923,0,-4,-1,1,-2,-22,-7,5
2935,0,1,2,4,7,31,-3,0
2935,-6,0,3,-2,11,-11,5,-5
2944,11,-2,-8,-7,-15,-17,-5,0
2944,-22,-4,2,3,-2,12,2,-15
2958,16,-2,-4,-3,-3,-9,-2,4
2958,1,1,-6,-17,10,22,0,-1
2959,-8,2,13,28,17,26,11,-1
2959,2,-4,-4,3,-24,-29,1,1
2982,9,-4,-2,2,-16,-30,-26,-4
2982,-7,-1,-2,-18,-1,1,4,7
2983,1,-2,-12,-10,4,5,5,-5
2983,0,-2,4,5,8,16,-1,-5
2996,9,3,2,7,3,7,11,5
2996,6,6,5,5,24,32,10,7
3004,1,2,4,-15,-20,-37,-20,0
3004,2,-4,-13,-14,-33,-26,-5,-2
3018,5,-5,-6,-3,6,-15,-9,3
3018,9,-5,3,11,8,14,0,-15
3019,0,5,1,6,16,27,15,6
3019,11,3,4,2,7,4,1,10
3042,-10,-4,-2,-10,-14,10,7,2
3042,-9,-1,-8,-18,-10,-27,-12,-9
3042,-15,-2,-2,9,-9,-13,-11,-5
3042,2,-4,5,4,9,12,3,3
3072,-10,4,0,4,6,11,-4,-16
3072,5,1,2,6,-4,-2,-1,5
3072,0,-4,-5,-18,-6,1,1,-2
3072,-14,-1,1,-3,-7,-31,1,0
3079,-4,-3,-3,1,2,2,-5,-2
3079,-5,-1,-4,8,8,13,4,-3
3079,3,0,1,0,8,17,1,8
3079,-1,0,1,4,-8,-17,-4,-4
3102,5,-2,-7,-14,-7,-7,4,3
3102,-3,2,5,2,-1,13,-6,-2
3102,-6,-4,-1,2,-11,-28,3,-5
3102,23,-3,-4,3,8,19,-14,3
3115,-23,-2,6,-2,-16,-22,8,-2
3115,-1,-2,-12,-7,4,29,7,7
3131,1,-3,2,-1,1,1,1,-3
3131,1,2,-3,-4,-4,-8,-7,-1
3138,1,-3,0,3,4,-3,-6,-1
3138,-7,-1,2,4,-5,-3,1,-1
3139,-8,-5,-17,-20,13,29,10,0
3139,1,5,13,18,5,-16,-7,-1
3162,-9,-4,0,10,-11,-8,-3,-5
3162,3,-1,1,-3,-11,-21,-5,-2
3162,4,2,-3,-5,5,18,4,-2
3162,6,2,0,-21,-2,-9,2,3
3175,-1,-1,-12,1,7,3,-10,-1
3175,-16,-3,-2,11,8,7,5,-8
3184,11,2,4,-8,-2,-10,3,8
3184,-3,0,-2,-3,-22,-5,-4,-1
3198,-10,-3,-1,-11,2,-7,-5,-10
3198,21,1,8,12,11,18,-2,8
3199,-5,-2,-5,9,0,-20,2,-1
3199,-3,5,-3,-2,-3,4,4,1
3237,1,-3,-2,-10,-4,-3,-4,-8
3237,4,-1,-2,-6,-3,-6,-2,2
3237,-3,-1,7,7,13,28,4,-2
3237,22,-2,-6,5,3,1,9,5
3261,4,-1,4,0,-8,-12,-8,1
3261,-5,1,1,-7,-2,-9,-4,-7
3261,0,1,-5,-2,-6,-8,-7,-1
3261,-13,-6,-5,-7,6,25,4,-2
3263,0,1,4,11,7,-5,3,0
3263,-6,-2,-1,0,-17,-19,-3,-8
3266,26,0,-1,-6,2,14,-2,11
3266,-6,-1,3,-6,6,2,3,2
3282,-1,-1,-3,6,-6,13,4,6
3282,-7,-1,-2,-1,-1,-18,-8,-4
3283,-7,0,-2,-5,-17,-22,-13,-5
3283,4,-1,-8,-10,12,16,10,-2
3295,1,1,9,6,5,7,5,-1
3295,-4,1,-3,7,-6,-7,3,3
3304,-3,-4,-3,-1,-1,6,-6,3
3304,-1,0,7,8,3,-7,-2,-6
3318,5,4,0,-9,-14,-27,-10,1
3318,-2,-1,-5,-2,-4,3,-2,-3
3319,-6,-4,-3,-3,13,18,8,-4
3319,-12,2,1,-1,-6,-10,-5,-2
3342,13,-2,-5,6,4,9,6,6
3342,-11,-1,6,1,2,6,-2,3
3343,5,2,3,3,-8,-18,-1,-4
3343,-11,-5,-1,4,6,15,1,-2
3363,4,2,-9,-12,0,23,-1,0
3363,3,1,2,-6,1,-18,2,-2
3365,-7,-2,3,14,-14,-28,-13,-7
3365,-19,-5,-3,1,-3,2,4,-7
3379,-11,-4,3,6,16,16,1,3
3379,6,1,-5,-6,1,12,-1,0
3379,-6,-1,1,-11,10,3,3,0
3379,7,0,-7,-5,-13,-16,-9,2
3401,-7,-3,7,8,-11,-9,-1,-2
3401,1,-3,-6,-8,2,3,-1,1
3403,-9,-3,-3,5,2,8,5,-3
3403,6,-1,-1,5,1,-2,-8,-1
3432,-1,-4,-7,-10,1,6,-4,-5
3432,2,3,1,-4,-30,-33,-8,-1
3433,1,-2,0,-2,-6,-4,-3,0
3433,7,-2,-4,-2,9,31,7,2
3439,-5,-1,-3,-3,-1,-18,-4,-4
3439,1,-3,0,-1,4,10,0,2
3439,-3,-2,0,1,1,0,0,-3
3439,0,-1,0,-4,-1,7,1,2
3477,8,1,0,2,-1,-18,3,9
3477,-4,-2,0,6,0,3,-1,-3
3477,-1,-3,-3,-3,2,0,-5,-4
3477,-1,0,-1,0,-6,-16,-4,0
3494,-10,-2,-1,-8,18,25,8,-7
3494,4,1,0,-8,-22,-21,-2,0
3494,-2,-4,-4,4,6,1,-4,1
3494,-4,-1,6,6,-2,-10,-3,-6
3498,-3,-2,-4,0,0,2,1,-2
3498,0,-2,1,0,9,8,0,0
3499,6,0,0,-3,-5,5,13,1
3499,-7,-3,-3,-2,0,-4,-9,-2
3522,-1,-1,-2,-2,-5,-22,-2,-2
3522,0,-4,-1,1,6,10,3,1
3524,-2,4,-1,-3,-4,-2,-6,-1
3524,0,-1,-9,-16,0,-7,5,2
3544,2,-1,2,13,-16,-14,-7,-3
3544,-12,-2,0,0,5,-3,-7,-5
3545,-4,0,-3,-2,2,1,2,-2
3545,0,-1,-2,-4,0,7,-1,-5
3560,-1,0,-2,-4,3,2,0,0
3560,-2,-2,-10,-5,3,6,4,1
3560,2,0,8,5,-7,-8,-7,0
3560,-3,1,2,5,-4,-12,-7,-1
3582,-1,-1,2,-6,1,7,0,-2
3582,4,0,-4,3,0,0,2,4
3582,-1,-3,2,-2,1,5,5,3
3582,4,-1,-2,-4,-1,6,-1,-1
3605,-1,-1,1,2,-3,-3,0,3
3605,-2,-1,0,-1,-3,-16,-9,-3
3605,-5,-2,-3,-3,-2,-2,-3,-13
3605,-1,-2,3,5,-1,7,1,0
3619,-1,0,-3,-4,5,6,1,-1
3619,3,-2,0,-2,-5,0,3,12
3620,0,-3,-3,0,-5,-6,3,9
3620,-2,0,0,2,5,10,-5,-25
3642,-1,1,-5,-4,-1,-4,0,-3
3642,0,0,4,2,-4,-12,-3,-2
3642,-3,-2,-3,0,0,-6,-4,1
3642,-2,-2,-2,-4,-1,6,3,9
3672,1,1,-1,-5,-1,5,1,0
3672,0,-1,-1,0,2,5,-1,-5
3673,1,1,-2,-1,-6,-6,-4,1
3673,2,-1,-1,4,-4,-13,-3,6
3687,-3,-3,-3,1,4,3,-2,-2
3687,-1,0,-2,0,1,1,-2,-3
3687,1,0,-2,-11,4,5,2,-3
3687,-1,2,-1,5,3,3,4,2
3701,0,-1,2,10,1,-7,-3,0
3701,-3,-3,-2,-6,-9,23,1,-2
3702,-3,-1,2,-4,-9,-26,-4,-3
3702,-3,-1,-3,-4,-6,-13,-6,-2
3725,0,-3,-1,0,6,10,4,1
3725,0,1,2,0,7,1,0,-2
3725,-1,-1,-2,-1,5,8,2,-3
3725,-3,-1,-2,-2,-2,-6,-2,0
3739,-1,0,0,0,-5,-7,-4,-2
3739,0,-1,-2,-1,-2,-5,-1,-1
3739,0,-1,1,4,13,16,3,4
3739,-1,0,-5,-7,-15,-18,1,-6
3777,-1,0,4,-2,-5,1,-5,-4
3777,-2,0,1,1,-7,-8,1,-3
3777,-3,-1,-7,-13,-4,-2,-1,1
3777,-1,-5,-1,16,8,9,3,2
3791,1,11,31,0,-4,-3,-1,0
3791,-2,-13,-3,1,0,-5,-3,-1
3792,2,0,1,3,5,20,-1,-2
3792,0,1,5,5,1,-13,-3,-1
3806,-2,-2,-10,-7,-2,18,-2,-3
3806,1,6,1,-3,-8,-31,-4,-1
3808,2,-1,0,-1,-4,1,0,-3
3808,0,-3,-5,-7,0,10,3,0
3821,1,-2,-7,8,11,11,6,3
3821,-2,2,1,-3,-1,2,-4,0
3822,-3,-2,-3,-2,-12,-14,-4,-2
3822,-2,-4,-28,-5,-2,-12,-5,-1
3852,1,-6,4,4,8,3,1,1
3852,-2,-8,-3,-3,5,14,5,-1
3853,2,3,5,0,-12,-28,0,-2
3853,1,2,-2,-4,-6,1,-2,1
3858,-1,-1,-8,7,5,2,3,-2
3858,-1,3,-1,-2,2,14,3,-1
3859,-3,-6,-14,-8,-7,7,-4,-2
3859,1,2,14,12,-6,-15,-3,0
3881,-3,-4,-12,1,-2,-14,-10,-2
3881,-5,-2,1,0,1,0,-5,-4
3882,-2,3,1,3,-4,1,-1,-2
3882,4,6,36,-4,8,30,2,1
3904,0,-1,2,-1,-6,-23,2,-4
3904,2,0,-6,-1,3,4,-3,2
3905,-6,1,4,2,-3,-2,-1,-6
3905,-5,-12,-14,-8,-6,-4,-10,-1
3918,4,10,27,-3,-3,8,17,-32
3918,4,6,-9,-4,0,-1,-1,-19
3926,-3,-16,14,3,4,-6,-1,1
3926,-3,8,5,2,2,-2,-3,-1
3950,-1,-4,-6,-6,-4,0,-9,27
3950,2,5,-7,5,-2,-10,1,11
3950,0,-1,-13,-2,2,14,-2,-24
3950,-2,-1,-8,-3,-3,-30,-3,-9
3964,-6,1,-4,-11,-1,5,-2,5
3964,0,-14,1,-8,-7,0,0,18
3965,-16,-7,-9,4,-6,-8,-16,-92
3965,26,4,4,3,10,19,25,66
3978,1,14,-8,-5,-8,-7,-3,-21
3978,-1,0,7,3,-1,-10,-1,-2
3986,2,-9,-30,-2,5,8,10,33
3986,-12,-2,-12,-7,-7,-6,-13,-46
4001,-7,-14,-3,-2,-6,-13,-12,-22
4001,15,-13,-11,-4,2,4,0,13
4002,-4,13,10,-6,5,15,3,-36
4002,9,8,5,9,-1,-9,5,67
4024,-22,-14,-14,5,-2,4,-6,20
4024,22,6,4,2,0,-6,-8,-58
4030,5,3,4,6,0,1,5,34
4030,-14,-12,-6,-8,1,4,-4,-20
4047,-12,-5,-3,0,6,23,-4,-14
4047,-16,2,-3,1,-5,-29,-2,29
4048,9,6,3,-6,-9,-12,-3,19
4048,-3,2,-6,-20,-6,6,-3,-28
4060,2,-5,-5,-2,3,20,9,-9
4060,2,6,11,15,3,-11,-1,-9
4069,-7,10,8,4,-3,-3,-3,12
4069,-14,-10,-5,-2,2,-2,-7,-30
4084,5,1,-2,-7,-3,1,1,8
4084,-11,-1,-3,-12,3,10,-2,-16
4084,16,0,8,3,-5,-15,-1,20
4084,1,-4,-16,-2,-3,3,1,5
4097,5,-15,-6,-7,-3,-9,-1,-7
4097,-9,4,6,0,-3,8,0,-6
4106,-6,-3,4,1,-1,-7,-1,6
4106,1,1,-6,-7,8,33,2,-17
4121,10,1,-3,5,-7,-40,2,8
4121,-7,1,0,5,-1,13,1,1
4122,-1,-4,-9,-4,-1,-9,-4,19
4122,-3,1,5,1,-5,4,-7,-14
4144,-4,3,-11,-18,-3,-5,-6,-19
4144,-2,-10,14,1,-1,7,2,13
4151,0,4,-2,2,2,-2,4,4
4151,3,-8,10,11,3,5,5,-22
4158,3,2,3,4,-14,-18,-6,11
4158,4,8,-8,-6,-6,-12,-8,-7
4166,-4,-9,-4,-6,5,9,-2,-16
4166,-1,-2,4,4,0,-8,3,21
4181,3,4,1,6,16,56,8,10
4181,-3,-5,-5,1,-1,-42,1,-4
4182,-4,-4,-1,5,-8,-8,-7,-3
4182,-9,0,-16,-13,-12,-4,-4,-21
4204,8,3,4,-11,-1,-3,-1,-5
4204,-1,2,-4,-5,2,19,4,1
4204,-2,-7,-1,-2,9,9,5,7
4204,4,5,3,17,2,-7,-1,-1
4227,0,-5,-3,-3,-14,-17,6,-13
4227,-8,-2,1,-3,-13,-17,-26,5
4228,1,0,-6,1,-7,-7,1,5
4228,4,6,6,-4,5,11,4,8
4250,-1,-6,-10,3,9,1,4,10
4250,10,-1,42,8,1,10,32,94
4251,-19,22,15,4,-1,-3,-35,-104
4251,6,-6,1,-2,3,12,1,52
4265,-5,0,-1,2,1,-23,-5,3
4265,7,-4,-21,-5,-3,10,8,9
4265,7,1,-8,-6,-2,0,7,33
4265,-6,0,10,-1,-8,-15,-2,-25
4287,-3,3,-1,3,0,-11,-16,-13
4287,-7,0,-10,-3,-1,16,-1,-45
4288,0,-15,-4,-8,1,-2,12,40
4288,7,16,-1,5,-2,-5,3,3
4300,-1,-5,-4,5,1,3,-4,-12
4300,-10,4,3,-4,5,2,-17,-49
4316,-5,-10,-5,-3,-9,2,2,27
4316,4,-4,-25,-6,-4,-6,8,39
4339,-2,-5,6,2,-8,-10,2,-3
4339,-1,4,-5,-5,2,-6,-11,-40
4341,4,-11,-11,3,4,-7,-1,15
4341,-7,-2,14,13,28,10,-12,11
4346,-3,6,8,7,-10,-1,-4,-42
4346,5,0,2,-4,-1,10,14,23
4354,0,-11,-12,-18,-18,-12,-3,-1
4354,-2,-11,-11,-15,-11,-16,-2,-25
4368,-5,15,12,13,17,19,-8,-49
4368,-14,-8,-6,5,5,-9,-10,-26
4377,13,7,20,11,0,11,7,5
4377,-2,-11,-8,1,-1,-3,2,-4
4385,4,1,0,-8,0,-3,-4,28
4385,-3,-5,-36,18,-2,2,4,7
4387,-5,11,30,-3,7,-1,-4,-42
4387,-1,-9,-3,-5,-11,0,1,13
4413,1,-7,-9,-24,-5,9,8,46
4413,-1,1,-2,5,-8,-36,-11,-5
4423,2,5,2,0,-4,4,-3,-8
4423,-6,0,5,7,16,-1,-6,-24
4423,-5,-3,-5,2,7,23,0,-38
4423,3,-2,8,8,8,6,8,2
4429,4,-1,-4,-14,-9,-18,-7,-9
4429,-4,4,2,-6,-10,11,7,37
4445,0,2,-1,-1,-7,-17,-6,-24
4445,-9,-8,-7,-7,-4,-2,0,-1
4447,2,-6,-8,6,2,2,-5,-19
4447,-4,-2,1,-2,3,0,-4,-5
4466,-13,-6,3,-4,-6,-8,0,18
4466,16,8,10,0,1,-2,2,23
4468,-3,0,-6,-1,0,8,6,14
4468,7,-6,2,3,2,-1,1,-6
4480,-6,-1,-4,7,5,-5,2,13
4480,-14,-6,0,-12,-7,9,-18,-77
4489,-1,3,4,1,9,7,6,1
4489,5,8,0,-1,4,-4,3,-14
4512,1,-4,-3,-3,-17,-10,-2,-18
4512,-10,-19,-17,-10,-2,-1,-5,32
4513,0,8,9,15,12,7,-12,-34
4513,-4,5,4,-19,-14,-7,-15,-35
4526,-6,1,-1,-5,2,7,7,47
4526,18,9,6,-3,2,9,13,29
4529,-2,-4,-14,-9,-1,-6,9,25
4529,-26,-10,3,1,-9,-16,-38,-125
4540,32,8,5,4,9,8,21,81
4540,-5,1,-1,-6,-18,-1,-8,-28
4550,4,4,-1,13,7,7,8,-3
4550,-10,-4,-8,-4,-5,-3,-12,-46
4564,-12,-7,1,-3,-7,-12,-16,-74
4564,7,3,-2,-7,3,6,9,26
4572,-4,0,-6,-10,-4,-6,-2,-17
4572,12,2,-1,-11,-12,-9,-4,36
4587,-10,-10,-9,19,10,-1,-14,-28
4587,-1,-4,-4,-13,-11,-7,-16,-72
4588,-31,-12,-6,4,-1,-8,-31,-124
4588,32,14,10,9,12,12,45,116
4600,10,2,0,-4,-7,-1,16,18
4600,-5,2,1,2,5,-2,-3,-68
4609,6,3,-3,1,-5,-3,-12,-50
4609,6,-7,-3,14,7,-1,11,41
4624,-17,-11,-11,-37,-18,-12,-28,-65
4624,-26,-12,-16,7,6,-4,-5,-3
4626,4,9,25,4,2,4,-2,-28
4626,-14,6,5,23,13,-12,-17,-69
4647,33,9,10,-38,-35,6,25,66
4647,-16,-16,-24,-13,5,8,3,-57
4649,-9,-13,-17,-8,-5,-9,-8,80
4649,12,2,-2,0,-2,2,8,72
4661,-12,3,17,43,33,2,-9,14
4661,19,47,7,0,-10,3,7,51
4669,-6,-24,-31,-10,-3,1,5,34
4669,-4,-3,4,-18,-13,-3,-8,-48
4692,-3,-3,-6,5,7,-5,-9,-47
4692,8,-4,13,9,2,7,24,105
4694,-3,5,-42,-26,1,-1,9,-77
4694,-3,3,40,16,2,-4,-11,-36
4707,9,17,8,24,14,9,15,-25
4707,10,-5,15,23,7,-4,-4,49
4708,-1,5,15,-31,-18,-3,-4,-12
4708,-11,-2,-1,8,-8,5,2,-24
4720,-10,-8,-64,-42,34,9,10,5
4720,4,-3,28,-4,-24,10,-8,-26
4730,1,-5,-7,-6,-9,-24,4,31
4730,-2,10,25,26,3,-10,-17,-46
4744,-3,2,-4,42,25,-1,-7,-45
4744,-9,-14,-32,-52,-20,3,-1,-60
4746,21,-5,-62,-75,-50,4,24,118
4746,-7,2,63,37,30,12,9,-30
4767,-8,8,30,50,4,-7,-19,-27
4767,3,-2,15,27,16,-6,-14,-24
4781,-8,-15,-14,23,5,14,15,-6
4781,-5,-25,-57,-60,-35,-29,-4,-12
4782,12,23,21,-16,-16,-5,-5,-39
4782,4,-5,7,17,13,2,14,75
4790,-13,-7,17,12,15,7,-11,-28
4790,-2,-24,-28,-7,4,11,7,4
4804,9,19,24,25,1,10,3,-37
4804,-12,6,5,-11,-1,-10,-10,-23
4805,-4,-13,-14,-3,1,-9,-14,50
4805,-16,-18,-73,-52,-2,4,-4,-99
4827,5,-2,55,10,-12,0,9,74
4827,1,8,9,28,7,0,-4,-54
4828,6,11,36,40,20,4,6,26
4828,-3,5,-21,-12,-9,-3,-3,5
4840,-10,-13,-47,-38,-7,-2,-9,15
4840,19,3,-16,6,6,0,17,29
4850,-11,-21,16,-20,-21,-2,0,-66
4850,9,20,12,1,-4,0,-7,-12
4872,20,0,-20,-10,-2,-3,15,92
4872,-11,-5,10,5,-2,-2,-11,-53
4873,-5,2,2,6,6,-2,-13,-52
4873,13,3,9,15,11,11,33,126
4886,-15,-11,-3,-15,-16,-12,-31,-39
4886,-21,-12,-3,12,21,-9,-9,-62
4888,35,6,2,22,-3,11,16,93
4888,-8,-1,11,11,-9,-16,-7,-65
4900,7,-33,15,33,25,14,12,27
4900,6,22,-12,-35,-26,7,13,63
4908,-11,14,-6,-6,4,-11,-14,-30
4908,-9,-8,3,-8,0,-1,-13,-8
4924,-10,-18,-40,5,-13,-14,-6,21
4924,-17,6,11,-10,0,-11,-29,-128
4926,43,49,44,66,31,21,26,43
4926,0,-1,-3,3,-8,4,-4,27
4947,-14,3,2,-19,-4,-6,-19,-67
4947,-11,-15,-21,-22,-6,4,-1,-2
4949,-7,-1,-8,8,2,-5,-6,-89
4949,11,3,6,-12,11,16,25,85
4960,-24,5,5,-5,-29,-28,-31,-117
4960,28,-5,5,-3,3,-5,0,26
4969,15,-1,5,4,11,-2,17,-35
4969,-5,5,7,20,9,2,-21,-128
4992,-7,-13,19,-6,-5,16,26,-12
4992,-7,0,-33,-55,-17,-1,-20,-97
4993,-35,11,8,-5,-1,-4,-21,-91
4993,35,-19,-74,-27,-6,1,57,112
5006,0,10,59,29,5,-11,-17,-58
5006,12,1,55,58,6,2,-9,5
5008,-16,-8,12,-8,3,3,-30,-103
5008,-7,8,8,-28,-3,18,-4,-29
5021,12,-6,-51,-31,-18,8,25,111
5021,10,-4,-24,-11,4,-25,32,115
5047,-7,-10,8,17,-10,-24,-12,-2
5047,10,7,-15,-21,-3,3,26,83
5047,2,14,-13,-4,14,10,-24,-113
5047,8,-3,7,15,13,16,-10,-57
5075,6,0,-3,-2,4,23,35,54
5075,-1,-4,10,23,3,-3,16,43
5076,-13,-5,-29,-12,5,-15,-11,-59
5076,-15,-29,29,32,-5,-22,-5,60
5077,16,7,-11,-38,-32,-17,-30,-37
5077,8,25,4,20,19,8,-24,-3
5081,-2,4,4,5,6,17,12,-4
5081,26,-30,-7,3,14,15,35,73
5089,-21,-25,-4,1,-9,-11,-8,-85
5089,-6,-6,25,13,-9,-2,-1,-44
5104,11,-2,-14,-8,3,-9,7,-6
5104,-20,-1,-24,-24,-9,-4,-13,31
5106,1,-10,-32,-21,-3,4,29,116
5106,-20,2,13,13,-12,-27,-44,-98
5126,16,-3,37,33,21,-3,16,114
5126,0,15,-6,-36,-35,12,-7,-74
5128,2,6,-8,0,11,3,-7,-36
5128,-6,5,-3,2,0,-3,-4,44
5140,-15,-14,-5,4,-6,-1,-2,-19
5140,-3,5,-7,24,20,5,6,25
5155,6,12,24,-24,-6,6,11,34
5155,-12,-7,-2,-9,-19,-15,-20,-64
5164,2,-3,-4,-24,-11,3,-2,-37
5164,-1,11,-6,2,5,3,2,34
5166,-17,-10,-10,6,0,-8,-13,-26
5166,-14,-9,-8,4,-1,-14,-30,-114
5187,6,-1,25,-1,-6,3,11,82
5187,-4,11,-6,0,3,3,1,-59
5188,9,6,19,50,37,6,1,42
5188,-13,-3,9,-22,-23,5,2,-43
5209,2,-4,-47,-31,2,-3,9,53
5209,-9,-6,3,-5,-10,-11,-8,-21
5211,-1,14,11,14,17,1,3,-11
5211,2,-4,31,37,2,10,8,19
5223,-14,-16,-19,-52,-28,-6,-20,-42
5223,-13,-11,-7,-3,6,-2,2,-9
5230,1,-6,-18,-12,-15,-15,-18,-72
5230,26,-33,-32,-2,14,-2,20,113
5246,-4,35,5,26,15,19,4,-50
5246,4,27,55,-13,-21,-7,-15,-70
5253,2,20,-14,10,1,0,8,5
5253,-5,-43,-17,-18,-6,-9,-19,-35
5270,-19,4,27,5,0,-1,4,-52
5270,11,-8,-12,11,17,17,32,31
5271,1,-3,2,2,-6,-3,-5,-20
5271,-25,26,6,-15,-12,-22,-53,-91
5283,53,10,8,18,18,37,85,69
5283,-37,0,-50,0,-5,-8,-35,-99
5290,8,-2,22,-10,-9,1,13,33
5290,-23,-4,-1,-11,-4,-7,-3,-114
5307,-15,5,15,-1,-7,-20,-55,-71
5307,27,5,8,2,2,6,25,81
5312,-4,-3,-6,-5,2,17,10,-83
5312,13,11,3,5,3,2,-8,-21
5328,-27,-17,-20,-6,-12,-9,3,-26
5328,4,-8,-12,-5,-3,-3,1,6
5337,-3,-9,-7,-6,-4,-1,-14,22
5337,17,18,9,5,3,3,6,15
5352,-1,-11,-10,-6,-7,-8,-17,17
5352,-4,-1,-2,-2,2,-2,-2,-25
5353,6,-4,11,-3,-1,-3,4,59
5353,-10,-3,-4,2,0,2,7,8
5367,8,-1,-2,-1,-3,-3,-3,4
5367,0,-1,0,-1,-1,-4,-6,-14
5373,-14,-6,-6,-3,-3,-4,-14,-28
5373,10,7,-13,-1,3,9,12,40
5396,5,-4,-1,-2,-5,-5,-5,-3
5396,1,0,3,3,1,0,-5,-10
5399,-1,-7,-4,-6,-5,-2,-3,44
5399,-4,0,-2,1,1,4,7,17
5403,5,1,2,2,-2,-3,-1,-4
5403,-11,-4,-1,0,-4,-4,-11,-83
5412,-3,-3,-1,0,-1,1,3,41
5412,-9,-2,4,-1,0,-5,-12,-4
5427,5,-4,-19,-3,0,0,6,46
5427,-6,4,19,1,0,-1,-14,-61
5428,2,-2,-2,-3,-1,-1,3,-48
5428,0,2,2,-1,0,1,-5,-33
5449,-4,-5,-6,-4,-4,-7,-7,-23
5449,1,-2,-10,-2,-1,-4,7,23
5451,-3,-3,2,-1,5,-3,-5,-22
5451,2,2,8,0,3,2,9,46
5462,0,0,2,1,-4,-1,-4,-13
5462,5,0,-1,0,3,1,5,15
5472,-8,-1,2,-2,1,-1,-3,-26
5472,7,3,-1,-1,-1,3,10,-17
5502,-2,-1,1,0,-2,-1,-4,-14
5502,-1,-3,-2,-3,-4,-2,-8,7
5503,4,-1,-5,-1,-6,-1,2,24
5503,1,0,-1,0,8,2,6,18
5509,1,0,2,0,1,-3,-7,-3
5509,0,-1,-3,-1,1,-1,4,13
5511,6,0,-2,-4,-3,-1,0,10
5511,1,0,1,-1,-7,-1,0,-17
5522,-9,-2,0,-2,-5,-4,-9,-21
5522,10,-1,-4,-1,-1,0,10,74
5531,-3,0,-1,2,-5,-2,-3,-14
5531,1,0,1,2,-4,-2,-5,-11
5547,0,-2,-2,0,-2,0,6,32
5547,1,-2,-3,0,-1,1,0,10
5548,-2,-2,-1,-2,-2,0,-2,2
5548,-3,-3,-1,-2,1,-1,-1,0
5569,-5,0,0,-2,2,-1,-5,-7
5569,4,1,-1,-1,3,-2,-1,0
5570,-2,-1,-1,-2,1,0,0,18
5570,-2,1,-2,0,3,2,4,-9
5592,-3,-2,-3,-1,-2,-1,-3,6
5592,-2,-1,1,-1,-2,0,0,-8
5593,-1,-3,-1,0,1,-1,-3,-17
5593,1,0,-1,1,-1,0,1,13
5607,3,-1,0,0,-2,-2,-2,-4
5607,-3,-1,-2,-1,-1,-2,-3,-13
5613,0,-1,-3,-1,-1,-1,2,-2
5613,2,1,0,-1,-1,1,2,6
5629,-1,-2,1,1,0,1,-1,-7
5629,-3,-4,-2,0,-3,-1,-6,-12
5630,-9,-2,-1,-2,-3,-4,-4,-46
5630,2,0,2,-1,0,-1,6,-4
5643,-1,0,-2,-3,1,-1,-2,-21
5643,0,1,-1,-1,2,-1,0,7
5651,2,0,1,-1,1,-2,-1,-7
5651,0,0,-1,-1,-1,-1,-3,-1
5667,3,-2,-1,0,1,-1,-3,1
5667,-3,-3,0,-1,-2,0,-2,-12
5668,0,-2,0,0,1,2,0,13
5668,0,-3,-2,-2,-1,-1,-2,3
5688,0,0,0,-2,-1,-2,1,10
5688,-2,-1,0,-1,-1,-3,-1,2
5696,1,-2,-1,-2,-1,-1,0,8
5696,-2,-1,-1,-1,-1,-2,-1,6
5702,-3,0,-1,0,-3,1,-1,-9
5702,-3,-3,-4,-1,-2,-3,-1,-4
5711,2,3,-1,-1,-1,-1,-1,5
5711,5,1,-3,0,-1,-1,-3,-2
5726,-1,-2,-2,-2,-2,0,-2,-2
5726,-3,0,0,-2,-2,1,1,-2
5729,-2,-1,-1,0,-2,-2,-1,8
5729,-3,-3,0,0,-2,0,3,1
5749,-1,-1,0,1,-2,-1,-1,0
5749,0,-1,-2,-1,0,1,0,-1
5751,-4,-3,0,-1,1,-2,-2,-1
5751,-4,-1,0,-2,-1,-3,-2,0
5763,1,-2,-1,-1,0,0,0,-1
5763,-2,-2,-2,-2,0,-2,-2,-2
5771,0,0,-1,-1,-1,-2,0,2
5771,-2,-2,-1,0,-1,-2,-2,-2
5787,-4,-1,-2,-2,-1,-2,0,-1
5787,1,-1,-1,0,-1,-2,-1,-2
5788,2,0,-3,-1,-1,-1,-1,3
5788,1,-1,-2,2,-2,0,0,1
5810,-3,-1,-1,1,-2,0,-3,-3
5810,4,1,0,0,-3,-1,-1,1
5811,-2,-2,-2,-1,0,-2,0,1
5811,-3,-3,0,-2,-1,0,0,-2
5823,-3,-1,0,0,-1,-2,1,-1
5823,-5,-2,-2,-1,1,0,0,-4
5832,-3,-3,-1,-1,-2,-1,-1,0
5832,0,1,-2,-1,-1,-1,2,1
5854,-2,-2,-1,-1,0,0,-3,-1
5854,-5,-1,0,-1,-1,-2,0,-1
5856,-1,0,-2,1,0,-1,-1,-1
5856,-3,-1,-1,-1,1,-2,-2,-1
5869,2,0,-1,-2,0,0,-2,-1
5869,-1,1,0,0,1,0,-2,-1
5877,2,-1,-1,-2,-1,1,-3,0
5877,-1,-1,-1,-3,0,0,-3,-1
5883,2,-1,-2,0,-1,-2,-2,-1
5883,-2,-1,1,0,-2,-2,-3,-1
5892,-3,-3,-2,-1,-1,-2,0,-2
5892,0,0,-2,-1,-1,0,0,-1
5906,1,0,0,-3,-1,0,0,2
5906,0,-2,-1,-3,-1,0,1,-2
5909,-1,-1,-1,0,-2,-1,-1,-1
5909,-1,-3,-1,-1,-3,-1,-3,-1
5929,0,0,0,-3,-1,-2,-1,0
5929,1,-2,-2,-2,1,-2,-1,-1
5931,4,0,-2,-1,1,-1,-1,-1
5931,0,0,-2,-1,0,-1,0,1
5943,-3,0,0,1,-3,-2,-1,-2
5943,0,-1,-2,0,-2,0,-1,-1
5951,-2,-1,0,0,-3,0,0,-3
5951,0,0,-1,0,0,-1,-1,-3
5967,-1,-1,-1,0,-1,-1,-3,-1
5967,1,0,-1,-2,-2,-2,1,1
5973,-2,-2,-1,-1,-2,-2,-1,-1
5973,-1,-1,-1,0,-2,-2,0,-3
6005,0,0,0,-3,-2,2,0,-1
6005,-1,-3,-3,-1,-1,-1,-2,-3
6006,-2,0,-2,-1,0,0,1,1
6006,3,1,-2,-1,-2,-2,-2,2
6008,-2,-2,-1,-3,1,-2,-2,0
6008,0,0,0,-3,0,-1,-2,-1
6012,-3,0,-1,-1,1,1,-2,0
6012,-3,-3,-2,0,0,0,-1,-2
6034,1,-1,-2,1,-2,-1,-2,-3
6034,1,1,0,-1,0,-1,-1,-1
6035,-1,-1,-1,-2,-2,2,2,0
6035,-4,-2,0,0,-2,0,-2,0
6049,2,0,-2,0,-1,0,2,-1
6049,-2,-2,-2,1,-1,-3,-1,-1
6055,-4,-1,0,-1,-1,-3,-1,-1
6055,-1,-1,1,0,0,-1,-2,0
6063,-1,-2,-1,-1,0,-1,-2,-2
6063,0,-1,-2,0,-3,0,-1,-2
6102,0,0,-1,-1,-1,-3,-2,-1
6102,0,0,-2,-1,-3,-1,0,0
6103,3,0,-1,1,-1,-1,0,0
6103,-2,-1,0,0,-1,1,-1,0
6105,-1,-1,0,-2,-4,2,0,-1
6105,-6,-1,-3,-3,-1,0,-3,-2
6109,1,0,0,-3,0,-1,-1,1
6109,0,-2,-1,-1,-1,-3,2,-1
6111,0,0,1,-3,-2,0,0,0
6111,1,-1,0,-2,-1,-2,-1,-1
6123,-1,-1,-1,-1,-2,0,-2,0
6123,0,0,-1,-1,-1,-1,-3,0
6131,-3,-2,-1,-2,-2,-4,-3,-2
6131,0,0,0,0,-1,-2,0,-4
6146,-1,-2,-2,0,-1,-2,0,0
6146,3,-1,0,-1,0,0,-1,-2
6152,2,-2,0,0,-1,1,-1,0
6152,2,1,-1,-2,-2,0,-2,-2
6170,-4,-2,1,0,-1,-2,0,0
6170,-3,-1,-3,0,-3,0,0,-1
6171,-3,-2,0,1,1,0,-1,-2
6171,1,-2,-3,1,1,-1,0,-1
6192,-1,-3,-1,0,0,0,1,-2
6192,-1,0,-1,-1,-2,-4,-2,-3
6193,3,0,-1,-2,-2,0,-3,1
6193,0,0,0,-1,-1,1,0,1
6206,-2,0,0,-1,-1,-1,-1,-3
6206,-1,-1,-2,-1,-1,-1,-2,-1
6213,0,-1,-1,1,0,0,-1,-1
6213,-2,-1,-3,-1,-1,-2,-1,-1
6230,-2,-1,-2,-1,-2,-1,-1,1
6230,-1,0,1,0,0,-1,-2,-2
6231,1,1,-1,-1,-1,-2,-2,-1
6231,-1,-1,0,-2,0,1,-2,0
6251,-4,0,-2,-2,2,1,-2,-3
6251,0,-1,-1,1,-2,-2,-1,-1
6260,0,-1,-1,-1,-1,-1,-1,0
6260,-1,-3,-2,0,0,-2,0,-1
6266,-3,0,0,-2,-2,-1,0,-2
6266,4,1,1,0,-2,-2,1,-1
6273,-4,-1,-2,0,0,-1,1,-1
6273,5,1,-1,-1,-1,-1,1,3
6296,-4,-1,-1,-1,-3,-2,-5,-3
6296,0,-2,-2,-1,-1,0,0,0
6298,-3,-4,-3,1,-1,-1,-1,-2
6298,-3,0,0,-2,0,0,0,-2
6312,-1,-1,0,-1,-2,-1,0,0
6312,-1,0,0,-2,-2,0,-3,-2
6314,1,0,-1,0,-1,-3,-1,-1
6314,-4,-1,0,-1,-2,0,1,-3
6334,1,-2,-1,-1,0,-3,-2,-1
6334,0,-2,-1,-2,-2,-2,-2,1
6336,-1,-2,-1,-3,-1,-1,-2,0
6336,0,0,-1,-1,0,-2,-2,1
6349,-3,-1,-2,-1,0,-1,-1,-1
6349,-3,-2,-2,-2,-1,-2,-1,-1
6350,-1,0,0,0,-1,0,-3,-1
6350,-1,-1,-1,0,-2,-1,-3,-1
6372,2,1,0,-2,-1,0,-1,1
6372,-10,-4,-4,0,-1,0,0,-2
6373,3,0,0,-1,-2,-3,1,0
6373,0,-1,1,1,1,-3,-2,-3
6385,2,0,-1,-2,-2,-1,1,-1
6385,-1,0,-1,0,-1,0,1,-1
6394,-1,-1,-1,-1,-1,-1,0,-1
6394,2,-1,-1,-1,-2,-2,-1,0
6409,-1,-2,-1,0,0,-2,-2,1
6409,1,0,0,1,1,-1,0,-1
6410,-3,-2,-2,-3,-1,-1,0,-4
6410,0,0,-1,-1,0,-1,-2,0
6431,0,0,-2,-1,0,0,-1,-1
6431,-1,0,1,0,-1,0,0,0
6432,-1,0,-1,-1,-1,-2,-2,0
6432,-4,-2,0,-1,-3,-2,-2,-3
6445,0,-2,0,-2,-1,-1,0,0
6445,-1,-1,-2,-2,-1,-1,1,-1
6454,0,0,-1,0,-1,0,0,0
6454,1,-1,-1,0,-2,-1,-1,-1
6469,4,-1,-2,-2,-1,-2,-1,1
6469,0,-1,-1,-2,1,0,-1,-1
6471,-2,-2,-3,0,-1,-2,0,-1
6471,-2,-1,0,-2,0,-1,1,0
6492,-3,-2,-1,-1,-3,-1,-2,-1
6492,0,-2,0,0,-1,-1,-3,-1
6493,1,0,-1,-1,-1,0,-1,2
6493,0,-1,-2,-1,1,-1,-2,0
6506,-3,-3,-1,-2,0,0,-4,-3
6506,0,1,0,0,0,-2,-1,-1
6515,-4,-2,0,-1,-1,1,0,0
6515,0,-1,0,-2,-1,-1,1,-2
6529,-3,-1,0,0,0,1,3,-1
6529,0,-1,-2,0,-2,1,-2,-2
6530,-1,-2,-1,-1,1,-1,-3,-3
6530,-3,0,-2,-1,-1,0,-1,-1
6552,-5,-1,-2,-2,-1,-1,-3,-1
6552,-1,0,-1,-1,-1,0,-2,1
6554,1,0,-1,0,-1,0,-1,-1
6554,-4,-2,-1,-1,-1,-1,1,-3
6565,-1,1,-1,-1,-1,-3,0,-1
6565,-1,-2,-1,-1,-1,-1,0,0
6574,-2,-2,-2,-2,0,-4,-2,-1
6574,0,0,-1,0,0,0,0,-2
6590,1,-2,0,-1,-2,0,-1,1
6590,-1,0,0,0,-1,0,-1,-1
6591,2,1,1,-1,-2,0,-2,-1
6591,-1,-1,-3,-1,-1,1,0,-1
6612,0,-3,-2,0,-1,-3,1,-4
6612,-2,-2,-1,-2,-2,-1,0,-1
6614,-2,-1,-1,-1,-1,-1,-1,-2
6614,1,0,0,-2,-2,1,0,-1
6625,2,0,-1,1,1,0,1,0
6625,1,-2,-1,-4,-1,-1,1,0
6634,0,0,-1,-1,-1,-1,0,-2
6634,-2,-1,-3,-2,-2,1,-3,-1
6649,-2,0,-3,0,0,-1,-2,-2
6649,-2,-1,-2,1,0,-1,-2,-1
6656,-1,-1,-2,-1,0,-1,-3,0
6656,-4,-2,-1,-1,-1,-2,-1,0
6680,2,-2,1,-2,-2,-2,-4,1
6680,2,1,-2,0,0,0,0,1
6681,-2,-2,-1,-2,-1,0,-1,-1
6681,-3,-3,-1,0,-1,-2,-1,-1
6686,-2,-1,-1,-1,-1,0,0,-3
6686,-2,-1,-1,0,-2,0,1,-2
6695,-1,-2,0,0,-1,-2,0,-1
6695,-1,0,-1,-1,0,-1,1,0
6709,-1,-2,0,0,0,-1,1,-1
6709,-1,0,0,-1,-1,-2,-2,-2
6710,0,-1,0,1,0,0,0,-3
6710,4,-1,0,-1,-1,-3,-1,-2
6731,1,-1,-1,-2,0,-1,-1,1
6731,-4,-1,-2,0,-2,-1,-2,-2
6732,-4,-2,-3,-2,0,1,-3,-3
6732,0,-1,-1,-1,0,1,-2,-4
6745,1,0,-1,-2,-1,-1,-1,3
6745,-3,-2,0,-2,-3,-2,-3,-1
6762,14,2,0,-1,0,-1,0,2
6762,-1,-1,-1,0,-1,0,-1,-2
6769,0,-1,-2,-4,0,-2,0,-2
6769,-2,-2,-3,-2,0,-1,-1,-1
6771,-6,-3,-1,-2,-3,0,-1,-1
6771,-2,0,-1,0,-1,-1,-2,2
6791,0,0,-1,0,-1,-1,0,0
6791,1,1,1,1,0,-2,-1,-2
6793,-9,-4,-2,-2,-3,-1,0,0
6793,7,2,0,-1,1,-1,2,-1
6806,-7,-1,-1,-1,-2,-3,-2,-2
6806,-1,0,-1,0,-1,-1,0,-2
6821,-3,-1,-2,-1,-1,-2,1,-2
6821,-4,-4,-2,-1,-1,-2,0,0
6829,-1,-2,-1,0,0,0,-2,-1
6829,0,-1,0,-1,-1,1,-2,0
6830,0,-1,1,1,-2,-1,-4,1
6830,-1,0,-2,-1,-2,0,-3,-2
6851,4,0,-1,0,0,-1,2,-3
6851,-2,-3,-1,0,0,0,-1,-1
6853,0,-1,-1,-1,0,-1,0,-1
6853,-1,-1,-1,-1,-1,0,-3,-2
6865,0,0,0,0,-1,-1,-3,3
6865,0,-1,-2,-3,-2,-2,0,1
6874,1,-1,0,-1,-2,-1,0,0
6874,-4,-3,-1,-2,-1,-2,0,-1
6890,-1,0,-2,0,1,-1,-2,-1
6890,0,-2,-1,-2,-2,-1,-4,-3
6891,1,1,-1,0,0,-1,0,-3
6891,-3,-2,-2,-1,-2,-2,-1,-1
6912,-3,-1,0,0,-1,1,0,0
6912,-1,0,-2,-2,-1,1,-1,1
6913,-2,-2,-1,-2,-2,1,-1,-2
6913,-2,0,-1,0,-3,0,-1,1
6925,2,-1,0,-1,-2,-2,0,3
6925,-2,1,-1,-1,-1,0,-1,-8
6935,-3,0,-3,1,-2,-2,-1,-3
6935,0,0,-3,-1,1,-1,0,5
6949,-2,-1,-1,-2,0,-2,-2,-2
6949,0,-1,-2,-2,0,-1,-2,1
6951,1,0,-2,-2,-1,-1,-2,-4
6951,2,1,1,-1,-1,-2,-3,-2
6972,-4,-1,-1,-1,-2,-1,0,-3
6972,-2,-2,0,-1,0,-2,0,0
6974,-2,-2,-2,-3,-1,1,1,0
6974,-2,0,-2,-1,-1,0,1,0
6985,0,-1,0,-1,0,0,0,-5
6985,0,1,-1,-1,-2,-2,1,-1
6994,-3,-2,-2,-1,-1,-2,-3,0
6994,2,0,-1,0,-2,0,-1,-3
7009,-3,-1,-1,0,-1,-2,-3,-5
7009,1,-1,-1,0,-2,0,1,0
7011,2,0,0,-1,-1,-1,-1,2
7011,-1,-1,0,0,-2,-3,-2,-1
7032,-1,0,-2,-2,-2,-2,-2,-2
7032,0,-3,0,-1,1,-2,-1,1
7033,-1,0,-2,0,-3,1,0,0
7033,-2,-2,-1,-2,0,0,-1,-1
7045,-1,-1,-1,-2,-2,1,-2,-4
7045,1,-2,-2,-2,-3,-1,-1,-4
7054,0,-1,-2,-2,0,-2,-1,-1
7054,-3,-1,-2,0,-1,-1,-2,0
7069,0,-3,-1,-1,-3,-2,-2,2
7069,-3,-1,-1,0,-2,0,0,0
7070,1,0,-1,0,1,-1,-2,-2
7070,3,-1,-1,1,-1,-2,-3,-3
7092,-1,-1,-2,1,-2,0,1,0
7092,-5,-1,0,-1,0,-1,-4,-1
7094,-2,0,0,0,0,-1,0,1
7094,1,-1,0,0,-1,-1,-1,1
7115,1,0,-2,-1,-1,0,-1,-1
7115,0,-2,-3,-2,0,-1,0,-1
7116,-5,-1,-1,-1,-1,-1,-2,-1
7116,0,-3,0,-1,1,-1,1,-1
7129,1,-1,0,0,0,-2,-2,0
7129,0,1,-1,-1,-1,-1,1,0
7130,2,1,-1,-2,0,0,-1,1
7130,-3,-1,-2,-1,-1,0,0,-1
7151,-2,-1,-1,-1,-1,-1,0,0
7151,-4,-2,-3,-1,-1,0,-3,-1
7153,-3,-1,-1,0,-2,-1,-2,0
7153,-1,-1,0,-4,-1,-1,0,-1
7182,3,-1,-2,0,0,0,0,-2
7182,1,-3,-2,-1,-1,-1,1,-1
7183,2,-1,0,-2,-2,0,0,-1
7183,-1,0,-2,0,-2,0,-3,-4
7188,-3,-1,-1,-2,-2,0,0,-3
7188,1,0,2,-2,0,-2,-1,4
7204,-1,-3,-1,-1,-1,-1,1,0
7204,-6,-3,-3,-1,-3,2,0,-2
7211,1,0,-2,-1,-1,0,-2,0
7211,2,1,-2,1,-1,2,-1,-1
7213,-3,-1,-2,1,-3,-2,-1,0
7213,-1,-2,0,0,-1,-2,-2,-1
7234,-5,-1,-1,-2,0,0,-3,-2
7234,-1,-2,-1,0,-2,-3,0,2
7235,-3,-1,0,-1,-2,0,-2,-6
7235,-1,-3,0,-2,-1,0,1,1
7257,-4,-1,-1,-1,0,0,-2,0
7257,1,-2,-1,0,-3,-1,-2,0
7259,1,-1,0,-1,-2,-1,-1,0
7259,-1,-1,-2,-2,-1,-1,-2,-4
7271,-1,-1,-2,-1,-1,-3,0,-2
7271,-2,0,-1,0,-1,-1,-2,0
7279,-2,-2,-4,-1,-1,-1,-2,-3
7279,1,0,-1,0,-2,-1,0,0
7294,0,-1,0,-2,-1,0,0,0
7294,-2,-2,0,-2,0,-1,-1,-4
7296,0,-2,-2,-3,-1,0,-1,-1
7296,0,0,-1,1,1,-1,-3,-4
7317,1,-2,-2,0,-1,-3,-3,12
7317,-3,0,-1,-3,-2,0,0,-10
7318,-2,-1,-2,-2,-2,-2,1,1
7318,-3,0,-1,-2,-2,-2,-1,-1
7331,-2,-1,-2,-1,-2,-1,-1,-2
7331,0,-2,-2,-2,-2,-3,-2,2
7338,2,0,0,-1,-1,-1,-1,1
7338,-2,-1,-3,0,-3,-3,0,-1
7354,3,0,0,0,-2,0,0,-3
7354,-1,0,0,-1,-1,0,2,0
7355,-1,-1,0,-1,-1,0,-1,-4
7355,5,0,0,-1,0,-2,0,14
7368,-1,0,0,-2,1,-2,0,-5
7368,-2,-1,0,-2,-1,-1,-2,-1
7383,-3,-2,-1,-1,0,-1,-3,-1
7383,-1,0,0,0,0,2,-2,-3
7391,-4,0,-1,0,-1,1,0,-2
7391,-2,-3,-3,0,1,-1,-1,1
7394,-1,0,-1,-2,-2,-1,1,0
7394,-3,-1,0,-1,-1,-2,-1,-5
7414,-1,-2,-1,-2,-1,-3,-1,2
7414,-2,-1,0,-2,-1,-2,-4,0
7416,1,-1,-2,0,-2,1,-3,3
7416,1,0,0,-1,0,-1,-1,-5
7437,-2,-3,-1,-3,0,0,1,-3
7437,0,2,0,-2,1,-1,-1,1
7438,-1,-2,-1,0,1,-3,1,2
7438,-1,-2,-3,1,0,-1,1,-3
7452,-1,-1,-1,0,-2,1,0,-3
7452,1,0,-1,0,-2,0,-1,4
7453,0,0,0,1,-2,0,-1,-6
7453,-2,-2,-1,-1,-1,-3,-2,1
7481,-5,-5,-2,-3,-1,1,0,-2
7481,-1,-2,-2,1,0,-1,0,-1
7482,-3,-2,-1,-1,-1,-1,-1,-1
7482,-2,1,-1,-2,-2,0,-1,1
7488,0,1,1,0,-2,-2,-2,-6
7488,-2,-2,-1,0,0,-1,-1,-2
7504,-3,0,-3,0,0,-2,-2,-1
7504,-4,-1,-1,-1,-1,-1,0,-4
7512,0,2,0,-1,-2,-2,0,2
7512,-1,-1,-1,0,0,-1,0,2
7514,3,1,0,-2,-1,0,-2,-2
7514,0,-2,-2,0,-2,-2,-1,6
7534,-2,-1,-2,-1,1,-1,-4,-18
7534,2,-2,1,-1,-3,-2,-2,-3
7536,0,-2,1,0,0,-2,1,1
7536,-3,-1,0,-2,0,-3,0,0
7557,1,-2,-2,-1,-1,0,-2,7
7557,3,-1,-1,-2,-3,-2,-3,0
7558,-4,-1,-3,-1,-2,0,0,-1
7558,0,-4,-1,0,-1,2,-1,0
7571,0,0,0,-2,0,-2,2,2
7571,0,0,-1,-1,-1,-1,-2,-6
7574,0,0,0,-1,-4,1,2,2
7574,2,0,-1,-2,-2,-2,-1,-2
7594,-3,-1,-2,-1,-1,-2,1,3
7594,-1,-1,-2,1,-1,-2,-1,-5
7596,2,0,-1,-1,0,-1,-1,10
7596,-2,-1,1,1,-1,1,-4,-14
7608,0,-1,-2,-1,-2,-1,-1,0
7608,-4,-2,-2,-2,-2,0,-1,-3
7616,1,0,-1,-2,0,-1,-1,4
7616,-5,-2,-2,-3,-1,0,-2,-2
7639,0,-2,0,-1,-1,-1,-1,2
7639,3,0,-1,0,-1,-1,1,0
7641,-3,-2,-2,0,-3,-1,-3,-5
7641,3,1,1,-1,-1,-1,5,3
7654,0,1,0,-1,-1,-2,1,-1
7654,-4,-1,-3,-3,-1,-2,0,4
7655,1,-1,0,-3,-1,-1,1,2
7655,-3,-2,-2,-2,-1,-1,-2,-7
7667,0,1,0,1,-1,0,-3,-4
7667,-2,-4,-1,0,-1,0,1,-7
7692,-1,-4,-2,-1,0,-2,-2,2
7692,-3,-3,-2,-2,-2,-1,1,5
7693,-1,-2,-2,0,-1,-1,-2,4
7693,0,-1,0,-3,0,0,-2,-5
7694,-1,-2,0,-2,-3,-1,-1,4
7694,-2,-2,-1,-1,0,-2,-5,-13
7714,-1,0,-1,2,0,0,-3,-4
7714,2,1,0,1,-2,-2,2,-4
7716,-5,-2,-1,0,-1,-1,0,2
7716,4,2,-1,0,-1,0,3,-2
7727,-2,-2,-2,-1,-1,0,0,-3
7727,-2,0,-1,-2,-1,-1,-5,-3
7737,4,-1,-1,1,1,0,4,13
7737,0,-3,-2,-1,-1,-4,-8,-28
7752,-6,0,-1,-1,1,2,8,24
7752,-1,0,0,-2,0,-1,1,8
7754,-2,-1,-2,-2,-2,-2,-2,-12
7754,5,1,-20,-6,-2,-2,0,9
7774,0,-4,3,-2,0,-1,-3,-5
7774,-4,0,0,-2,-2,0,-2,3
7775,-5,0,0,2,-1,-2,-10,-17
7775,-2,-2,0,1,-3,0,1,15
7788,0,0,-5,0,-3,0,2,0
7788,0,0,5,1,1,1,5,2
7797,4,0,5,1,0,-1,-8,-21
7797,1,0,1,0,-1,0,3,3
7811,3,0,2,-1,-1,1,7,12
7811,-2,0,0,0,0,0,-4,-29
7818,-3,-2,-4,-1,0,-3,-8,-25
7818,0,0,12,3,2,0,-1,6
7834,4,2,-5,0,0,-1,-1,-4
7834,2,-3,-5,0,-1,0,-2,11
7836,-7,-5,-18,-3,-1,0,7,60
7836,-2,4,10,-3,-3,0,0,-12
7848,-6,-3,3,-3,-2,-4,-10,-27
7848,0,-2,-1,0,-1,-3,-5,-7
7857,3,-2,-2,-2,-1,-2,-2,-6
7857,4,2,1,2,1,1,0,-11
7871,-2,-1,-3,-4,-2,-2,1,15
7871,-5,-3,-1,-1,0,0,3,-11
7878,1,1,2,-2,-4,-1,-3,-2
7878,-1,-4,-5,-3,0,0,7,24
7894,-8,-4,-1,-2,-2,-2,-1,-7
7894,13,4,-1,0,3,2,-2,-32
7896,1,2,2,-2,-1,-2,5,4
7896,-2,-5,-7,-3,-3,-2,-4,-3
7907,-13,-3,-5,-3,-3,-5,-20,-84
7907,14,1,3,2,2,2,15,58
7917,9,5,2,1,1,1,8,-1
7917,-3,1,-1,-1,-1,-1,-1,-30
7939,4,-1,-11,-1,-1,-2,-8,8
7939,-9,-7,-6,-4,-1,-1,3,2
7946,-1,-4,-1,-2,-3,-4,-13,-19
7946,3,-3,0,3,0,0,4,34
7954,-3,0,-3,1,-3,1,-3,3
7954,2,5,0,-8,-3,-3,-9,-19
7956,2,-1,3,4,-2,2,11,36
7956,-13,-3,-5,-3,-3,-5,-19,-104
7968,10,1,4,2,1,3,15,89
7968,-4,-1,-1,-2,-3,-3,-8,-31
7977,-3,-4,-1,-4,-4,-3,-4,-2
7977,1,6,3,3,3,8,13,-21
7999,-5,-2,0,-2,0,0,-19,-40
7999,-6,-1,0,1,-1,-3,-5,23
8015,1,-1,-2,-3,-1,4,24,9
8015,-10,-10,-4,-2,-7,-13,-29,-38
8015,11,4,6,4,5,8,27,108
8015,-17,-8,-8,0,-6,-6,-24,-68
8017,12,6,4,12,16,6,7,11
8017,-3,-3,-2,-13,-13,-5,2,38
8027,-1,-4,-1,-5,-5,-8,0,-46
8027,-5,0,-1,1,-1,-4,-4,-1
8037,-4,0,1,1,-2,2,-10,-60
8037,1,4,2,7,6,5,4,25
8051,-8,-6,-2,-3,2,-5,-6,-34
8051,-5,-4,-8,4,-9,-5,7,-28
8058,15,5,23,2,1,0,12,65
8058,-3,-2,-5,4,6,2,-5,-1
8074,4,-1,-4,-4,19,4,7,1
8074,-2,3,22,-1,-22,4,7,14
8080,-10,-7,-13,-21,-8,-5,-13,-4
8080,2,-1,-4,-6,-2,6,10,24
8096,1,1,1,5,-1,-4,-10,-31
8096,8,1,14,11,9,-4,-1,19
8098,-15,-7,-16,-8,-6,-9,-15,-50
8098,10,1,5,9,10,2,13,100
8111,-2,2,14,14,0,13,7,-24
8111,-3,-4,-30,-23,-4,9,9,32
8117,-9,-3,4,22,34,-16,-9,-24
8117,-5,5,21,22,-26,-9,-11,-70
8134,6,-7,-28,-31,-10,-9,3,105
8134,1,2,22,14,4,2,-4,-4
8135,-8,-26,-55,-10,33,15,4,-9
8135,-3,5,0,-11,-20,4,-8,-50
8157,3,11,28,31,24,6,1,-47
8157,-5,-16,-34,-21,-25,-6,0,-25
8159,-18,-52,-30,6,24,-20,-17,-14
8159,-11,8,9,35,-8,-8,7,52
8170,24,36,-13,-45,-24,2,-7,-85
8170,5,-46,42,39,59,6,16,37
8179,-10,76,51,15,-88,-6,-16,-44
8179,-7,-33,-49,-91,-8,-20,-22,7
8194,-4,-11,10,106,30,22,19,-90
8194,-14,-11,-23,-43,-64,2,4,9
8195,-1,-49,18,-33,-13,-40,-2,-9
8195,7,58,3,-5,19,-9,-16,-29
8216,-44,-80,-31,-75,-17,-12,-17,70
8216,-45,-83,-25,22,32,8,-6,-106
8219,-31,64,6,-1,-5,26,-16,-67
8219,53,39,70,88,40,13,17,-9
8230,113,127,45,21,-20,-1,-8,-69
8230,21,20,113,75,30,6,10,-50
8239,-31,-108,-45,-72,-22,4,25,78
8239,-63,-60,-15,-24,12,-22,-17,-52
8254,-54,-120,-25,58,1,-13,-10,-5
8254,4,46,-9,-69,-36,-19,-34,-21
8255,57,61,-1,31,7,16,11,8
8255,8,11,12,36,37,40,31,58
8277,-5,-27,4,-5,-4,1,-7,-31
8277,7,25,-26,-10,-15,-22,-5,42
8278,-25,-56,-12,18,7,1,10,3
8278,-9,-7,-2,-76,-65,-13,-7,-35
8290,-24,9,49,13,22,14,-17,-69
8290,23,-3,-41,-29,-2,-12,9,86
8299,6,35,11,22,34,7,-11,-14
8299,19,-34,-51,11,-19,6,8,18
8314,-31,11,0,-34,-15,-10,-20,-67
8314,35,17,43,21,68,52,67,87
8316,-8,2,22,15,-34,-19,-31,-89
8316,27,-10,-14,-17,-9,-12,25,81
8338,-45,-2,-41,-11,-9,-26,-34,-58
8338,48,37,18,0,3,8,16,33
8339,-2,17,10,-4,11,5,-21,-99
8339,-17,-36,-12,4,25,15,9,54
8350,6,-1,-13,4,1,22,44,67
8350,-10,-15,-33,-23,-54,-27,-14,36
8360,17,24,16,-14,-5,-2,34,93
8360,-41,2,13,0,-20,-31,-88,-128
8375,39,-1,-7,-6,8,10,56,127
8375,-37,5,-5,28,34,5,-44,-128
8377,-32,-24,-10,-7,-19,-7,-27,31
8377,61,32,37,6,2,15,61,63
8404,-22,-11,-24,8,15,-12,-2,-34
8404,-14,-17,-30,-58,-28,-15,-17,-91
8406,-7,2,11,-17,-35,-7,-13,-99
8406,11,-12,-10,4,21,6,-8,28
8410,17,11,44,50,31,7,2,39
8410,-10,-2,-32,-19,-6,-2,15,44
8427,-4,-12,-7,-25,-6,5,-9,-16
8427,-11,8,-6,10,-3,-5,9,-13
8434,5,10,7,-20,-30,-15,-12,26
8434,-15,-5,2,-3,8,14,-20,-51
8436,33,4,5,22,13,18,25,89
8436,-23,-7,-14,-24,-22,-17,-17,-57
8457,20,11,6,14,19,-10,8,94
8457,-1,1,-22,-21,-38,-24,-25,23
8458,12,-5,-4,27,47,41,41,21
8458,-14,-20,11,13,20,17,6,-26
8470,-7,25,17,-45,-26,-18,-23,-100
8470,-1,-17,-10,-21,-21,-9,4,58
8486,12,17,12,-2,-9,-14,-4,-15
8486,-8,-10,-11,11,8,-7,-7,-5
8495,-7,5,-8,-2,8,10,-9,-60
8495,-5,-1,-1,16,15,10,6,-8
8496,-8,-5,-42,-12,-3,-5,7,40
8496,8,26,22,-10,-4,2,8,36
8516,-7,-14,16,-25,-30,-10,-7,25
8516,3,-1,25,40,21,7,6,-17
8519,-7,-19,-9,25,20,9,-7,-81
8519,6,-15,-27,-15,-20,-7,1,-33
8539,-12,-8,-99,-80,-21,-20,-20,13
8539,-12,-28,23,22,8,-6,26,15
8541,16,71,69,38,12,9,-22,51
8541,2,0,-19,-18,-10,-7,8,-20
8554,-17,-75,-51,-31,-18,-11,-9,-43
8554,6,63,3,-3,4,-12,-18,-76
8555,35,36,84,56,-13,-7,4,21
8555,-8,14,-40,-2,25,19,-5,1
8577,-1,-6,91,49,10,21,8,20
8577,-18,21,17,65,14,4,-2,25
8578,0,-43,-55,-41,-18,-6,17,-8
8578,6,33,28,19,0,-21,-24,-17
8590,6,7,-72,-47,-6,-13,-7,-11
8590,-21,-55,-31,-32,-4,-3,7,-1
8599,-23,-63,-69,-62,-8,-21,-2,1
8599,26,32,32,25,4,12,12,12
8614,9,46,78,98,32,12,-5,12
8614,32,1,39,23,6,26,18,45
8615,-26,-22,-31,-17,-12,-12,-24,-75
8615,-4,-23,-43,-50,-21,0,-1,17
8637,10,4,16,-5,1,14,7,18
8637,-2,8,-21,13,-3,-10,6,4
8638,9,-7,-14,-11,1,-25,2,21
8638,3,-7,8,2,7,11,-1,2
8650,-4,3,9,12,-13,11,-4,-1
8650,-17,-24,-7,-27,-7,-23,-15,-16
8667,-14,-29,-13,-13,-7,-7,-1,23
8667,-24,2,17,12,14,-1,-1,-19
8674,19,-3,-1,2,-5,11,17,22
8674,3,6,-45,-20,10,28,7,-2
8675,15,8,42,43,46,10,12,8
8675,-3,-8,22,-45,-72,8,-5,-13
8704,-17,-28,-57,-27,-1,-21,-10,-21
8704,-2,-4,-5,-10,-24,-45,-36,-13
8706,4,11,16,9,12,34,6,-12
8706,-14,-25,-19,18,36,43,25,3
8710,-2,5,-7,-32,-32,-97,5,11
8710,2,3,5,6,-26,-16,-14,-4
8719,-6,8,1,20,-2,-27,-25,-3
8719,-1,-11,-3,6,12,16,-1,-12
8734,0,10,1,-4,20,53,19,1
8734,0,8,6,12,34,31,14,-4
8736,-9,-33,-17,-17,-7,26,9,-2
8736,17,47,17,16,-1,-46,-10,12
8756,3,4,12,0,-24,-11,4,-8
8756,-17,-4,-29,-22,-12,-27,-21,-17
8758,15,15,11,-23,13,81,17,20
8758,11,4,13,44,32,-43,-8,-14
8770,-15,-11,-8,1,-10,-17,6,10
8770,14,6,5,-15,-50,-29,-19,-6
8779,-13,-2,-5,10,-2,-27,-16,-5
8779,-17,-13,-9,-8,6,20,-11,-14
8793,10,5,6,13,23,45,11,1
8793,-4,-11,2,0,16,20,9,6
8800,0,29,-5,-7,-14,-14,10,-4
8800,-10,-44,-12,-4,-6,15,4,25
8816,-3,48,7,-5,14,-6,-15,-14
8816,3,-2,-3,-6,-4,-2,10,3
8819,11,14,6,-2,-32,-44,-22,-5
8819,-17,-4,16,15,-17,-40,-6,9
8839,0,-11,-15,6,45,97,3,-26
8839,6,7,7,3,68,101,30,9
8841,-5,10,-20,-40,-54,-89,20,-3
8841,-1,-13,-7,-26,-86,-87,-66,-11
8854,-4,-20,15,12,4,-10,-20,1
8854,11,8,24,39,50,38,15,2
8877,2,30,-5,6,35,64,24,0
8877,-5,-12,-9,-17,-6,-13,6,0
8878,5,-5,-7,-18,-23,-32,0,-2
8878,9,-10,0,1,12,25,2,13
8879,-8,-11,9,1,3,-7,6,8
8879,11,18,0,-2,1,17,8,-10
8890,-19,-25,-32,-16,6,18,-2,1
8890,13,-7,33,18,-26,-83,-8,4
8900,-1,3,2,19,-28,-36,-18,4
8900,-5,1,-3,3,18,28,-1,-5
8914,-4,-19,-3,-5,4,14,8,-1
8914,-9,-4,-16,-19,13,36,4,-6
8921,2,-25,-7,-6,-7,10,12,-2
8921,-11,-17,1,1,-6,-15,-11,-4
8944,16,16,5,-3,-5,-23,-9,4
8944,-7,20,-5,-14,-17,-36,-12,-9
8946,5,-9,12,24,38,41,11,0
8946,2,5,-6,0,7,39,27,1
8950,-8,-11,-13,-8,-57,-88,-13,0
8950,-1,-5,2,-2,-8,-23,-24,-9
8959,5,3,6,28,34,82,0,-2
8959,-2,-5,1,5,19,2,34,0
8974,3,15,4,4,13,46,-24,6
8974,-9,5,-11,-13,-26,-101,-10,-23
8980,-8,-9,-1,-19,-28,-16,-17,3
8980,20,24,1,5,-6,6,-7,16
8996,-3,-5,5,10,33,43,24,6
8996,0,6,-3,-6,-23,-10,19,-7
8998,-4,-6,-11,-31,2,-27,-28,-9
8998,-19,-21,-9,16,-5,-14,-19,-19
9020,20,26,8,10,2,10,8,31
9020,-8,-14,-2,4,14,39,-1,4
9021,1,-4,-2,-16,-1,21,19,3
9021,6,18,10,3,0,-28,2,-1
9034,-19,-9,-3,1,-12,-24,-9,-16
9034,9,3,-4,-7,-22,-10,-1,-13
9040,-24,-1,1,9,10,4,-7,1
9040,4,-7,-1,-23,15,24,2,5
9057,13,-1,-3,6,1,23,-1,-8
9057,-25,2,-3,9,-26,-24,10,-4
9058,-14,-11,3,-9,-20,-42,-26,-20
9058,15,4,24,7,22,33,3,13
9079,0,-12,-46,0,35,84,32,8
9079,7,7,52,35,4,-66,-2,6
9080,4,0,-78,-87,-61,-59,-13,3
9080,-14,-12,-3,8,4,0,-28,-63
9094,-8,-17,20,-15,-13,-38,-2,42
9094,9,9,-16,34,28,78,10,11
9100,32,-6,19,42,49,20,15,13
9100,-1,7,-6,-22,-19,-9,12,-16
9117,-8,-9,1,-7,-43,-63,-36,-52
9117,-28,-19,-4,-7,0,3,-12,40
9118,8,10,0,-11,19,11,10,-28
9118,-5,-7,-4,6,0,23,8,9
9139,-11,4,14,10,20,5,16,8
9139,3,7,6,-23,-22,-38,-11,-30
9145,-12,-8,-6,4,-40,-47,-19,4
9145,-4,-4,-21,-7,11,7,0,45
9153,-20,3,23,19,12,57,12,-38
9153,16,0,-6,2,8,-3,-8,4
9161,-4,1,14,5,2,22,13,-24
9161,2,-17,-22,-23,-7,2,-4,18
9177,22,27,13,-6,-28,-63,-4,48
9177,-4,-21,-26,-23,16,71,8,-11
9178,-9,2,13,31,3,-51,-10,-23
9178,25,28,12,7,-16,0,-18,-14
9200,-8,5,-17,-21,-1,-51,-9,-20
9200,3,5,2,4,11,42,2,-6
9201,6,2,4,14,15,28,20,-8
9201,-22,-19,1,-1,-5,-17,1,-11
9213,2,-11,-7,-10,-11,-13,-6,17
9213,-1,7,-7,-47,-23,-24,-16,-35
9221,-13,10,14,33,21,18,10,59
9221,-17,-24,-7,14,24,41,12,-33
9237,30,-10,-6,28,-5,-20,5,67
9237,-5,23,7,-7,-11,-13,-18,2
9238,3,-8,-2,-5,-1,14,-1,5
9238,3,18,4,-24,15,0,0,-2
9259,-31,-17,-24,2,-18,-15,4,-29
9259,13,-16,2,23,-13,-39,-18,8
9261,5,9,-3,-8,13,53,4,4
9261,4,5,-4,-15,10,-12,2,9
9273,-4,-7,11,11,16,65,16,-27
9273,4,-10,-11,7,-2,28,7,17
9282,21,10,10,-11,-45,-74,-25,-33
9282,-11,-19,-14,-9,-5,-12,-7,19
9297,-1,13,15,10,52,82,10,17
9297,19,16,-3,-12,-29,-55,12,-26
9298,-16,-9,-9,-6,-18,-31,-42,0
9298,13,12,11,6,-6,-19,2,-3
9319,8,-3,0,10,8,34,11,10
9319,-20,-7,-3,5,43,48,21,-3
9320,13,20,0,-19,-23,-19,4,-19
9320,-5,-7,-15,-9,-21,-27,0,42
9333,-5,-3,2,-2,15,4,1,-24
9333,-18,-27,1,-4,-3,8,8,-4
9342,12,15,-1,7,-8,-45,-31,19
9342,-16,14,-14,21,9,40,-1,-14
9357,-10,10,15,-5,-10,-75,-3,-40
9357,-2,-12,-18,-13,-13,-1,-9,16
9359,-17,-2,12,-16,25,73,19,-2
9359,-25,-12,-6,6,1,-43,-7,-15
9379,27,11,-3,-1,-30,-19,-22,-11
9379,-2,12,11,-10,-13,-9,3,6
9381,-11,-16,-15,5,15,22,6,-36
9381,6,-16,0,-2,22,39,17,85
9392,16,12,-2,-5,-15,-16,3,-26
9392,22,17,-10,8,-16,-37,-34,31
9402,17,3,18,4,26,62,13,16
9402,-17,-12,-2,-16,-22,-67,2,-25
9417,0,-6,-3,11,0,18,-21,9
9417,-2,-5,-1,-13,-7,-3,16,-9
9418,-22,-4,2,35,0,-19,-22,-15
9418,46,19,13,3,14,29,6,-17
9439,8,-16,3,-17,-1,-5,3,68
9439,7,-5,-6,-15,-7,0,-1,-37
9441,-20,15,17,-10,16,11,12,-6
9441,11,-2,-7,20,68,94,39,22
9453,-7,-12,4,-4,-94,-107,-33,-19
9453,-13,-1,17,40,-7,15,-58,-67
9462,26,-6,-33,-66,-24,-11,2,-4
9462,-8,-10,-29,1,4,21,-3,-67
9476,15,16,7,4,57,76,40,31
9476,-10,-5,64,51,11,-9,15,30
9479,-2,3,-85,-81,-50,-82,-32,-24
9479,-19,-1,4,-6,-17,-16,-6,26
9500,9,-1,-2,53,17,1,6,-14
9500,-7,-5,-55,-48,13,33,11,14
9502,2,0,14,50,26,13,18,-8
9502,-18,1,43,-6,-32,-49,-15,-19
9515,-8,12,-9,-53,-16,-27,-22,6
9515,-4,-27,-12,3,13,25,5,29
9522,11,0,16,49,50,72,45,8
9522,8,7,22,0,-47,-50,-13,14
9536,5,-4,17,-8,-4,-14,-9,1
9536,-6,8,-5,-21,-29,-57,-11,-1
9538,-33,-26,-8,-12,-8,-10,-13,8
9538,1,-6,11,34,24,39,22,31
9559,-13,4,3,1,20,28,19,-5
9559,0,2,-13,3,11,4,-14,-5
9561,7,8,6,-8,-20,-32,-15,6
9561,18,7,4,8,-16,-13,4,1
9582,-36,-26,-24,-28,-2,8,-1,-24
9582,5,8,-14,13,41,60,24,35
9583,0,4,28,29,-17,-44,-7,-1
9583,15,4,-28,-34,-17,-10,-11,-11
9597,-8,-4,9,7,18,27,11,-15
9597,-4,-9,3,-3,-36,-50,-13,0
9599,-1,-8,-20,12,29,40,-8,17
9599,13,26,5,-4,38,71,23,-36
9620,-6,-4,-15,-10,-59,-98,-29,15
9620,-13,2,-25,0,-6,-10,-9,-7
9621,26,-6,33,15,18,20,13,84
9621,11,14,-14,-10,-11,-9,-9,-12
9633,4,-2,-12,-16,35,63,16,-74
9633,15,1,24,26,14,-8,12,12
9642,-3,1,-18,7,-19,18,7,-17
9642,-6,-12,-34,-34,-9,-59,-24,19
9656,-23,3,8,1,3,19,-13,-45
9656,29,41,6,4,-30,-37,10,62
9664,4,-4,-1,-5,-6,-13,-12,-14
9664,-9,-8,7,11,39,70,11,-23
9680,6,9,20,12,-5,-45,7,22
9680,-12,-20,-21,-34,-21,-5,-12,-36
9681,-9,1,25,2,-8,-24,-11,-6
9681,-11,2,5,22,-8,-12,-15,-4
9693,4,-8,-22,-6,34,47,9,25
9693,0,5,12,15,14,47,24,-10
9702,7,-3,2,-12,-25,-48,-12,-44
9702,-6,-8,13,-15,-7,-7,1,5
9717,-30,5,-2,22,2,-9,3,-28
9717,15,5,-6,-5,14,18,1,-20
9718,-1,19,9,-13,-2,-21,-12,-1
9718,-12,-7,-21,12,-15,-16,-17,-9
9739,3,-19,3,-15,-11,-7,9,25
9739,-18,32,13,-7,17,23,-4,-67
9741,-1,-23,-21,23,14,25,20,55
9741,12,6,14,12,25,40,21,-1
9753,6,2,2,-26,-53,-65,-21,-2
9753,-26,-31,-6,-6,-12,-37,-40,-55
9762,-12,14,31,-16,8,14,11,52
9762,-11,-12,-15,-10,-6,-11,-9,-16
9777,-8,-5,4,29,42,93,17,-18
9777,-10,5,9,-20,1,19,13,9
9778,-19,-9,-21,10,-38,-68,-15,-15
9778,-28,-12,6,-1,-10,5,-3,-19
9799,9,-9,-23,-25,-19,-41,-10,30
9799,28,24,18,8,17,16,-4,25
9800,-21,-9,8,12,15,23,-4,-25
9800,-3,-9,-4,-12,-15,-24,2,24
9813,13,1,-21,-11,8,16,3,18
9813,1,-18,-19,24,17,32,18,17
9822,6,-11,-8,-16,-21,-23,-10,-9
9822,5,2,18,23,-10,-27,-17,-23
9837,11,12,12,-4,7,8,1,13
9837,1,-6,-10,-2,15,20,7,17
9839,1,-8,4,-10,-10,-9,6,-38
9839,-3,-7,15,-12,-20,-24,-8,50
9860,11,23,-38,0,0,-20,-1,-6
9860,-6,-25,34,5,3,4,-3,24
9861,10,9,-1,21,47,69,26,-6
9861,8,5,10,7,-28,-20,-2,-10
9889,-32,-17,1,27,16,18,-16,0
9889,17,6,8,-21,-12,4,14,4
9890,9,-8,-20,-25,-49,-69,-24,-16
9890,3,2,-7,-10,11,-1,-2,7
9896,-9,-12,7,-7,8,35,8,-26
9896,-30,2,-21,14,9,-11,0,-45
9898,20,-5,-36,-9,13,22,13,85
9898,7,13,-5,11,-16,-14,-7,34
9919,-7,-19,2,-14,-17,-10,-6,-22
9919,10,8,-2,2,11,-10,-1,3
9926,-6,5,18,5,7,43,10,-42
9926,-21,-9,-10,-12,15,5,15,-19
9932,13,6,-7,-27,-49,-66,-15,24
9932,-29,-16,-19,2,-22,-49,-41,-7
9941,-2,5,14,20,17,12,-3,-8
9941,6,5,-9,2,23,50,4,-24
9956,1,11,31,7,39,30,20,-61
9956,-4,-17,-16,-13,-34,-24,2,67
9958,-2,17,-2,-13,9,28,15,69
9958,6,-28,-24,17,-8,-28,-7,-1
9980,7,15,9,12,-25,-34,-7,17
9980,28,12,6,-6,22,43,7,-26
9981,-33,-18,-12,-9,11,19,11,-18
9981,24,3,-3,13,-13,-40,-1,19
1,-1,6,6,6,-13,-23,-23,-16
1,12,13,-18,-10,-9,-6,-10,-9
3,-3,-8,-1,-5,-2,19,5,22
3,-1,11,45,0,24,32,25,52
17,13,-8,-7,22,8,10,4,4
17,-15,8,16,6,-20,-36,-5,-16
18,-7,7,8,-11,-10,-40,-22,-46
18,-6,-16,-23,6,4,-1,-4,-25
39,8,5,0,1,24,52,2,-15
39,-15,-25,19,6,10,0,12,47
40,26,27,-12,-26,-27,-35,-10,-26
40,-16,-6,8,-15,-9,-7,-16,-22
61,-5,-1,-1,-3,12,20,14,101
61,8,3,-8,-1,15,31,6,-50
68,10,-5,12,19,5,9,6,16
68,7,5,-4,-14,-12,-23,-3,-28
76,1,-9,-9,-7,-20,-44,-28,-1
76,10,-6,0,-10,2,-6,-1,-13
78,-8,8,-14,16,27,40,15,21
78,-10,-3,19,4,5,21,10,-2
100,9,6,-6,-1,-20,-38,-9,0
100,-11,-3,14,18,-9,-12,-17,-91
101,11,-9,-56,-4,15,28,15,76
101,-3,4,-11,-7,-11,-13,-1,-55
121,-6,-12,3,-13,-10,-11,-12,-11
121,-1,5,1,-7,5,0,0,16
122,-10,-8,11,13,13,11,2,-63
122,4,-5,-7,-7,-5,7,-1,3
137,0,15,8,2,-4,-11,9,24
137,-3,-9,-30,-14,-3,-3,-8,11
143,-4,-17,23,13,-10,-25,-13,0
143,3,8,-8,-3,0,0,-8,11
158,-2,-3,8,2,23,36,9,-78
158,0,2,5,10,0,-6,12,92
159,-10,-8,0,-15,-27,-29,-4,-26
159,-2,7,25,17,7,-12,-12,-10
189,-19,-6,-26,-34,-19,7,-7,-48
189,-5,-13,-3,-3,-13,-19,-3,24
190,2,2,8,-11,9,6,-3,-5
190,2,8,-6,1,0,2,2,-3
204,-2,-4,-1,11,13,4,1,-6
204,-7,0,-3,-6,9,21,8,-17
205,-1,6,18,1,-6,10,3,-17
205,25,1,-16,-1,-6,-24,-15,-1
219,-7,-4,3,-1,-7,-4,-2,14
219,20,1,-2,9,7,21,9,-16
219,5,-4,2,-9,-25,-49,-23,-7
219,14,-4,-5,-10,-4,7,2,15
241,-1,-1,6,15,10,10,4,-2
241,8,-4,2,4,9,17,11,23
242,-2,6,3,-3,22,33,13,-15
242,-5,3,-10,0,-12,-11,6,1
264,6,-5,11,10,-11,-28,-19,2
264,-8,-7,-6,-14,-8,-5,-7,-16
265,-9,-8,10,0,-8,-10,-6,-8
265,-7,7,-13,2,7,12,3,0
278,-1,-11,-5,-11,-13,-13,0,11
278,-15,5,1,2,8,-2,-7,-8
279,3,-1,-5,0,-6,2,3,6
279,-10,-3,12,-2,9,13,4,-1
301,4,2,-15,0,9,15,7,0
301,-6,-3,-3,2,1,5,-2,1
301,-7,2,-3,-1,-19,-23,-3,-18
301,-4,-6,-1,-3,7,-2,-6,-11
332,7,10,2,-2,-3,16,6,6
332,0,3,1,6,11,-14,7,-1
333,-5,-10,-7,-5,-19,-33,-16,-6
333,2,21,30,10,9,21,-6,-1
338,1,0,-11,0,-8,-21,0,8
338,-3,-3,2,-3,-8,3,-2,-10
340,4,5,6,20,23,26,11,5
340,-5,-8,-30,-20,-6,-7,-5,-10
361,0,-7,27,5,13,18,17,11
361,0,-3,-2,-4,-30,-40,-15,-1
361,-12,0,-1,5,-5,-24,-19,-56
361,6,-10,-3,-1,8,19,8,93
392,-8,7,4,13,20,17,4,-6
392,5,-3,-18,-9,0,5,9,-15
392,2,-2,4,-5,-8,-11,1,20
392,-3,-2,-6,-17,-14,-15,-11,-33
398,-2,-6,-4,7,0,4,-2,2
398,-3,3,6,-8,2,-3,0,12
400,-6,0,9,12,34,45,-2,-4
400,0,8,-13,-16,-31,-24,7,-4
429,0,-7,-4,-6,-20,-19,-2,-7
429,0,19,-10,9,-3,-13,-11,-22
430,-8,-8,20,-6,14,32,6,7
430,3,3,1,-1,5,-7,-4,-61
445,11,5,0,4,0,20,6,11
445,6,0,-8,-7,-13,-5,-3,-25
445,3,-5,-14,-5,3,-9,3,7
445,-23,-12,7,12,1,0,-8,-25
458,4,7,-24,12,24,-6,-5,2
458,9,-18,15,-9,-20,15,10,74
459,14,-1,-23,-9,-11,21,10,-23
459,-2,18,10,1,-2,-17,0,3
481,-2,-7,-20,-20,-16,-16,-11,-3
481,-17,-6,5,12,10,-30,-4,-6
482,6,2,17,12,-5,-22,-17,-7
482,2,-8,-7,12,-4,8,1,11
503,-4,-5,-2,0,34,23,6,-7
503,2,4,-7,-51,-42,15,2,-15
504,-13,-8,-5,-3,-9,-4,1,-41
504,15,4,2,-26,-25,-4,9,54
519,-14,-9,-3,-2,1,-27,-14,-16
519,2,3,8,8,11,11,-4,-13
520,2,8,-8,12,17,19,5,7
520,2,-11,-7,-10,-3,-34,3,-19
541,8,5,4,-24,-31,-20,2,10
541,-6,-12,-16,-6,4,8,-18,-14
542,-6,11,19,28,11,-21,13,20
542,-15,-19,4,24,16,21,-12,-19
564,1,10,29,8,3,9,2,7
564,-3,8,4,-5,-6,-8,1,-8
564,-3,-28,-20,-23,-12,18,0,15
564,11,4,-1,-6,3,9,-3,10
579,-17,-6,-11,-4,-26,-62,-13,-50
579,0,-3,6,15,14,2,-1,66
579,8,9,0,-9,0,5,1,18
579,-2,3,7,12,12,13,12,-5
625,-8,-12,-3,13,33,54,1,11
625,-9,1,-3,2,-17,-14,-1,-39
625,9,6,7,6,-15,-26,2,11
625,-7,-2,-10,-23,-22,-26,-16,8
628,0,-7,4,0,-5,13,1,-13
628,24,36,-1,16,28,68,11,-3
631,6,2,-3,12,17,-34,1,12
631,-9,-6,3,9,-13,-2,-5,-22
638,-7,-3,-3,-5,-7,-24,-17,-11
638,-6,-8,5,3,11,7,3,28
640,-11,-3,-6,-3,-4,13,-5,-71
640,11,9,3,15,23,8,21,64
662,-1,-10,-3,-16,-25,10,7,-3
662,-8,-3,1,-12,-7,-31,4,-5
662,-10,-16,-10,-10,8,6,-9,-12
662,-9,-9,-5,7,10,-2,-10,-13
683,5,7,2,4,-5,33,2,11
683,1,1,3,5,15,6,3,-15
684,0,6,-10,-31,-34,-20,9,42
684,-4,-6,1,13,-25,-45,-18,-15
698,-3,-2,-6,3,-12,-51,-26,17
698,1,1,3,18,10,21,-1,-21
699,1,-6,-7,-11,13,22,1,10
699,11,6,-1,5,39,105,21,-2
721,7,6,5,11,-17,-54,10,0
721,-14,-20,7,4,0,-16,-19,-63
722,-6,16,-3,-5,-8,-7,-4,38
722,-3,8,5,-15,9,3,-10,-41
744,17,5,-7,-14,-2,28,16,93
744,0,-4,-4,-7,-2,-4,10,-12
744,-4,-7,16,17,-5,-8,-8,-11
744,-9,-6,-8,-2,-3,-10,0,-7
760,-6,6,25,3,20,3,-5,-22
760,0,0,-7,-26,-27,-10,-1,3
761,10,3,7,8,5,0,-1,-19
761,-3,-2,-9,-10,-2,-6,-2,12
781,1,-7,-2,6,3,-6,-5,-43
781,-4,-5,-7,3,1,2,1,22
782,-13,-6,-6,-12,-5,-10,-14,-18
782,12,-1,7,16,-1,14,1,-64
804,-6,-1,-45,-29,-10,-19,-1,-19
804,8,-3,-6,21,22,15,7,34
804,2,0,-12,-7,-22,-16,0,-3
804,-13,-8,-5,-14,-19,-31,-17,-12
818,-25,-19,-14,-11,-15,-5,-28,-106
818,32,20,4,2,3,3,15,35
819,2,4,0,26,38,19,13,-23
819,-28,-7,1,0,-10,5,-2,-59
841,15,10,14,22,16,10,-9,-66
841,-7,2,13,-5,-7,-6,12,-6
842,17,-12,-1,-22,-10,25,6,22
842,1,-3,8,2,-2,-33,1,-7
864,-5,-7,-4,4,-3,-20,-7,20
864,-31,-4,-4,0,1,-11,-21,-76
864,19,4,-11,-8,-6,5,5,23
864,1,8,21,-5,2,-1,-1,21
894,6,11,-5,-11,-1,13,9,33
894,-11,-7,6,13,8,-4,-5,-9
894,-19,-4,0,10,3,-6,-7,-6
894,11,-3,-13,-17,-13,10,1,21
901,-2,3,10,-20,-8,12,21,26
901,-7,-8,-10,-13,-12,-26,-16,10
902,-2,5,8,35,17,-5,-6,-28
902,4,-1,-6,-46,-10,0,1,39
923,-6,6,-3,24,16,2,2,12
923,3,-16,-8,-58,-28,18,1,-7
924,-18,-13,-9,-18,3,-41,-34,-82
924,35,18,11,46,34,30,28,96
938,1,4,12,-9,-18,19,16,-28
938,6,-4,3,9,5,-16,1,-13
939,-39,-18,-28,5,-17,-29,-24,-56
939,34,13,15,-12,8,21,3,48
961,4,-7,-15,17,11,-10,2,32
961,-2,6,-14,1,-7,5,-6,1
961,-5,-1,1,-6,-4,15,8,14
961,-33,-35,-12,14,0,-20,-6,-41
984,23,28,14,12,2,12,1,24
984,5,13,-6,28,29,26,5,-2
985,8,19,8,-35,-29,-20,2,-23
985,-19,-38,-19,-6,-10,7,1,7
998,-5,-13,-5,-11,-6,-34,-15,14
998,-22,-9,-1,17,7,-9,-5,-23
999,11,-5,-1,-11,-3,20,-5,-61
999,24,20,40,32,24,3,30,49
1021,18,1,-33,-51,-26,8,-1,7
1021,4,-6,-18,-24,-21,-12,-3,2
1022,-4,13,26,20,14,17,6,24
1022,-81,-19,7,9,-7,-34,-63,-128
1043,95,44,51,76,44,61,92,99
1043,-2,-18,5,-21,-19,-30,-6,-80
1044,-5,-4,-35,-28,-10,3,-2,-7
1044,-39,-24,-23,-3,-6,-9,-15,-128
1058,-16,2,4,-10,4,-15,-43,-16
1058,19,-10,-9,-6,10,10,22,-24
1059,12,12,20,15,-4,2,11,31
1059,12,4,-12,-17,-1,1,10,49
1089,-55,-34,-14,-18,-2,-2,-37,-100
1089,3,19,31,32,21,7,-8,-16
1090,-13,-20,-30,-14,-2,-1,-14,-30
1090,20,22,-12,-3,3,15,12,90
1112,20,-26,-12,-34,-43,-32,24,15
1112,-24,-39,-21,-17,-6,-22,-9,-43
1112,6,22,32,32,6,5,1,-60
1112,-29,-18,16,32,10,7,-58,-80
1118,56,33,33,52,28,21,65,29
1118,-69,-23,-23,-50,-54,-20,-31,-45
1120,35,-35,-65,-77,-6,1,16,-12
1120,-23,-18,29,35,-5,-10,-1,-77
1141,-111,2,-6,2,5,-22,-57,-128
1141,91,22,29,37,32,34,32,126
1141,-12,0,26,33,5,-10,1,-17
1141,15,13,-35,-44,-33,-11,12,19
1163,-27,-20,-12,-7,-10,2,-4,-27
1163,-24,6,-16,-25,-14,-22,-32,-101
1164,12,23,93,87,30,20,21,108
1164,27,21,34,19,-3,-16,6,11
1179,-7,-20,-55,-51,-15,0,-15,-9
1179,-14,-16,-9,6,-6,1,-12,15
1179,15,3,13,19,1,-1,7,40
1179,12,18,73,47,30,8,17,63
1201,-22,-12,-12,-33,-49,-21,-30,-24
1201,26,-5,-57,-22,20,1,7,70
1202,-18,-11,-18,-66,-19,-1,1,-10
1202,20,20,20,18,-3,21,21,-2
1223,-18,-6,-1,24,26,3,-13,-68
1223,-11,11,-7,12,3,10,-5,-84
1224,32,28,-2,-2,-4,-24,30,86
1224,2,1,-56,-53,-29,-14,-15,-61
1238,6,2,35,19,25,16,-3,-37
1238,-18,2,20,13,20,17,10,-33
1247,-40,-12,-30,2,-17,-11,-7,-60
1247,44,7,11,9,12,-9,4,28
1261,-12,-6,-1,18,15,31,-13,12
1261,27,19,19,31,-5,-45,5,1
1262,-18,-10,-12,-59,-26,8,-16,-18
1262,7,-8,3,13,13,7,16,4
1284,1,12,-1,17,8,7,-4,-17
1284,-13,2,48,13,5,13,7,-7
1284,12,0,5,45,10,-7,-12,-48
1284,-34,-12,-50,-32,-8,-23,-26,-28
1323,14,-4,-11,-55,-36,-4,19,57
1323,2,3,23,8,11,1,-4,9
1324,-21,-16,-4,-8,-7,5,2,23
1324,-25,-9,-25,-18,-9,-1,-22,-58
1331,4,-6,-16,-8,13,-19,-13,-29
1331,6,-2,-8,-47,-22,8,19,53
1331,3,23,33,45,19,26,6,-14
1331,4,13,7,32,48,-19,-7,20
1344,17,-14,14,-63,-79,-16,10,98
1344,-22,-11,-6,2,4,-8,-17,-36
1345,-3,-3,-24,0,22,2,0,2
1345,0,2,-17,-19,-35,-14,-24,-53
1359,-14,-4,2,6,46,3,-4,-71
1359,-7,-22,-27,-16,-15,-5,14,109
1359,-2,22,69,59,46,54,-39,-128
1359,-2,-10,-61,-11,25,-14,36,82
1381,7,-16,18,-49,-75,-31,-2,59
1381,14,61,14,8,-7,1,-24,-28
1381,-9,-19,-6,-1,20,-11,-1,-28
1381,18,3,2,16,25,21,29,100
1404,-2,3,-10,67,22,8,-10,-28
1404,0,-19,-20,-33,-16,8,5,-36
1405,20,-8,-24,-4,-6,-4,44,85
1405,-16,1,1,-24,-10,5,-44,-128
1443,-18,-5,5,70,32,-9,5,-26
1443,21,9,-1,-49,-46,-38,-6,-55
1443,-2,-5,-32,13,-19,-10,-22,-67
1443,-32,-31,-22,-62,-24,-4,-1,-104
1446,53,39,47,62,45,48,83,56
1446,-8,-9,3,0,-15,-19,-13,47
1449,-4,-10,-25,-12,21,-12,1,7
1449,-13,4,-12,-31,-48,6,-8,-39
1464,-23,-13,-16,-42,-24,-19,-44,-99
1464,10,14,40,46,45,37,32,56
1465,-4,-9,-16,-50,-17,3,3,-17
1465,14,3,17,9,-13,-3,29,48
1478,-19,-15,-32,-60,-35,-21,-18,-8
1478,-25,-16,-17,-18,0,-14,-54,-73
1480,24,10,19,-6,-11,8,17,41
1480,7,3,-8,10,-1,10,-14,-94
1501,13,7,1,8,25,3,28,38
1501,-33,-21,-29,-24,-12,1,-41,-115
1502,30,5,6,22,2,-41,28,107
1502,39,17,28,51,4,16,27,45
1532,-13,-2,-12,13,3,-20,-19,-60
1532,8,4,-5,1,6,31,36,-22
1533,-27,-13,11,27,1,-7,-37,-114
1533,6,3,0,-45,0,8,-5,36
1538,-18,-1,11,49,31,22,-3,-42
1538,-10,-11,-3,11,-9,-15,-5,-23
1546,5,-9,-36,-89,-34,-7,1,47
1546,-9,-3,4,-24,-2,-3,2,-10
1561,0,12,0,55,15,23,6,-24
1561,-24,-31,-2,-29,-18,-16,-2,-42
1561,44,56,30,22,12,-19,-14,81
1561,-5,6,-44,18,16,3,-15,-63
1583,-3,-6,20,-32,2,0,1,22
1583,11,4,68,72,42,17,-4,-27
1584,17,13,17,43,-18,35,39,63
1584,-19,-13,-2,-34,-26,-23,-20,-5
1598,3,1,-51,-40,-3,-19,-10,21
1598,18,9,-6,17,22,6,5,33
1606,-31,-16,19,4,6,1,-17,-112
1606,-11,-5,14,27,4,-9,-9,58
1621,69,9,-2,-13,-7,17,45,82
1621,-4,2,-13,6,4,2,6,-55
1622,-12,-13,-13,10,9,-10,-8,-4
1622,-9,14,32,-32,-27,11,8,-44
1643,-17,-9,-5,-14,-1,-15,-25,-19
1643,2,-14,-27,33,46,1,-9,-30
1645,9,-1,57,42,-28,5,6,43
1645,4,16,-36,-65,-8,-4,6,-4
1657,-15,-9,46,29,-4,0,-21,-13
1657,24,10,-9,-1,-11,-7,8,37
1666,-28,-18,-83,-38,8,-7,-19,-48
1666,19,-6,29,35,14,-2,1,-80
1681,-4,17,79,36,3,4,-21,-1
1681,-11,13,11,18,11,17,31,60
1682,-5,-10,-11,-26,-10,-12,-15,-13
1682,-21,-14,-39,-10,-9,-9,4,-17
1703,27,9,-40,-35,-2,1,4,15
1703,12,2,12,2,-9,3,3,5
1704,2,-10,-10,-25,-3,1,4,-9
1704,14,-4,0,10,2,-1,-4,18
1718,-17,-3,4,-1,2,-4,-10,-46
1718,-3,2,-2,-11,-13,-7,-5,-30
1726,4,0,-14,-19,-5,-3,3,60
1726,4,7,17,26,18,17,36,-31
1741,-7,-5,-11,-5,-6,-4,-4,-72
1741,7,6,-14,-18,-14,-2,14,21
1742,-15,-8,-7,-15,-2,-6,-26,-104
1742,-6,-9,7,18,6,-4,-7,113
1763,-24,-5,-11,-13,-4,-3,-26,-83
1763,14,4,-8,-6,-3,8,42,27
1765,-4,0,10,3,-1,-6,-4,-49
1765,16,1,4,8,1,-2,2,-16
1787,-13,-6,-14,-12,-6,-4,-11,-65
1787,-6,1,1,-2,-4,-2,-11,7
1787,-41,-14,-4,-5,-6,-8,-20,-128
1787,54,18,-2,7,8,16,39,109
1801,-4,-2,0,-7,-4,-3,-9,-36
1801,-36,-11,3,-1,-7,-6,-17,-78
1802,36,9,3,-3,3,5,16,82
1802,-31,-13,-3,-3,-6,-13,-28,-63
1841,-1,-3,-3,0,3,1,10,21
1841,1,-3,-10,-7,-3,-2,2,7
1841,-7,0,9,12,3,0,-11,-19
1841,-1,0,9,5,1,-1,2,-36
1863,2,2,0,2,4,5,13,25
1863,7,0,-1,-6,-4,-3,-2,47
1864,-1,-1,-7,-8,-3,-1,7,42
1864,-10,-6,0,1,-2,-6,-16,-52
1865,-4,-1,2,-3,2,2,5,15
1865,-2,-3,-10,-2,-3,-3,-10,-8
1869,2,1,5,0,3,1,0,2
1869,-2,0,3,-4,-2,-1,-4,21
1883,0,-7,-16,-10,-3,-2,7,30
1883,5,2,1,3,-1,1,0,97
1884,2,1,0,-4,-2,2,4,23
1884,-10,-4,1,1,-2,1,-3,25
1907,5,0,-5,-3,0,0,-2,0
1907,3,2,4,1,-2,-3,-7,-93
1910,-8,-1,-1,-3,4,2,-2,-66
1910,-13,-7,-4,-2,-1,-6,-22,-120
1922,23,7,5,2,6,6,19,19
1922,4,1,3,0,1,-1,3,37
1923,-9,-3,-5,-2,-4,0,-3,-33
1923,-2,-4,0,2,-2,-4,-7,-20
1944,-3,-2,-1,0,-2,-4,-5,-17
1944,-5,-2,1,-5,0,-4,-3,-19
1944,1,0,-2,-5,0,1,1,7
1944,-4,-1,3,0,-1,-3,4,22
1967,0,1,0,1,-1,2,-1,9
1967,6,1,0,-1,-4,-2,-3,-9
1967,1,2,1,-4,-2,1,-3,-2
1967,3,0,1,1,1,2,4,30
1981,-2,-1,-2,0,-1,-2,-2,6
1981,1,-1,3,1,1,2,0,25
1981,2,-2,-1,0,1,3,5,30
1981,2,-1,1,0,0,2,3,13
2004,3,-1,0,-2,1,1,1,4
2004,-4,0,0,0,0,0,-6,-24
2004,-1,-3,-3,0,-4,-3,0,-7
2004,-1,0,-2,0,-1,-2,1,12
2027,-4,0,-1,1,-4,-3,-6,-30
2027,-2,0,1,0,-6,3,-5,-58
2027,-7,-1,0,0,-4,-3,-5,-51
2027,8,2,2,1,3,4,15,94
2041,-2,-1,-1,-4,-2,-1,-3,-1
2041,-3,-1,-2,-3,3,1,-3,3
2041,-3,-3,-3,-1,3,0,-6,-5
2041,-3,-1,-2,-4,-1,-3,-7,-22
2063,1,-1,-2,-3,-1,-2,1,20
2063,0,-1,-2,-1,0,-1,0,11
2065,-5,-3,-2,-1,-1,-3,-1,4
2065,0,-3,-1,1,0,0,-8,-7
2087,0,-1,0,-1,-2,-1,1,18
2087,-3,-2,-3,-2,-1,-3,-6,-18
2087,1,-2,-2,-2,-2,-3,-3,14
2087,1,-3,-3,-1,-1,-4,-3,-8
2109,-1,0,-2,-1,-2,-3,-4,-12
2109,-1,-1,-2,-1,-2,-2,-1,-1
2109,-3,0,-1,-3,0,-2,0,10
2109,-5,-1,0,-2,-1,0,-1,-3
2124,-5,-2,-1,-1,-1,0,-3,-8
2124,-1,-1,-1,-2,-3,1,0,0
2125,-2,0,-2,0,-1,0,3,0
2125,-4,0,-3,0,-2,-2,0,-23
2146,-1,0,-2,-3,-1,-1,0,3
2146,2,0,0,0,0,2,-2,-2
2148,4,-1,-2,0,-1,-4,0,0
2148,-3,-3,-3,0,0,-1,-1,-7
2161,-4,-3,-2,0,0,-1,-1,-2
2161,7,2,-1,0,-1,-4,0,2
2162,0,0,0,-2,0,2,-4,-7
2162,0,-1,0,0,-3,-3,-1,11
2183,-4,-2,-1,0,-2,0,2,-6
2183,-2,-2,-1,-2,-2,-3,-1,-2
2184,-2,-2,-1,0,-3,0,0,1
2184,-1,-1,-2,0,-1,1,0,-6
2207,2,0,-1,1,0,1,-1,-1
2207,-3,-3,-1,-2,-1,-2,-2,-5
2208,2,-1,-2,0,1,-3,-3,2
2208,-7,-3,-1,0,1,-2,-2,-4
2221,-1,-4,-2,-3,-2,-3,-3,-6
2221,-2,-1,-3,0,0,0,2,-1
2221,0,0,-1,-1,-1,0,-1,4
2221,-2,-1,0,-1,-1,1,-2,-5
2244,-1,-1,-2,-2,1,-3,-2,3
2244,0,-1,0,0,-2,-2,-2,0
2252,0,-2,-1,-1,-3,-1,0,0
2252,3,-2,0,0,-1,-1,1,-2
2266,-1,-2,1,-1,-1,-2,0,0
2266,-1,0,-1,0,0,-2,-1,-1
2274,-3,-1,-1,-1,1,0,2,-3
2274,4,0,-2,-1,-1,-2,-1,-2
2280,1,-2,-2,-2,-1,-1,-2,-1
2280,-4,-1,-2,-1,-1,0,0,-2
2288,-2,0,0,-2,-1,-1,-1,2
2288,-2,1,-1,-1,0,0,-2,2
2304,-1,-2,0,-1,0,-1,-1,1
2304,2,0,0,-1,-2,-1,1,-2
2304,0,-2,-2,-1,-1,1,0,-4
2304,0,-1,-1,0,1,-1,-2,-2
2326,-1,0,-2,0,-3,0,-2,-3
2326,0,-2,0,0,-1,0,-3,-1
2328,1,1,0,0,-1,0,1,-1
2328,0,1,1,-2,-1,-1,-2,-2
2340,-2,0,-2,-1,-2,0,-2,0
2340,0,0,0,-1,-2,-1,-1,1
2348,-1,-2,-1,-1,0,1,-4,-1
2348,1,-2,0,-3,-1,-1,-2,0
2364,-1,-1,1,-1,-1,-4,-7,0
2364,-4,-2,0,-1,2,0,4,0
2371,-2,0,0,0,0,-4,-2,-3
2371,-2,-1,0,1,-1,0,2,-1
2387,-1,0,-2,0,-2,0,-2,-2
2387,-2,-1,-3,-1,-4,-2,-2,-2
2387,-1,-1,-1,-2,0,-2,-1,3
2387,-3,-2,-1,-1,-1,-1,0,-4
2400,3,0,0,-1,-1,-2,1,0
2400,-3,-2,0,-1,0,-1,1,-2
2409,-2,-1,0,-1,-2,0,0,-3
2409,0,-2,-2,-3,-1,-1,0,-1
2424,1,-2,1,-1,-1,-1,0,0
2424,0,-3,-3,-1,-2,-3,-6,-2
2424,1,0,-1,-1,-1,-1,-2,0
2424,-3,0,-2,-1,-1,-1,-3,0
2446,-3,-1,-2,0,1,0,-2,-3
2446,-1,0,1,-2,0,-2,-2,-2
2448,0,-3,-1,-1,0,-3,0,1
2448,0,-1,0,-2,-2,1,2,1
2461,-6,-3,-3,-1,0,-1,1,-1
2461,1,0,1,0,0,1,0,-1
2468,-4,-2,-2,0,-2,-2,-1,-2
2468,-1,-2,0,0,1,-1,-1,-3
2484,-3,0,0,-1,-3,-2,-2,-1
2484,-2,-1,0,-2,0,0,0,0
2485,1,0,-1,-1,0,-2,-1,-1
2485,-1,-1,0,-1,-1,0,1,-1
2507,2,-3,-2,-1,1,0,-2,0
2507,-2,0,-1,-1,-3,-2,-1,-2
2508,-2,0,-1,-2,-2,-1,1,-3
2508,-1,-2,-1,-1,-1,-1,0,-1
2520,0,0,0,-1,0,-1,0,-1
2520,-2,-2,-2,1,-2,-1,-2,-1
2529,-2,-1,-1,-2,-1,0,-1,-2
2529,0,-1,0,0,-1,-2,-3,-2
2552,-1,-1,-1,-1,0,-1,-3,-1
2552,-1,-1,-2,0,-1,-2,-1,1
2552,-2,-1,0,0,-2,0,-2,-1
2552,-1,-1,-1,0,1,-1,0,1
2566,0,0,-1,-3,-1,1,1,2
2566,-2,-1,-1,-1,-2,0,-2,-1
2567,-1,-3,-2,0,0,-1,0,0
2567,1,-1,-3,-1,-1,-3,-1,-1
2580,-3,1,-1,0,0,-2,-1,-2
2580,-1,0,-2,-1,-1,-2,-1,-1
2588,-1,-2,-2,-2,-1,-2,-1,0
2588,3,0,-1,-1,-2,0,-2,2
2604,3,1,0,-1,0,0,0,1
2604,-3,-2,-1,-2,0,-1,-2,-4
2604,-2,-1,-1,1,-2,-1,-1,-4
2604,0,-1,-2,0,-1,-2,-1,-3
2627,-2,-1,-1,0,-2,-1,1,0
2627,1,-1,0,-1,-3,0,-1,-2
2627,1,-1,-1,-1,0,0,-1,2
2627,-3,-1,-2,-1,-2,1,0,2
2640,0,0,-1,0,-2,1,0,2
2640,-3,-2,-1,-2,-1,0,-1,-1
2649,6,0,0,0,1,-2,1,-2
2649,-2,0,0,-3,-2,0,-1,-3
2664,-3,0,0,-3,-1,-2,-2,-4
2664,0,-3,0,0,-1,-2,-1,2
2664,-3,-2,-1,0,-2,0,-2,1
2664,0,-1,0,2,-1,1,-1,1
2687,1,-1,-1,-1,-1,-1,0,-1
2687,-1,-1,-2,1,-1,0,-3,1
2688,0,-1,-1,-3,-1,0,-2,-1
2688,1,-2,-1,0,0,-1,0,-1
2709,-1,-1,-2,-1,-2,-2,-1,-1
2709,3,-1,0,-1,-1,0,2,-1
2711,0,1,1,-1,-3,-1,2,-1
2711,-4,-1,0,-4,0,-1,-2,-3
2723,1,-1,0,-2,-1,-1,0,-2
2723,-1,0,-2,-1,0,-2,-1,-1
2732,0,0,-1,0,-1,-1,0,1
2732,-1,0,-2,-2,-1,0,-4,1
2747,-1,-2,-1,-1,-2,1,-1,-1
2747,-2,-1,-1,0,0,0,-3,-3
2748,-3,-1,-2,0,-1,-1,-1,-1
2748,0,-2,-1,-1,0,-2,2,-1
2769,0,-1,-1,0,0,-1,0,0
2769,0,-3,0,0,-2,-3,1,0
2775,-4,-1,0,-2,-1,-2,1,-1
2775,-4,-2,-2,-1,-1,-2,0,-1
2792,-1,0,0,-1,-2,-2,0,1
2792,1,1,-1,-1,-1,0,-1,-1
2793,-3,-1,-1,-1,1,1,-1,-2
2793,1,-1,-1,-1,-1,0,-3,-2
2807,-2,0,-1,-2,0,-1,-2,-1
2807,1,-1,-1,-2,-1,0,-3,0
2808,-1,-1,-2,-1,-2,0,-3,1
2808,-1,-1,0,1,1,-1,-2,-2
2829,1,-1,-1,1,-2,0,-1,-3
2829,-1,-1,-2,0,-3,-1,0,-1
2829,-1,-2,-2,-1,-3,-2,-1,-2
2829,4,-1,0,-1,-1,0,0,0
2844,-3,-3,-2,-1,0,0,-1,-2
2844,-2,1,-1,-1,1,0,0,-3
2844,-2,0,0,-2,0,0,0,-1
2844,-1,-1,-1,-1,-1,-3,1,0
2867,-2,-2,-1,-1,0,-3,-3,-1
2867,-3,-1,-1,-1,-1,-1,-2,0
2868,4,0,-1,-1,1,-1,-2,1
2868,-2,1,-1,0,-1,1,-2,1
2889,0,0,-1,-1,-1,-1,-1,-1
2889,-1,0,0,-2,-1,-2,-1,-1
2890,-2,-2,0,-3,-2,-1,-3,0
2890,-1,-2,-1,-2,0,0,-2,0
2904,2,-2,0,-2,-3,-1,-1,-2
2904,0,0,0,0,-2,-2,1,-2
2904,-2,-1,0,0,-1,-1,1,0
2904,-1,1,-1,-1,-1,-1,0,-4
2935,-3,-1,-2,-1,0,1,-1,-1
2935,3,-1,1,-2,0,1,0,0
2936,1,0,-2,-1,-1,-1,-3,-1
2936,0,-2,-2,-1,-3,0,-2,-3
2950,4,0,1,-1,1,-1,0,-1
2950,-3,-2,-1,0,-1,-3,-1,-1
2951,0,-1,-1,0,-1,-1,0,-2
2951,-2,-1,-3,-1,-2,0,-2,0
2963,-2,-1,-1,0,0,0,-2,1
2963,-4,-1,-3,0,0,0,-1,-3
2971,-2,0,0,0,1,-2,-1,-1
2971,1,0,0,-1,-1,-2,0,0
2987,3,0,-1,0,0,-3,1,0
2987,0,-2,-2,1,-1,0,0,0
2988,-4,-1,-2,1,-2,-1,1,0
2988,-4,-2,-2,-2,-2,0,-2,-3
3010,-1,-1,-1,-2,-1,0,-1,0
3010,-1,1,0,-3,-1,0,-2,0
3011,-1,-1,-3,0,-1,-1,-2,-2
3011,4,1,0,0,-1,0,-1,0
3023,-3,0,-2,-1,-3,-2,-1,-1
3023,-1,-2,0,-1,1,-1,3,-1
3032,1,-2,-1,-1,0,0,-1,1
3032,-3,-4,-2,-1,2,-1,0,-2
3047,-5,-1,-1,-1,-1,0,1,1
3047,2,-1,-2,0,-2,-1,0,0
3049,-2,0,0,-1,-1,-1,-2,-2
3049,0,0,-1,-1,-2,-1,0,-1
3077,-1,-1,-2,0,-2,-3,-3,0
3077,-1,0,-1,-2,-2,-2,-4,-1
3079,-1,-3,0,-1,-1,-1,-1,-1
3079,-4,0,0,-1,-1,1,-1,-1
3082,-2,-1,0,-3,-1,0,-1,-2
3082,0,-1,0,0,1,1,-1,1
3092,-1,0,-2,-1,-2,1,-2,-2
3092,-3,0,0,0,0,-2,-1,-2
3107,-2,-1,-2,0,-3,-1,-2,-2
3107,-4,-3,-1,-2,-2,0,-1,-2
3108,0,-1,-1,-1,-2,-2,-1,-3
3108,3,0,0,0,-3,-2,-1,0
3129,-1,-2,-1,-2,-1,-2,-1,-1
3129,1,0,-1,1,-1,1,-4,0
3130,-3,-2,-2,-1,-2,0,-1,2
3130,-1,0,0,-1,1,-2,-2,1
3143,0,1,-1,0,-2,-3,1,1
3143,-2,0,1,-1,-2,-2,4,-1
3151,0,-2,-2,1,0,-2,1,-1
3151,-2,-2,-1,-1,0,-2,-1,0
3167,1,-1,-1,0,1,1,-2,-2
3167,0,-1,-1,0,0,-2,-2,-2
3169,0,-1,0,-2,0,-1,-1,-1
3169,0,-1,0,0,-2,-2,-2,-1
3189,5,-1,0,0,-2,0,0,0
3189,5,2,0,-2,-2,1,0,1
3191,-2,1,-1,-1,1,-1,-2,-3
3191,-1,0,-2,-1,-1,0,-3,-3
3203,0,-2,0,0,-1,0,-2,-2
3203,0,0,-1,0,-2,-2,-1,0
3219,5,0,-1,0,-3,-2,3,3
3219,-3,-3,-2,-2,-1,-1,0,1
3227,-1,-1,0,-1,2,-1,-3,-1
3227,-4,-2,-1,-2,0,-2,-3,-3
3228,-3,-1,-1,-3,-3,-2,-2,-2
3228,-4,-4,-3,-1,-2,-2,-2,-2
3250,2,2,-2,0,-1,-3,-2,-3
3250,-1,-2,-2,0,-1,-2,-2,-1
3251,0,-1,0,-1,-2,-1,-2,0
3251,-1,0,0,-1,0,1,0,-2
3264,-1,0,-3,0,1,3,0,1
3264,-3,0,-2,-2,-1,-1,-2,-1
3271,-4,0,0,-2,0,0,-1,0
3271,2,0,-1,-1,1,0,-1,1
3294,3,-3,-1,-2,0,-2,-2,-1
3294,0,-1,-3,-1,-1,-2,-3,0
3295,-2,-1,0,1,-1,-1,-2,-1
3295,2,0,-1,-1,-2,0,2,1
3309,0,1,1,0,0,1,0,0
3309,-3,-1,-2,0,-1,-1,-1,-2
3311,-1,-1,-2,-3,-1,0,-1,-2
3311,-5,-1,0,0,-2,-1,0,-2
3323,-3,-2,-1,-1,-3,-1,1,-2
3323,-1,-3,-2,-2,-1,0,1,-1
3332,0,0,-2,-1,0,-1,-1,-1
3332,0,0,-3,-1,2,-3,-1,-2
3346,-5,-2,-1,-2,-2,-2,-4,-4
3346,4,2,2,-1,1,-1,0,-1
3351,-1,-1,-1,0,-2,-2,-1,-2
3351,1,-3,-1,0,0,0,0,-2
3370,-4,-1,-1,-1,-1,0,-2,-1
3370,-4,-2,-1,-2,0,-2,-1,0
3372,-1,-1,0,-1,0,-2,1,0
3372,-2,-1,-1,-3,-2,-2,-1,2
3383,-2,-2,1,-2,0,1,-1,0
3383,3,-1,0,-1,-1,1,1,1
3392,3,-1,-2,-1,-3,2,-2,-2
3392,0,0,-1,-1,-2,0,-2,-2
3406,-4,-1,-3,0,-2,0,-1,-1
3406,-1,-3,-3,-2,-1,-1,-1,-2
3409,-1,-3,-1,0,-1,-2,-1,-1
3409,3,0,-1,0,1,-3,-1,1
3429,-2,0,-2,0,-1,-3,0,-2
3429,-1,-3,-1,-1,-2,-3,-2,-5
3430,-1,0,-2,0,-1,-1,0,3
3430,-1,-2,-1,0,-2,1,0,0
3442,1,-3,-2,-1,-1,-2,0,-2
3442,4,0,0,-2,-1,-2,0,0
3452,1,-1,-2,-4,-1,-2,-2,-3
3452,-2,-1,-2,0,-2,-2,0,-2
3474,-1,-1,-2,0,0,-1,1,0
3474,-5,0,-1,0,-1,0,-1,0
3476,-1,-1,1,0,-1,1,-1,1
3476,-2,0,0,0,-2,-1,-1,-2
3488,-4,0,-1,-1,1,-2,-2,0
3488,-2,-1,0,0,-1,-1,-3,1
3497,1,0,0,0,-2,1,-2,-1
3497,-2,-1,0,-3,-1,0,-2,0
3503,-1,-3,0,-2,-1,-1,2,-1
3503,-3,-2,-2,-3,-1,0,2,-2
3511,-4,-2,-2,-1,-2,-1,0,-4
3511,-2,-1,-1,-1,-2,0,-4,-2
3526,0,-1,-2,0,-1,-2,-3,4
3526,1,-1,-1,-1,0,-1,-2,0
3528,-1,-1,0,-2,1,-1,0,-2
3528,2,0,0,-1,-1,3,2,-3
3550,0,0,-1,-2,-1,0,-1,0
3550,-2,-2,-1,0,-3,-2,-2,0
3551,-2,-1,-1,0,0,-1,-1,0
3551,0,-2,-2,0,0,-5,-1,0
3563,-1,1,0,-1,-1,-2,-3,-1
3563,0,-1,-2,-2,-1,0,0,0
3571,2,1,0,0,-1,-1,1,-3
3571,-5,-4,0,-2,0,-1,0,-1
3595,0,0,0,0,-4,0,0,-1
3595,-1,0,0,-2,1,-2,-1,-2
3596,-3,0,0,-2,0,-1,-3,-2
3596,-1,-1,-2,-2,0,1,-1,2
3609,1,-2,-1,-2,-3,-1,-1,-1
3609,-1,-2,0,0,-3,0,-2,-1
3610,-1,-2,-3,-1,0,-1,-4,-2
3610,3,0,0,-1,-1,-1,-1,-1
3623,-2,-1,-2,-2,1,0,0,-2
3623,2,-2,0,0,-1,0,0,-2
3639,-3,-2,-1,-2,0,-1,0,-2
3639,-4,-1,-2,-1,1,-1,0,3
3646,2,-1,-1,-1,-1,-1,-1,2
3646,-4,-1,-2,-1,-1,0,-4,1
3648,5,0,-1,-2,-1,0,-3,-2
3648,1,-1,0,0,-1,0,-2,-3
3669,-1,-3,1,0,-2,0,0,-2
3669,-3,-2,-2,-1,-1,-2,1,-3
3671,-3,-3,-1,-1,-2,-4,-1,0
3671,0,-1,-1,-1,-1,-2,-1,0
3683,-1,-1,-1,-1,1,-2,-2,-2
3683,4,1,-1,0,0,1,1,2
3691,-2,-3,-2,0,-3,1,-3,-1
3691,-1,-2,-2,-3,-2,-2,-3,-1
3706,-5,-1,-1,-4,0,-1,-2,-1
3706,0,-1,-1,-1,-1,-3,0,-1
3709,-1,0,0,-1,-1,-2,-1,2
3709,-2,-1,-1,1,1,0,-2,-11
3730,-4,-3,-3,-1,-1,-2,-1,1
3730,-3,0,-1,0,1,1,0,5
3731,-4,-1,-1,-2,0,-1,1,-3
3731,2,1,-1,-1,1,-2,-1,3
3752,2,0,-1,-1,-3,-1,-1,-5
3752,0,1,0,-1,-2,0,-1,-4
3753,0,-1,1,-1,1,-1,0,3
3753,-1,0,1,-1,-2,-1,-1,-3
3767,3,0,-2,-1,1,-2,0,0
3767,-3,-1,-2,-2,-2,-3,1,2
3768,-1,-1,-1,0,-1,-2,0,-5
3768,-2,-2,-1,1,-1,0,1,0
3789,0,-3,0,0,0,-1,2,-3
3789,-2,-1,-1,-1,0,-1,-2,0
3791,1,1,-1,-3,0,2,1,-2
3791,0,0,-1,-1,0,-1,-2,2
3828,0,0,-3,-1,-2,1,-1,1
3828,-2,-2,0,0,-2,0,-2,-4
3829,0,0,-2,1,-2,1,-2,-13
3829,-3,-2,-3,-1,-3,0,-2,12
3830,-1,-1,-1,1,-3,-1,-1,6
3830,0,-3,-1,-1,0,-1,-2,-5
3834,-3,-2,0,-3,-1,-1,-2,1
3834,-1,0,0,0,0,-1,-2,-6
3848,4,0,1,0,0,-2,-2,-1
3848,2,0,0,1,0,0,0,6
3856,-1,-2,-2,1,-1,-1,-2,0
3856,5,0,-1,0,-2,0,-2,-6
3871,-1,0,-1,-2,0,1,1,-4
3871,-1,1,-3,-1,-1,-1,0,-6
3874,3,-2,-2,1,-1,-1,2,5
3874,-3,0,-3,-1,-2,-1,-1,0
3886,-2,-1,-1,-1,-2,1,0,-3
3886,-1,-2,-1,-1,0,-1,0,1
3894,-2,-1,-2,-2,-2,-1,0,3
3894,-3,-2,-1,0,-1,-1,4,-8
3910,-3,-2,-2,0,-1,-2,-1,-8
3910,0,0,-1,-3,-1,1,-1,6
3911,-1,-1,0,-1,0,-3,-1,0
3911,0,-3,1,0,1,-2,-4,-4
3931,-2,-2,-1,-1,0,-1,-4,-5
3931,0,-2,-1,0,-2,0,0,0
3940,-1,-1,-1,0,-2,-1,0,0
3940,-4,-2,-1,-2,-1,-1,1,-1
3945,2,-1,0,0,1,-2,-2,3
3945,-4,-3,1,-1,0,-3,-3,-2
3954,-1,-2,1,-1,-2,-2,-5,4
3954,-2,-1,-1,-2,-1,-2,-1,-6
3969,-3,-1,-1,-2,-5,-1,0,0
3969,4,0,-1,-1,-1,-2,-2,-1
3971,0,-1,-2,1,-1,-2,1,-2
3971,-3,1,0,-1,0,-1,0,2
3992,-1,-1,0,-1,-1,0,-3,2
3992,-3,-1,-2,-2,-1,-1,0,-15
3994,-1,-1,0,-1,1,0,2,-2
3994,-1,-3,-2,0,-3,-2,-2,-1
4006,0,-1,-1,-2,0,0,2,3
4006,0,-3,-2,-1,0,-2,-3,-1
4014,0,-1,-2,0,0,-1,-2,-2
4014,-1,-1,-1,-1,0,1,-5,-2
4029,4,0,0,-1,0,0,-2,-5
4029,0,-1,-1,1,-2,-2,0,1
4031,-2,-2,-2,-1,-3,-1,-1,-1
4031,-2,0,-1,-1,-2,-1,-1,1
4052,-1,-1,-2,-2,-1,-2,-1,0
4052,-3,-1,0,0,0,-1,-2,3
4054,2,0,0,0,-1,-1,1,-1
4054,0,1,-2,0,-2,0,4,26
4066,0,-1,0,0,0,1,1,2
4066,0,-1,-1,0,1,1,1,-11
4073,0,-1,-1,-1,0,-1,-3,-6
4073,0,-2,0,-2,1,-1,0,-1
4089,-3,-1,-1,-2,-1,-3,-1,-2
4089,-3,0,-2,0,-1,0,2,5
4091,-2,1,-1,1,0,-1,-3,-2
4091,-1,-3,0,-2,0,0,-4,-23
4112,-1,-2,-3,0,-2,-1,4,30
4112,2,0,-2,-1,0,-1,2,6
4127,0,0,-1,-1,1,2,-1,4
4127,-1,-2,-1,-1,-2,-1,-4,-4
4127,1,0,0,0,-1,0,-5,-19
4127,1,-2,-3,-2,-1,0,-2,-2
4140,-4,-4,-1,0,-1,-1,0,0
4140,-2,-2,-2,-1,-2,-1,0,-2
4149,-3,-1,-1,0,-1,-1,-3,-5
4149,-4,-2,-1,-2,-1,-1,-4,-8
4151,0,-2,-1,-1,-2,0,0,0
4151,-1,0,-1,-1,-1,-2,1,3
4171,-4,-2,-2,-4,0,-1,0,2
4171,2,-2,0,1,0,-1,-3,-4
4174,-4,0,0,0,-1,-2,-2,-4
4174,0,0,-1,0,0,-2,2,-2
4194,-4,-1,-6,-1,-2,-3,0,-2
4194,-2,1,-4,-2,0,-2,-1,1
4196,0,0,-1,-2,0,2,1,5
4196,0,-1,0,1,-1,1,4,-6
4216,0,-1,-1,-1,-1,0,-2,2
4216,-3,-2,0,-1,-3,-1,-2,-3
4218,-1,-2,0,-2,-1,-3,0,2
4218,-2,-1,-2,0,-1,-1,-3,-3
4232,-2,0,1,1,0,2,2,-8
4232,2,-1,-1,0,-1,-1,-1,-3
4234,7,0,0,-2,-1,0,2,8
4234,-1,-1,1,0,0,0,-1,7
4245,-3,-2,0,-2,-2,-2,-4,-25
4245,-4,0,0,-2,-3,1,1,0
4255,-4,-2,-1,0,-1,1,-2,-8
4255,2,0,-3,-1,-1,-1,-2,4
4276,3,0,-4,1,-1,-1,-1,6
4276,1,2,14,0,0,-1,-4,-9
4278,0,-1,1,0,-1,-4,-2,2
4278,-1,-2,-2,-4,-1,0,0,1
4291,-4,-3,1,-1,0,-2,-2,-4
4291,0,-1,-3,-1,0,2,-2,-24
4298,3,-1,-2,-1,-2,1,4,36
4298,-1,1,2,0,1,-1,0,-7
4305,-1,-1,-3,-1,-1,0,1,10
4305,-2,-3,-6,1,-1,1,2,3
4315,-7,0,-2,0,-2,-3,-4,-8
4315,-2,0,-2,-1,-2,-3,-1,7
4329,-1,0,1,-2,0,0,1,-11
4329,-2,-2,-4,0,1,-1,-4,8
4332,0,-2,-1,-2,-3,0,-3,-24
4332,1,-3,-3,-2,1,-1,-1,8
4352,-3,-1,4,-2,-2,0,0,-2
4352,-2,-1,0,0,0,-1,-1,-3
4354,-1,-2,-1,0,-1,-1,-3,-15
4354,1,-1,1,-1,-2,-1,-4,-14
4366,3,-3,-2,-2,0,-2,3,22
4366,-9,-4,-4,-1,-2,-2,-5,-7
4374,-2,0,-2,0,-1,-1,-3,-7
4374,-1,-2,-11,-5,-1,0,0,-3
4397,-2,-2,2,0,-1,0,-1,6
4397,-3,-1,-3,-2,-3,-3,-4,-20
4399,2,-1,-2,0,0,0,4,33
4399,0,-1,-1,-1,0,0,6,13
4412,2,2,-3,1,0,0,-3,-19
4412,-4,-4,-2,0,-2,-2,-3,8
4413,7,3,0,-2,0,-1,1,-5
4413,0,0,2,0,0,0,-2,-18
4426,1,1,0,-1,0,-1,1,41
4426,0,1,-1,-2,-2,1,1,8
4434,-4,-2,-1,-1,-2,-3,-3,-20
4434,-4,-5,-1,0,-3,-4,-3,5
4450,-3,0,0,1,0,0,-1,-1
4450,-1,-2,-3,-1,0,-2,-1,7
4451,8,1,0,1,1,1,-2,2
4451,0,-2,1,-2,0,-1,2,10
4471,-5,-2,-12,-1,-3,1,-7,-39
4471,2,3,26,4,3,1,5,6
4474,0,0,2,-1,-1,0,1,-3
4474,0,0,1,1,1,-2,-10,-16
4495,1,-4,-4,-4,-1,-3,5,37
4495,1,1,-8,-1,-3,0,3,-20
4496,-7,-7,-13,-4,1,-2,0,33
4496,-2,-3,7,1,-1,0,-4,-24
4510,2,2,5,1,-1,-2,1,4
4510,-1,-4,-6,-6,-3,-3,-2,0
4511,-7,-4,-1,1,-3,0,-4,-35
4511,-2,0,-11,-2,-3,-2,5,37
4532,2,-3,3,0,2,-1,-8,-21
4532,3,-2,-25,1,1,0,-5,-29
4534,-4,2,15,0,-1,-1,3,-8
4534,-7,-4,-6,0,0,1,-5,-21
4545,0,3,-4,0,-3,-1,2,15
4545,3,-13,-4,-2,-2,-2,-6,-19
4555,6,0,-4,-5,-3,-4,1,48
4555,1,-1,3,1,-1,1,3,-54
4569,3,-1,2,0,0,-1,-3,18
4569,-3,5,1,0,-1,-1,-4,-16
4570,0,0,-2,0,0,-1,4,9
4570,-10,-3,0,0,-1,-2,0,9
4599,7,-3,-4,-2,-4,-1,1,-47
4599,13,4,3,-2,2,3,5,18
4601,-4,-5,-10,-3,-3,-1,-2,-10
4601,-1,1,-1,1,-1,-2,-16,-12
4605,0,-2,-3,0,-1,1,4,-23
4605,-2,2,4,-1,-3,-2,4,25
4614,-2,-1,-5,0,-2,-4,-8,-34
4614,6,2,-1,-2,1,-1,7,60
4629,-10,-5,-1,-1,-2,-2,-1,49
4629,-7,-3,0,-3,-2,-5,-2,12
4631,3,2,1,1,0,1,0,0
4631,4,0,0,-2,-1,-2,-5,5
4658,-7,-1,-3,2,2,4,5,39
4658,-1,5,23,0,-3,0,-1,-8
4661,4,1,2,1,1,3,7,-2
4661,0,-1,-5,-4,-3,2,0,24
4675,2,3,2,-2,0,1,-4,-30
4675,0,0,-8,-1,2,1,3,26
4676,-14,-6,-4,-5,-4,-7,-12,-26
4676,7,-2,0,-1,-1,-2,15,31
4697,-3,2,0,0,2,4,-4,19
4697,4,1,-4,0,2,1,0,0
4699,-3,2,4,-1,0,1,-1,11
4699,-9,-5,-6,-4,-4,-3,-8,-71
4712,0,-3,-2,-2,-3,-6,-3,-1
4712,3,-1,-2,2,-1,-6,3,17
4713,2,2,-1,13,5,-1,2,-5
4713,-1,2,17,-3,6,-1,2,24
4734,-6,0,13,24,-4,4,-7,-95
4734,-3,-7,-53,-39,-21,3,5,-13
4736,2,3,22,21,-2,1,4,20
4736,6,6,-18,-27,-7,-4,-7,1
4748,-11,-21,-17,1,13,-3,-7,2
4748,-8,2,15,14,2,-2,-11,-52
4755,-1,-6,-15,19,14,3,-7,-45
4755,-2,1,-53,-53,-46,-3,5,-5
4771,2,6,13,-50,-31,-12,-4,-9
4771,-21,-10,9,18,8,-5,-1,-33
4773,-2,-10,-50,-56,-9,-5,-4,56
4773,5,14,71,64,37,8,5,14
4794,-8,-1,3,72,11,5,3,-6
4794,11,14,69,4,-4,31,11,27
4795,-13,-13,-33,-60,-29,-18,7,-8
4795,-9,-14,-8,14,-1,-21,-21,-21
4809,-10,-24,-14,-30,-20,-13,-11,-22
4809,0,17,-2,23,12,-14,2,91
4823,27,23,0,25,36,23,13,13
4823,-22,-47,-15,-37,0,0,-2,18
4831,-3,-32,48,73,6,-1,-6,-44
4831,25,81,47,88,62,25,-8,-60
4832,9,39,24,-38,-53,4,12,40
4832,-5,-10,24,-8,-5,-18,-11,-36
4854,-3,11,-43,-66,8,3,14,41
4854,-25,-37,-53,-51,-34,-21,-26,-35
4856,14,-44,-18,27,26,22,4,88
4856,-23,-54,-37,127,13,19,30,-110
4868,8,54,-29,-89,-61,-29,10,64
4868,9,-11,55,50,28,-10,-21,-21
4876,-27,-11,-54,12,11,2,-10,-98
4876,11,62,-6,-54,-11,10,7,40
4906,54,-6,2,20,39,15,12,-63
4906,23,84,12,2,-12,-7,20,50
4916,-23,36,78,62,38,2,-40,-118
4916,20,29,-8,38,42,22,36,124
4917,-79,-62,-47,-86,-94,-5,-15,-75
4917,-6,-52,-26,-44,-17,-2,-14,-67
4921,36,38,6,37,-8,-47,-24,-11
4921,-24,-12,4,-47,-33,-25,-15,26
4928,49,27,35,44,38,7,16,120
4928,-27,-52,-39,-30,-26,12,6,11
4937,-35,-36,12,-7,7,10,4,-51
4937,-52,3,6,-3,9,8,4,-48
4952,80,21,-5,39,29,7,25,78
4952,-4,-20,-22,-5,-8,-6,6,29
4953,17,-4,-9,-42,-20,3,3,26
4953,-4,13,6,2,5,0,-14,-80
4974,-42,-32,3,16,3,-29,-40,-89
4974,29,-2,-17,6,15,11,43,56
4976,-12,-17,-4,-22,-19,-16,-1,-53
4976,-10,-16,-5,-47,-52,-15,-46,-99
4988,19,26,19,6,19,13,36,61
4988,-11,-6,12,-8,-25,-23,-34,-22
4997,-5,-5,3,25,64,53,44,44
4997,-12,-6,-3,-33,-10,-6,-19,-65
5012,53,29,35,5,-5,0,30,-57
5012,-34,-18,-35,-21,-12,-22,-28,-128
5013,-11,-17,5,9,-6,-13,-23,-31
5013,9,-9,11,37,42,15,-25,13
5034,-23,8,-17,3,-22,17,11,-4
5034,-1,-12,-6,-17,-3,0,49,103
5036,-9,1,17,-4,-36,-36,-38,-32
5036,27,7,-4,1,-7,-6,-1,57
5048,-44,-27,-24,2,24,-1,-57,-17
5048,9,-6,-3,-5,-8,38,39,15
5057,4,1,13,47,7,4,-3,23
5057,24,6,-12,-47,-2,-11,10,10
5072,-12,-8,10,17,4,2,-6,6
5072,-16,-9,2,0,5,-9,-5,-16
5074,7,9,-1,-15,-12,-6,1,-13
5074,19,3,-12,17,25,31,33,21
5094,-14,-1,-24,-1,12,3,-2,-43
5094,-2,0,14,-50,-54,-20,-19,-14
5095,0,-13,-11,-7,-22,-34,-21,-47
5095,-4,-32,11,6,-11,-20,-15,-46
5108,-14,22,1,0,42,21,-9,-69
5108,20,-4,25,24,25,22,17,25
5117,6,-11,-53,-16,-2,25,22,24
5117,-2,-7,12,-12,-10,-14,14,53
5132,-8,-8,91,24,-20,-24,-16,29
5132,-17,2,23,64,7,-9,-36,-71
5134,-8,-31,-55,-61,-6,5,9,43
5134,3,21,-44,-11,12,43,6,-8
5153,0,18,66,37,-6,-22,20,29
5153,31,87,39,22,6,-6,-9,-47
5162,3,-6,24,20,-9,-30,-15,14
5162,-6,-21,-112,-58,-6,-4,-12,-5
5168,3,-33,25,-14,-3,20,21,17
5168,-26,-53,-116,-83,18,22,4,-18
5176,3,-26,101,14,2,-2,32,16
5176,31,29,127,127,9,-11,-38,3
5192,-18,28,-4,25,-21,-42,-12,-36
5192,0,3,-35,-5,5,-12,-21,18
5193,-2,-13,-47,-46,2,12,14,24
5193,-4,-19,-31,-34,1,9,17,4
5214,17,11,-34,-8,14,28,1,44
5214,-7,-16,-17,-11,-11,3,-1,-20
5216,-7,11,-15,-12,3,-19,-8,23
5216,9,42,45,24,-2,16,19,-4
5228,1,-11,-55,-19,8,11,-12,-10
5228,15,17,24,26,3,-41,18,55
5237,-3,7,14,5,-13,-6,6,-19
5237,5,12,-7,-12,-10,49,-5,-14
5252,-9,-13,-42,-19,28,-48,-16,-29
5252,21,-13,42,18,-31,16,26,72
5254,5,18,6,39,-13,-66,-53,-44
5254,-26,-43,-1,5,23,16,-13,-74
5274,-37,-70,-45,-31,17,84,15,7
5274,21,48,30,9,15,-38,18,-6
5275,20,40,3,14,-21,-1,11,27
5275,-16,-30,-8,-16,-40,-65,-28,14
5288,6,1,-7,-3,5,12,-10,-9
5288,-12,-31,-13,-4,40,56,14,15
5297,-11,-18,-14,-29,-2,34,21,-14
5297,15,21,-62,-42,0,-17,20,31
5312,-8,-22,79,37,-45,-35,-9,-7
5312,-17,-21,-15,13,-13,-13,-14,8
5313,2,28,7,7,27,23,-26,-39
5313,-1,2,11,2,6,6,11,4
5335,10,18,-29,-31,-9,-18,4,13
5335,-10,-18,7,7,-15,1,-9,-17
5336,3,-16,3,-1,16,19,5,19
5336,3,15,16,28,9,-13,-1,-2
5348,-1,-2,-19,-29,-15,-19,12,-15
5348,-3,5,7,-12,-15,-15,-15,-7
5365,-5,27,2,9,0,-11,4,-13
5365,0,-16,-14,-9,9,42,5,23
5372,6,17,-1,-11,7,-21,2,-1
5372,-6,-5,-2,5,9,13,-3,-7
5373,-11,-16,-9,-13,-27,-4,0,3
5373,3,-8,-3,0,-1,-43,1,0
5394,5,15,13,12,-4,15,-20,6
5394,-13,-16,-12,-9,13,5,-14,-15
5396,7,15,-9,-14,11,8,10,7
5396,-5,-2,15,2,-3,31,16,1
5408,4,-9,-17,-1,17,10,18,43
5408,-6,-1,4,-23,-10,-34,-21,-50
5417,0,5,21,29,-15,-7,0,5
5417,-8,-14,4,16,0,-27,-15,4
5446,-4,1,-1,-7,4,23,2,-9
5446,4,-17,-6,2,19,50,7,10
5448,-2,13,-7,9,11,13,11,7
5448,3,-4,-1,-2,-41,-85,-18,-7
5454,-7,-3,-16,-16,-30,-32,-29,-10
5454,3,-5,-15,-17,1,15,3,2
5455,11,58,31,48,45,29,9,14
5455,7,3,5,-1,19,106,24,12
5468,-1,8,4,9,-4,-63,-7,-12
5468,-3,1,-12,-15,-30,-36,-11,2
5476,-11,-33,-20,-14,-22,-25,-10,-5
5476,-3,-1,-13,-27,3,-10,0,-2
5491,8,12,29,19,16,71,16,-3
5491,-9,-13,4,29,42,19,4,6
5497,-6,-30,-22,-55,-16,-10,19,2
5497,-1,-12,9,33,-42,-46,-14,7
5515,-2,37,-6,-9,-9,-21,-32,-28
5515,8,21,3,-6,-6,-19,-3,-9
5516,-6,-11,0,7,12,45,-11,-3
5516,9,8,-7,-10,21,-18,15,8
5537,-1,-20,-3,7,1,48,39,20
5537,-2,2,-1,-3,-3,-18,-22,-9
5539,-3,-2,-8,12,-11,-39,-5,-10
5539,-4,11,14,-20,-13,27,10,2
5551,-1,-7,-16,1,-3,-45,-8,-8
5551,-8,4,7,6,-8,-6,-13,-5
5558,8,-19,0,-20,5,5,-7,-1
5558,3,0,-9,-7,25,35,9,1
5575,3,6,11,26,13,32,11,-4
5575,-14,-5,-4,14,-6,4,4,24
5576,-10,-7,8,-4,4,7,-11,-29
5576,7,12,2,3,-37,-57,-7,-9
5596,-5,-3,-26,-41,-5,-7,-14,-9
5596,6,-12,6,-2,19,50,18,13
5604,-4,-13,3,19,7,-54,-1,5
5604,-6,9,15,9,-28,-38,-1,-7
5619,-1,-6,-11,-17,-32,-75,-58,-9
5619,14,6,-15,-19,5,13,7,1
5620,-11,-31,-2,29,15,49,4,3
5620,21,37,9,15,37,45,14,0
5634,4,26,5,7,8,18,33,27
5634,1,0,-6,-27,-35,-22,7,-7
5636,-2,-6,13,-24,-15,-43,-12,15
5636,-7,18,4,55,19,-5,-14,-5
5657,-7,-18,-2,9,7,35,-22,-24
5657,5,4,1,-4,4,-10,-5,-9
5658,0,-2,-8,-19,-13,6,19,13
5658,-6,2,5,-12,-1,-4,-6,10
5670,0,-6,-1,1,9,13,1,-16
5670,-3,-7,-3,16,20,37,15,-2
5679,1,5,-6,-28,-33,-27,1,-2
5679,6,-16,7,-1,-7,-14,-20,4
5694,0,4,5,14,11,-13,3,4
5694,1,6,-4,-6,-29,-34,-21,-7
5695,5,6,0,-8,16,45,13,-1
5695,-9,-16,-15,-5,19,9,2,2
5717,2,4,-3,-13,-2,22,15,2
5717,0,3,-7,4,16,3,3,9
5719,2,8,16,25,5,-17,0,-13
5719,-8,-4,1,-12,-40,-47,-16,-4
5730,-4,-10,-10,-23,-18,-23,-12,-4
5730,0,6,3,22,19,14,12,-2
5747,0,7,0,10,30,69,5,6
5747,-9,-20,-18,-11,4,0,18,-3
5754,8,4,10,13,9,61,-9,6
5754,-1,13,0,-24,-34,-84,-10,6
5755,-10,-28,-11,2,-24,-24,-18,-10
5755,8,18,5,13,18,13,-2,3
5777,-4,-24,-4,-8,0,2,9,-5
5777,-2,-4,3,-1,27,69,15,4
5778,-3,2,-1,-6,6,0,5,8
5778,5,3,7,6,-5,-6,3,-13
5790,-6,-13,0,25,-22,-31,-14,0
5790,2,2,8,1,21,70,20,-3
5799,0,2,-9,-16,-25,-121,-22,-2
5799,-11,-12,-9,-34,-36,-24,-37,-14
5814,-4,2,-4,-24,9,-8,-14,-6
5814,-5,-23,1,37,2,8,9,4
5816,9,13,-2,-5,31,76,15,0
5816,2,7,1,-1,17,9,31,8
5837,4,-3,4,2,-4,-13,1,5
5837,-12,-17,-1,-3,-13,-39,-19,-8
5838,6,26,-10,2,-29,-21,-4,-2
5838,-6,-1,5,10,4,-14,-16,-5
5851,-1,-3,-10,-3,27,45,26,0
5851,1,1,0,-12,5,-6,-3,-4
5860,-5,-8,-2,-2,-10,14,-1,1
5860,5,5,10,-12,-32,-64,-21,-2
5882,-7,7,-13,-21,-30,-22,-14,-2
5882,7,0,3,33,43,37,12,4
5883,-6,-4,-3,10,4,27,10,-4
5883,1,-1,-1,-5,-18,2,0,-2
5896,-3,-2,7,-13,16,-8,4,0
5896,3,13,-4,-5,-33,-29,-21,-4
5898,-1,-10,2,5,18,4,7,3
5898,-6,-10,-7,-7,15,37,14,-1
5910,0,8,0,5,-36,-60,-8,0
5910,-15,-25,-9,-40,-17,-8,-19,-8
5919,11,15,-14,27,33,40,8,3
5919,-2,-7,17,39,27,27,12,2
5935,3,8,1,8,-15,3,6,0
5935,-2,3,6,-2,-20,-51,-16,-6
5936,-1,9,-4,-31,-12,-18,-15,-1
5936,-1,-5,-12,4,50,84,26,13
5957,-6,-9,-2,18,-23,-27,13,-3
5957,-6,-6,-3,-15,-47,-68,-40,-9
5958,0,-5,5,-27,0,-9,-3,-3
5958,1,5,-8,34,25,32,4,4
5970,1,-4,15,23,50,69,27,6
5970,2,-7,-12,-11,-12,-19,18,0
5979,-7,3,4,-5,-52,-47,-32,-9
5979,-6,-6,-22,-44,-6,-37,-11,-6
6001,5,6,3,8,2,4,-4,-1
6001,1,4,2,0,22,61,12,1
6004,0,-9,6,16,21,1,6,3
6004,2,8,2,0,-13,12,7,1
6017,-5,-15,-12,-27,-30,-59,-23,-6
6017,4,13,2,-9,-1,-8,-2,-1
6018,-1,1,-1,-3,19,33,6,1
6018,-2,-29,7,40,21,21,8,5
6039,12,20,5,-3,-10,-16,-6,-2
6039,-5,-1,6,0,-9,-4,-6,-3
6041,-9,-8,-2,-9,-18,-38,-27,-5
6041,-5,-14,-16,-25,-8,-11,1,-5
6055,-2,-2,8,14,32,42,6,6
6055,12,14,2,2,-10,-6,1,4
6056,-1,6,-21,-45,-2,5,12,1
6056,-3,7,22,23,-12,-8,-15,-4
6085,-1,-11,2,15,37,42,23,1
6085,-5,7,-5,-2,-14,-24,-12,-2
6086,-3,-15,16,7,-29,-22,-10,-6
6086,0,2,-21,-31,1,2,-6,-3
6090,-2,2,0,-4,3,20,5,0
6090,1,-10,-1,15,15,-20,7,2
6100,-1,4,3,3,-11,8,1,2
6100,-4,3,-2,-15,-3,-6,-9,-7
6115,-3,-3,-1,-13,-3,3,9,10
6115,-7,-16,-12,9,-2,-4,3,-3
6116,12,19,7,18,-1,-14,-13,0
6116,-5,-7,5,11,1,6,-1,-3
6136,-5,1,-5,-3,3,-1,-8,2
6136,6,-1,-2,-14,10,23,17,6
6138,-2,-5,1,11,2,0,6,-4
6138,-3,0,-10,-16,-25,-23,-16,-5
6159,0,-7,6,-2,-9,-9,0,-2
6159,-8,-16,-14,-13,25,21,6,2
6160,-4,-1,5,15,-3,10,4,-3
6160,9,6,-5,-17,-4,-32,1,0
6174,4,17,-4,14,-20,-38,-20,-3
6174,-6,-7,0,-7,4,18,-2,-1
6176,0,-7,-4,16,22,29,8,2
6176,-5,-3,11,-1,-10,-12,3,-1
6212,-2,1,-10,-4,-6,-7,-7,-3
6212,1,-1,0,15,12,-6,5,0
6215,-2,1,1,-18,-12,11,-3,-3
6215,-1,4,-7,-3,-14,-10,-7,-2
6215,-6,-15,-6,-14,0,-10,-4,-3
6215,13,39,12,9,6,20,3,2
6220,-10,-16,-3,6,11,8,0,-2
6220,5,10,4,2,-2,-1,7,4
6242,-8,-13,-11,-21,2,14,2,-4
6242,-8,-21,14,13,-30,-40,-12,-5
6243,10,12,-4,1,-6,-25,-20,-2
6243,-1,0,-1,0,6,-1,1,0
6258,-2,-5,-3,-2,21,41,15,0
6258,-2,0,-2,-14,-22,-17,5,-1
6259,-5,-7,-2,-16,-17,-20,-8,-5
6259,-6,-5,-18,-20,3,4,-10,-3
6271,2,-5,4,19,5,4,9,0
6271,7,2,3,10,18,11,-7,-3
6280,-2,-3,1,6,-1,3,9,-2
6280,3,1,-1,-3,4,9,3,2
6295,-3,2,1,-5,-8,-7,-1,-3
6295,-6,0,-8,-6,10,-5,-7,0
6296,1,0,5,5,-16,16,9,4
6296,-2,-8,7,7,2,-20,-7,-6
6317,-2,-3,-1,-3,-7,-16,-9,-2
6317,-3,0,-2,0,-4,-6,-5,-2
6318,1,-7,-1,1,24,33,11,2
6318,-5,-23,6,4,9,49,23,2
6339,2,5,-7,-25,-45,-82,-27,-6
6339,1,6,3,24,5,-9,-21,-7
6341,-1,-4,-3,7,10,-6,-1,-3
6341,1,-6,-1,8,9,30,7,3
6362,-1,-4,6,0,26,47,18,6
6362,-3,-2,-11,-18,-26,-14,6,2
6363,-3,-3,5,6,-2,-29,-21,-5
6363,1,5,-2,-1,-14,-14,-7,-3
6384,-1,2,2,1,-1,7,3,-1
6384,6,11,-3,-19,5,1,-4,-2
6385,1,0,-7,2,5,1,7,2
6385,1,10,2,7,2,-17,-9,-3
6390,-6,-2,0,1,-4,-3,-5,-1
6390,-4,-18,4,6,17,46,9,4
6406,-1,11,-8,-13,-4,-5,8,2
6406,3,20,-4,-18,-41,-31,-14,-1
6415,-2,-8,0,20,5,-30,-12,-4
6415,-4,-11,-3,-3,2,8,-6,-7
6416,1,2,-6,-3,15,23,6,1
6416,-1,0,0,-1,16,26,17,4
6437,-4,-4,-1,13,-6,-3,-2,-1
6437,9,22,2,6,-2,-10,-4,-2
6438,-7,-11,3,-4,-7,15,3,-1
6438,3,12,-3,-8,-5,-20,3,-1
6459,5,2,-10,-14,-24,-33,-18,0
6459,-6,-7,-4,1,8,0,-4,-3
6460,-4,-4,-2,0,5,3,-2,-3
6460,2,-3,3,0,-1,-1,4,-1
6482,-6,-12,-1,-4,15,31,10,-1
6482,8,11,2,9,-6,-2,9,4
6483,-4,-6,7,7,4,22,0,-2
6483,1,-8,2,9,-10,-22,-17,-4
6512,17,17,-5,-14,-18,-30,-13,-2
6512,-3,-8,-4,-9,4,7,6,1
6514,-2,-6,0,-5,5,17,14,3
6514,-5,-12,-11,-23,-6,-14,-8,-2
6515,5,30,8,16,-11,-6,-4,-1
6515,-5,-9,2,-9,-11,-13,-3,-2
6544,0,-4,-2,15,11,-6,-5,-3
6544,-4,-6,1,-2,3,28,9,-1
6544,-1,-11,-2,7,19,19,12,3
6544,1,6,6,-4,-1,3,4,2
6558,-1,-3,-8,-18,-25,-37,-10,-5
6558,-1,2,7,14,5,0,-3,-2
6558,-4,-4,-2,4,14,20,4,0
6558,-5,-4,-1,0,10,21,4,3
6560,2,9,-5,-15,-19,-23,-4,-1
6560,-3,-8,-10,-13,-5,1,-3,-2
6570,-1,6,19,15,2,16,13,1
6570,-5,4,-1,17,-17,-50,-23,-5
6580,9,1,-7,4,7,-2,-9,-2
6580,4,4,1,4,8,25,9,-1
6594,-6,-11,-7,-10,10,12,6,2
6594,-3,-9,-7,-16,-6,11,1,1
6595,-2,1,1,-16,-32,-62,-19,-3
6595,-1,1,-4,7,1,-1,-1,-1
6616,-3,-9,2,0,24,33,8,-2
6616,4,9,11,11,-3,-3,1,-1
6618,-2,3,-13,-11,-2,4,4,2
6618,4,14,5,-2,13,13,3,1
6639,-4,-8,-1,0,-28,-31,-10,-5
6639,1,-7,-1,6,17,19,-4,-2
6641,3,1,-1,-6,3,3,7,3
6641,-5,-6,0,9,-8,-22,-14,-4
6661,-1,-3,3,-4,-7,-9,-8,-2
6661,6,9,-10,-7,-7,-5,4,0
6664,-5,-7,-2,1,24,38,3,-2
6664,-1,-5,0,6,14,17,12,3
6676,3,2,-1,0,-34,-40,-8,-1
6676,-14,-16,-8,-9,-4,-15,-4,-5
6692,6,3,6,17,5,3,2,1
6692,-3,0,6,-6,25,48,7,-3
6716,0,1,2,10,1,-16,-1,-3
6716,-4,-9,-7,-12,-17,-8,-7,-4
6717,4,4,-8,-20,-19,-15,2,-1
6717,-6,-7,7,22,2,-13,-7,-1
6718,-4,-11,-13,-3,15,17,0,2
6718,7,30,6,1,2,10,12,0
6721,-10,-19,0,8,5,3,-2,-2
6721,14,15,1,-14,-1,7,4,3
6737,4,9,-12,-6,-2,-5,8,2
6737,-6,-10,5,4,-26,-32,-16,-1
6738,-5,2,-6,-3,3,12,-1,-5
6738,-2,-11,0,4,-1,-10,-4,0
6758,2,5,2,-3,10,9,-5,0
6758,0,-3,4,4,2,16,6,1
6767,-6,-8,2,-24,-8,3,11,1
6767,1,10,-6,-3,-21,-31,-16,-4
6788,-3,2,-14,-17,1,-1,-6,-3
6788,-1,-2,5,11,18,31,12,1
6821,2,0,10,16,8,-4,-8,-2
6821,-2,4,4,-21,-17,-10,0,-8
6821,-7,-3,-7,-7,-19,-24,-17,-4
6821,6,3,-8,-4,0,1,0,0
6826,2,10,7,11,17,19,10,4
6826,-6,2,-4,-9,2,-1,1,2
6827,1,-11,0,-3,-16,-14,0,-1
6827,-6,-21,-5,2,1,-9,-1,-5
6833,-7,-12,-4,-7,2,-13,-5,-2
6833,0,2,2,1,-4,-9,-9,0
6850,0,-4,-5,15,5,5,-1,-5
6850,-2,-11,-1,11,9,11,1,-1
6856,3,14,5,-13,3,29,9,4
6856,2,1,0,-20,6,-3,3,0
6859,6,10,-1,-10,-21,-21,-1,-2
6859,-7,-6,3,8,-32,-46,-21,-5
6879,-3,-11,-2,7,28,43,6,-1
6879,0,2,5,1,6,-6,-6,-3
6881,-6,-1,-10,-17,-16,-1,-6,-3
6881,5,10,1,-5,2,-33,-3,-3
6894,1,2,-2,4,1,-5,5,2
6894,-2,0,0,0,13,15,2,2
6908,-9,-11,-6,3,-10,2,-2,1
6908,-5,-32,-2,-3,8,14,3,-3
6916,16,27,6,9,10,7,2,3
6916,-1,2,-5,-3,-1,19,11,-1
6919,-1,-1,12,-9,-7,-23,-8,0
6919,-2,0,-9,-3,-1,3,-2,0
6939,-6,-4,4,18,-7,-7,-5,-9
6939,-2,-4,-6,7,-10,-19,-5,-5
6941,-2,-3,-2,-5,10,5,1,-2
6941,1,8,-5,-10,11,23,5,1
6954,1,4,3,8,7,-3,1,2
6954,-1,-5,2,0,-11,14,5,-1
6959,-2,2,3,-6,-6,-19,5,5
6959,-12,-14,-6,-2,-11,-24,-20,1
6977,6,0,-11,-5,10,10,1,-2
6977,-7,-8,1,8,-4,4,1,0
6978,-2,5,5,7,8,21,2,0
6978,3,-7,-8,2,2,-5,7,-2
6999,-5,5,-1,-20,-13,-20,-11,-5
6999,-6,1,-3,-8,-6,-5,-1,0
7000,-6,-12,-3,-4,0,5,3,0
7000,3,3,-6,-2,15,13,8,2
7014,-9,-9,9,7,-18,-13,-4,1
7014,4,1,-7,-13,-6,-10,-6,-3
7037,0,-2,3,16,-9,-7,-9,-6
7037,-8,-4,-7,-4,-2,3,1,3
7038,-2,-7,2,7,6,1,1,1
7038,1,4,-1,3,4,0,0,1
7039,7,-10,1,7,14,20,1,-5
7039,9,10,1,-7,-17,-9,0,-3
7067,-5,-8,-5,-13,-13,-16,-3,-3
7067,-2,-2,-2,-1,-6,-22,-18,-3
7068,-2,-3,-5,10,9,4,1,-1
7068,3,15,1,3,20,19,11,1
7073,-3,-4,2,7,-3,9,4,0
7073,1,-1,-2,2,13,0,3,1
7104,-5,-6,-4,-21,-19,-6,-3,-3
7104,-4,4,-4,-3,-5,-6,-5,-9
7105,2,-3,5,10,17,10,1,-4
7105,3,-7,-3,-7,-7,-1,5,3
7111,6,15,12,0,-3,-20,-10,1
7111,1,0,5,27,13,11,2,0
7127,-6,-3,-3,-23,-11,7,4,2
7127,-1,-4,-2,10,14,0,2,-1
7133,5,10,2,-18,-16,-16,-5,-1
7133,-2,-2,-4,-20,-17,-16,-11,1
7135,-6,-5,-2,21,21,12,1,3
7135,1,-1,3,6,1,3,4,0
7142,-5,-4,-5,-21,-15,-1,5,2
7142,1,2,-2,9,15,7,7,1
7157,-1,11,6,-12,-7,-7,1,0
7157,-10,-5,-6,6,3,6,-4,-1
7165,-4,-20,-2,8,1,-25,-9,-5
7165,5,-5,-2,-2,-3,9,2,-1
7179,2,-1,4,-10,8,11,-1,-4
7179,8,11,4,0,-15,-4,5,2
7185,-1,0,-4,0,2,14,-2,-1
7185,-2,-4,3,13,10,4,-3,1
7193,2,3,-6,-1,-11,-16,-6,-1
7193,-2,0,-7,-24,-14,-18,-5,-3
7201,-1,3,1,15,16,14,4,2
7201,-1,-3,4,7,7,19,9,4
7217,-1,-5,-8,-33,-22,6,-4,-2
7217,0,-3,-4,-12,-17,-53,-11,-5
7218,-3,-5,1,14,9,33,0,-5
7218,-3,15,5,-7,3,-7,6,0
7239,1,-13,-11,-4,-9,-4,5,3
7239,4,6,8,11,9,39,-5,-2
7241,-5,6,-8,-13,-14,-54,-6,0
7241,-3,-15,-14,-4,-10,2,-12,-8
7253,-2,-3,-23,-1,24,68,14,0
7253,-3,4,28,7,-2,-18,6,11
7269,1,0,-4,4,-8,-22,-8,-2
7269,-2,3,2,-10,-6,-11,-12,-3
7277,4,4,4,11,4,-3,4,3
7277,-6,-10,-19,-4,15,37,1,-3
7279,7,12,5,3,14,49,16,1
7279,-4,-5,-5,2,-18,-58,-9,-5
7307,2,4,4,-26,-30,-30,-15,1
7307,-12,-16,-9,10,1,6,-4,-18
7309,-3,-2,-9,2,6,5,-4,11
7309,11,8,6,11,9,6,14,13
7313,-3,1,8,3,5,-10,-14,-5
7313,4,1,-1,4,6,8,3,5
7329,-19,-12,-2,-5,-8,-21,-15,-29
7329,-20,-2,-6,-4,-3,16,-4,-18
7336,23,9,10,10,3,-11,10,24
7336,4,-1,-2,1,10,5,-2,-10
7345,-3,-8,2,-4,-9,10,3,-22
7345,-6,-2,3,2,-3,1,4,-17
7359,-9,-3,6,3,-1,-20,-5,-14
7359,-3,-5,-15,-10,-10,-4,-7,-28
7360,8,9,-1,15,31,23,10,50
7360,24,0,-6,-8,-16,-24,19,65
7373,-4,-6,-6,-9,-6,43,-3,-22
7373,4,11,9,-3,-18,-53,6,1
7381,-9,-16,-7,-4,-3,-9,-25,-26
7381,-5,-1,0,-6,-1,6,-5,-16
7396,-7,0,0,17,20,3,-4,-33
7396,-1,1,-20,-8,-12,21,4,20
7403,-6,-19,-6,-2,2,-19,4,-10
7403,7,2,-5,0,-7,19,-5,37
7419,-9,-2,-1,-1,-10,-43,-12,-64
7419,-4,2,5,-6,2,18,-6,-24
7421,15,7,-21,17,12,-7,10,6
7421,6,-19,14,-18,-13,14,5,17
7433,-12,-4,1,2,1,-23,7,6
7433,1,8,5,4,-5,-19,-9,-15
7442,6,10,-1,-10,0,5,-14,-50
7442,-3,-9,-4,2,4,7,0,-25
7456,2,6,9,9,-5,5,-4,23
7456,-8,-10,-23,-23,0,-3,1,10
7463,0,-6,19,8,3,6,16,25
7463,-6,7,5,14,0,-6,-2,-9
7479,-12,-9,-5,1,-15,3,-8,1
7479,13,4,4,7,-2,-27,-10,28
7481,5,4,-3,-15,2,39,4,1
7481,-2,-2,-5,-13,-6,2,11,35
7493,1,0,-4,4,20,-11,-10,-5
7493,5,5,12,-12,-14,3,4,0
7501,-1,-6,-11,-13,-20,-7,-3,18
7501,-3,-3,14,-18,-5,-29,-17,-26
7525,9,5,-3,8,27,21,3,6
7525,-8,-6,0,-12,-20,9,0,1
7526,9,4,-1,-6,-13,-29,-1,1
7526,-7,2,-5,11,19,28,-15,-79
7547,7,-1,-4,1,-3,-12,13,100
7547,4,2,14,11,18,28,12,-23
7548,-3,6,4,5,-6,-14,-3,-14
7548,-4,5,-9,-1,-6,-5,-4,-7
7562,-5,-17,-2,13,2,7,-6,-13
7562,5,13,-7,14,-4,-35,-3,-7
7563,-3,-5,-1,-12,3,15,4,2
7563,-3,7,-10,-16,-13,7,-3,2
7575,0,-16,0,-5,-5,8,5,-9
7575,-6,-4,7,17,17,31,4,15
7584,-36,1,3,5,-19,-62,-31,-119
7584,62,14,12,24,22,4,41,95
7599,6,11,-6,-21,-23,-10,-11,-78
7599,4,-6,-11,-29,-7,6,9,-4
7601,-5,3,13,4,19,54,7,5
7601,-23,-10,-27,1,4,-5,-12,-41
7622,-1,0,16,1,-21,-36,7,16
7622,-2,0,-1,-6,13,-2,-17,-14
7629,17,0,12,16,12,30,16,87
7629,4,2,-10,0,5,-10,-1,-7
7636,-12,-2,-6,-29,-35,-17,-11,3
7636,-19,-11,3,-8,1,16,-10,-28
7644,9,5,1,12,19,-20,-1,-28
7644,8,8,12,-11,-12,9,0,42
7659,4,2,-1,15,11,2,12,-3
7659,-2,-7,-9,-15,-27,-26,-9,12
7674,-18,-12,-33,-4,4,5,-11,-43
7674,-25,-21,-3,30,32,18,-19,-97
7681,26,13,16,-20,-17,8,32,11
7681,4,16,-19,-13,-24,-30,1,71
7683,12,11,-2,4,5,9,10,6
7683,-30,-14,1,-28,-17,-20,-22,-49
7696,-28,-8,-8,15,19,8,-11,-57
7696,-14,-4,4,17,21,5,-13,-63
7704,48,6,11,12,-2,-6,30,106
7704,-3,22,-1,-30,-36,3,4,24
7719,1,-10,-25,-19,3,27,-4,-40
7719,12,-19,11,25,21,-16,11,10
7722,-31,-5,-3,8,-15,-17,-35,-125
7722,-15,-2,37,24,9,-12,-9,18
7742,71,38,18,-3,10,33,52,127
7742,-25,-12,-27,-22,-16,-20,-16,-89
7748,13,4,8,-8,-7,18,12,40
7748,-20,-22,-17,7,3,-11,-5,-91
7755,-18,-11,-19,1,1,-28,-26,-2
7755,18,8,31,34,16,26,10,57
7770,-15,-11,-35,-69,-36,-3,0,-3
7770,-6,-3,-12,5,3,16,27,15
7779,-22,-2,24,70,7,-15,-37,-113
7779,-33,23,6,7,0,-19,-34,-81
7781,84,25,18,42,32,25,64,108
7781,-17,7,-10,-39,-17,7,-8,-114
7801,0,-21,-78,-48,-1,3,16,45
7801,12,1,88,49,-1,-2,14,-2
7804,-51,8,12,27,5,-26,-50,-107
7804,31,5,29,25,25,29,20,114
7815,1,9,-16,-25,-11,-22,-5,-25
7815,9,-12,-55,-49,-17,24,6,14
7825,-13,-11,-18,-42,-13,-27,-10,16
7825,15,2,34,67,51,15,16,0
7839,-36,-9,17,-44,-77,-49,-34,-12
7839,29,11,-7,-4,25,8,7,18
7840,3,-4,1,18,2,23,1,-15
7840,-17,-6,-21,4,-6,-25,-13,-36
7862,-1,-7,10,22,34,21,1,-59
7862,36,9,13,11,15,13,33,80
7863,-10,-13,-25,-21,-46,-18,-4,-72
7863,-13,-5,-54,-29,-19,-23,-31,-66
7875,-11,-6,41,40,29,-8,-35,-94
7875,-12,0,-7,-17,-5,42,-1,-50
7884,-18,-7,-7,-14,-18,-10,11,-55
7884,-15,-23,10,-37,-34,-28,-6,56
7899,27,3,-14,-7,5,-3,10,46
7899,-9,1,6,37,12,-13,-27,-42
7901,5,-9,5,-1,25,21,17,56
7901,-20,-9,-21,-42,-46,2,-6,-86
7922,-22,-4,6,27,51,12,17,63
7922,33,15,10,6,-14,11,15,0
7923,-8,3,16,-9,0,-16,-16,-67
7923,28,13,18,23,14,-2,13,40
7935,-7,0,-7,-3,2,13,23,38
7935,-40,-14,-14,-3,25,5,-18,-63
7952,-9,2,36,16,-21,-32,-33,-16
7952,14,-13,-83,-81,-29,-15,-8,10
7959,10,5,61,15,7,18,12,25
7959,-16,-18,1,46,13,27,15,45
7961,16,3,-19,-21,-5,-33,0,77
7961,-6,5,19,25,24,0,-28,7
7982,-3,1,-42,-32,-25,-3,3,-34
7982,-20,-17,-22,-51,-27,-26,6,-12
7983,-22,-15,2,17,29,9,-60,-100
7983,2,18,35,39,29,19,27,-73
7995,21,11,-15,-10,-45,-3,0,-41
7995,7,-7,17,-15,0,-16,14,-16
8005,-58,-26,-22,-2,0,-12,-66,-98
8005,34,43,50,63,46,22,16,119
8019,-8,-11,8,3,-16,4,-7,-25
8019,-3,-4,-25,-1,17,-5,-10,-36
8021,-18,-17,-3,-60,-88,-17,34,-34
8021,19,19,-16,-2,48,24,11,2
8042,13,-5,50,27,-9,11,10,56
8042,5,13,-49,-38,-21,-31,-5,7
8044,-28,-2,14,3,8,8,3,-70
8044,24,-27,-27,1,9,-6,-12,-18
8056,-5,3,-7,59,44,7,6,-19
8056,-8,7,-11,-29,-28,-13,3,-25
8072,28,0,9,4,-13,20,33,78
8072,-42,-34,-26,-23,-22,23,-18,-57
8079,12,18,29,17,28,-53,-16,-12
8079,-9,-10,17,34,-1,-1,7,46
8085,56,34,-6,29,43,36,29,71
8085,-14,-12,-20,-39,-36,-27,-2,-7
8101,-23,-10,-7,-4,-11,16,7,-37
8101,-20,-24,12,28,8,1,-23,-60
8104,25,15,6,22,28,2,22,94
8104,11,4,-36,-82,-70,-12,-14,-64
8116,10,-3,0,-22,13,3,5,9
8116,-2,7,17,12,-10,-9,-16,-28
8125,-3,12,1,17,45,57,16,10
8125,-2,-8,42,45,-1,-52,-5,22
8139,-22,1,-17,-21,-39,-16,-13,-51
8139,-12,-15,1,-4,5,-7,-24,-39
8145,20,13,9,30,41,37,39,115
8145,-10,-4,9,13,-22,-3,4,-57
8162,1,4,-37,-47,-26,-25,-26,36
8162,18,12,29,0,11,-9,14,52
8164,-1,-12,-32,-8,-9,-7,-12,-2
8164,-19,-3,-17,-50,-23,2,-8,-50
8185,4,-11,7,-6,15,17,13,-26
8185,13,36,23,27,7,12,-6,-17
8186,-5,-5,8,10,5,-17,-10,-28
8186,-9,0,14,36,11,8,-3,6
8199,5,-5,-26,-33,-9,24,18,89
8199,4,2,-20,-45,4,-19,12,-29
8200,-25,-18,10,3,-38,-39,-19,-104
8200,5,10,4,19,20,-32,-16,91
8222,0,0,-19,-14,-3,9,-15,-49
8222,-10,-15,-2,9,5,21,0,-36
8223,14,24,2,13,25,19,22,74
8223,-4,-29,4,8,15,34,6,-10
8235,3,30,-8,2,-13,-23,-14,-20
8235,-16,-14,-15,10,-2,1,4,-34
8245,11,4,14,-24,-29,-29,-19,-37
8245,13,7,2,-9,-2,8,5,0
8259,-9,-5,4,10,36,18,-15,-54
8259,-4,1,-10,-19,-9,0,13,-15
8266,-4,6,3,41,-19,-21,-20,-8
8266,-3,3,-3,-21,-19,-16,-11,-19
8289,-4,-3,11,-4,-4,-8,-7,-12
8289,-3,6,-18,3,16,10,-2,0
8290,7,-29,-36,-54,-19,9,7,-3
8290,5,12,48,33,23,14,44,45
8295,-9,7,25,38,0,-12,-49,-73
8295,17,-8,2,20,1,15,14,122
8310,-1,2,-5,-13,0,-16,8,-79
8310,23,2,-25,-11,0,0,21,76
8318,6,-8,-5,-14,30,15,33,-5
8318,-6,4,-7,-10,-41,10,-23,-40
8325,-8,-10,-32,-44,-19,-29,-11,52
8325,-3,2,-3,-2,7,28,-8,-82
8340,-2,-4,12,25,20,-23,-2,9
8340,11,-4,-29,-56,-38,-7,5,15
8350,-9,-3,-23,0,-7,-7,-8,27
8350,-3,2,44,19,-2,-29,-22,-11
8356,-9,-29,1,41,32,12,10,-25
8356,7,18,18,16,1,21,2,-5
8365,5,0,17,-24,-21,9,3,-21
8365,-3,2,-31,6,30,2,9,50
8379,-13,3,12,-13,-45,6,-12,-57
8379,19,6,-9,22,37,-9,20,81
8385,6,-1,26,20,14,17,-3,9
8385,-5,-7,-14,-27,-27,17,24,28
8402,1,-5,-33,-25,-10,-12,16,7
8402,-10,-6,-35,-5,-19,-33,-48,-59
8404,-11,-2,-27,-12,19,-6,-6,-14
8404,-1,12,65,53,-2,-20,-38,-101
8415,1,-2,33,28,-2,18,27,62
8415,-17,-1,23,7,2,-3,-29,-73
8424,8,-6,-14,3,11,15,15,96
8424,1,0,-36,-1,-2,5,11,-5
8439,-1,0,-21,-56,-12,-6,-13,-55
8439,-14,-9,22,8,-17,-10,3,6
8446,-4,-2,16,1,6,4,-7,-50
8446,-5,0,-8,-5,5,3,-1,-34
8463,3,1,-11,36,16,-3,0,70
8463,1,0,5,8,-4,3,8,-19
8464,-10,1,7,-14,-13,-10,-12,-14
8464,8,14,-4,6,4,-8,0,-11
8476,14,-18,-49,-15,-6,2,-10,48
8476,5,20,68,-4,7,4,26,64
8484,-6,-40,-53,15,3,1,-15,-118
8484,1,9,30,2,-1,-5,-7,-24
8499,7,28,-9,-25,-16,-9,-13,3
8499,-5,-16,-42,-17,-4,-2,-10,-74
8506,-6,-5,58,19,-18,-11,9,14
8506,-8,-47,-100,-80,-44,-7,-15,24
8522,-20,37,36,11,10,14,-4,-72
8522,-20,-5,31,22,-7,-9,-23,-78
8523,12,-5,11,26,26,-2,12,64
8523,-1,1,-8,18,7,-1,-5,-33
8544,-12,-8,5,-11,-17,-13,-20,-57
8544,-5,-18,-25,-8,22,19,21,16
8545,27,37,4,7,8,20,34,20
8545,-25,-7,7,1,-11,-7,-15,-94
8559,-3,-20,-20,-12,-5,-13,10,41
8559,10,8,0,-1,9,4,-16,8
8566,0,4,-1,-13,-11,-3,-29,-41
8566,33,22,22,8,11,17,71,127
8582,-10,-18,4,5,0,-2,-9,0
8582,9,0,-13,-14,-6,-6,8,66
8583,-13,3,5,-8,-6,-6,-18,-19
8583,-7,-9,1,8,7,-1,-19,-49
8605,0,1,-1,5,2,5,10,3
8605,0,-3,-8,-8,-4,-3,3,-5
8606,-10,1,-5,-4,0,-1,-4,-17
8606,-7,3,10,13,6,-4,-16,-14
8618,12,-5,-5,-6,-5,6,9,19
8618,10,4,-4,-4,4,2,3,17
8633,-14,-7,-15,-12,-14,-11,-15,-30
8633,-2,-1,2,17,20,0,-8,-53
8642,4,7,13,20,-24,10,17,15
8642,-8,-25,-37,-42,-10,-13,-12,-25
8643,-4,-5,4,11,2,1,3,-7
8643,-3,3,-8,-26,-8,0,-5,14
8665,-1,0,29,20,21,-2,-8,-20
8665,10,-3,-2,16,5,3,12,38
8666,-7,12,20,-6,6,-2,3,-16
8666,5,4,15,5,-11,-2,2,27
8678,-3,-5,-10,-19,-9,-2,-6,-67
8678,-3,1,4,11,2,4,-3,19
8695,-3,0,4,1,7,-2,5,29
8695,3,-1,1,9,6,-1,-4,-11
8702,3,-1,-10,-10,2,-2,11,74
8702,-6,0,-2,-4,-8,-6,-4,-41
8703,-1,-3,-5,3,5,3,1,-5
8703,1,-1,7,-2,-3,-3,-6,-13
8725,2,-3,-7,-6,-4,1,-3,-16
8725,2,3,5,-4,-2,-5,-1,2
8726,1,-1,1,-4,-9,-5,-4,-20
8726,1,-2,1,-1,-5,1,5,-2
8748,-1,-3,-3,-5,4,0,4,-25
8748,3,3,3,1,2,2,5,-2
8750,-6,-2,-4,1,-5,1,-4,-27
8750,-2,-4,-7,-1,-1,0,-3,-2
8762,4,0,-5,1,2,0,-2,15
8762,-4,-2,-8,-3,-7,1,-1,-1
8770,2,-1,12,4,-1,-5,-3,-9
8770,9,4,0,-6,2,1,-5,35
8783,1,-2,-2,-1,4,0,17,93
8783,7,2,2,-6,-3,0,1,13
8783,-5,-3,-4,-3,2,1,-3,-1
8783,-5,-5,0,0,1,-1,-3,-6
8806,-1,-2,-1,-3,0,-2,-6,-29
8806,1,1,1,-4,2,-2,-2,-4
8806,-2,0,-6,-6,-1,-1,-3,8
8806,-8,-4,-2,-2,-2,-1,-1,0
8822,4,-2,-4,-4,-4,0,-6,-10
8822,-1,-1,4,2,3,-1,-3,-5
8829,4,0,-1,0,1,1,1,-1
8829,-9,-2,-3,-2,-7,-1,-5,-68
8844,1,0,-1,-1,1,1,-3,31
8844,-1,1,2,0,3,1,1,8
8844,-2,-2,-3,-1,-3,-1,1,-2
8844,-3,-3,-3,-2,-3,-4,-3,-4
8866,-5,-3,-4,1,-1,-5,-9,-27
8866,0,-2,0,-2,-2,-4,-5,-12
8867,-1,-1,-4,0,0,0,-1,10
8867,2,0,-2,2,0,-2,2,23
8882,-6,-3,-3,-3,-3,-2,-6,-28
8882,0,0,-3,1,-2,-1,-1,-4
8882,-3,-4,-2,-1,-1,0,0,-17
8882,0,-1,-2,1,-3,0,0,27
8904,-1,-1,0,-3,-4,-2,-4,-2
8904,-2,-2,-2,-1,-3,-3,-5,-26
8904,-2,1,-3,1,0,-1,-1,-10
8904,-3,0,-3,-1,2,-2,2,9
8934,0,1,-2,-2,-4,0,-1,-7
8934,0,2,-1,0,-2,0,0,4
8935,0,1,-1,1,-2,-3,-2,3
8935,0,-1,-2,-1,-2,-2,-2,-1
8940,-1,-2,-2,0,-3,-2,0,-1
8940,0,-1,-2,-1,-1,-1,-1,0
8942,-1,-3,-1,0,-1,0,2,7
8942,-5,-2,-1,-1,0,-2,-1,-5
8972,-4,0,0,-2,0,-3,-4,-17
8972,0,1,0,0,1,-1,2,1
8972,0,1,-2,-1,1,0,2,6
8972,-3,-2,0,0,-2,-3,1,3
8986,1,-4,-3,-1,-1,-2,0,-4
8986,3,-1,1,-1,-3,0,1,7
8987,-1,0,-1,-3,0,-4,-4,0
8987,0,-1,-1,-1,-3,-3,-1,6
9001,-2,0,-4,-1,-2,-2,-1,1
9001,-4,-2,-4,-4,-4,1,0,-6
9002,0,1,8,4,0,0,0,-3
9002,0,-2,0,0,-1,-3,1,6
9039,-1,-2,0,-2,-1,-3,-1,2
9039,5,1,-2,0,-1,-1,-3,0
9040,-4,-3,-6,-3,-2,1,-3,-2
9040,-4,-1,-3,-2,-1,1,0,4
9046,-3,-2,0,-1,-1,-5,-2,-4
9046,-5,-3,2,-4,-3,-4,-1,2
9047,0,-2,0,-2,-1,1,0,-2
9047,1,-1,1,1,0,0,-1,-1
9061,-2,-2,-3,-2,0,1,-1,0
9061,-3,-2,-1,0,-2,-3,-2,2
9061,0,0,0,-1,-1,0,-2,2
9061,-3,-1,-2,-3,-2,1,-1,-1
9084,5,0,1,-1,0,0,-1,-4
9084,-1,-1,-1,-1,1,-4,-2,-4
9085,1,-1,-2,0,1,-1,0,-1
9085,0,-1,-2,-3,0,-1,-1,-1
9106,-1,-1,0,-2,0,-1,1,-1
9106,-2,-1,-1,0,-1,0,0,-4
9106,-3,-2,-2,-3,-2,1,-1,-3
9106,2,0,-1,-1,-3,-1,0,2
9121,-2,0,-2,0,-1,-2,-1,0
9121,-1,-1,-1,-1,-1,0,-1,-1
9122,0,0,-2,-3,-1,-2,-2,2
9122,0,0,0,0,-1,-1,-1,1
9144,-3,1,1,-2,-1,2,-1,-1
9144,-1,-2,-1,2,-1,-1,0,-1
9145,-3,-2,0,-1,-1,-1,0,2
9145,-1,-2,0,0,-1,1,-1,0
9174,6,0,0,-2,-2,0,-1,0
9174,0,-1,-1,-1,-3,-3,-1,-1
9174,-1,-1,-1,-3,-1,0,0,-1
9174,-3,-1,-1,-2,1,-3,-2,-1
9181,-3,-2,-1,-2,1,0,-3,-3
9181,-1,-2,0,-1,-1,2,-2,-3
9182,4,0,-2,1,0,-2,2,4
9182,-1,0,-2,-1,-2,1,-2,-1
9212,-2,-1,-2,-1,-1,1,-1,-2
9212,-3,-1,-2,-1,0,0,-1,-1
9212,-2,-1,-2,-2,-3,1,1,-3
9212,-4,-1,0,-2,-1,0,0,-2
9225,-3,-1,-1,0,-3,-2,-1,-1
9225,-3,-1,-1,-3,-1,-2,1,-2
9226,1,-2,1,-3,-2,-1,0,-1
9226,-3,-2,1,1,-1,-1,-1,-1
9241,-5,-1,-1,0,0,-2,-1,-3
9241,7,1,-1,2,1,-1,-1,0
9241,-2,-1,-2,-2,-1,-1,-2,-2
9241,1,-1,-2,-1,-1,-1,1,-2
9264,1,-1,-1,-1,-1,0,-1,-2
9264,-2,-2,0,-1,-1,-1,-3,1
9264,-1,0,-1,0,-1,0,-2,0
9264,-1,-1,-2,-1,-1,-2,0,-2
9285,-4,-1,0,1,-1,0,-1,0
9285,-3,-3,-1,-4,-3,-2,-1,-3
9287,-2,-1,-2,-2,0,-1,-3,-2
9287,5,1,1,-2,-2,0,-1,-1
9302,2,-1,-1,-2,-1,-2,0,-3
9302,-1,-1,0,0,-1,0,0,0
9302,-2,-2,1,-1,-1,-2,-4,-4
9302,0,-2,-1,-1,-1,-1,-3,0
9323,-1,-1,-2,0,-1,-1,-2,-1
9323,0,0,-1,-1,-1,-3,0,-2
9325,-1,0,0,0,-2,1,1,1
9325,0,1,-2,-1,-1,1,2,-1
9346,-2,-1,-2,1,-2,0,2,0
9346,-4,0,-1,1,0,0,2,0
9346,0,0,0,-1,1,-2,-2,0
9346,0,-3,-1,1,1,-4,-3,0
9361,-1,-1,-1,-1,0,-2,-2,-1
9361,-2,-3,-1,-2,1,0,-3,-3
9369,1,-2,0,0,-1,-1,-1,-2
9369,-1,-2,-1,-2,0,1,-1,-1
9392,0,-1,-1,-1,-1,0,0,0
9392,0,-1,-2,-1,-1,0,-1,0
9392,0,1,-1,0,-1,-2,0,-1
9392,-4,-1,-1,-1,0,0,-1,-2
9407,0,0,-3,-1,-2,-1,-2,-1
9407,-3,1,-2,-1,0,2,-1,-2
9408,-2,-1,-2,-2,-3,-3,1,-1
9408,1,1,0,1,-1,-2,0,0
9421,-1,-2,-1,0,-1,-1,-2,-2
9421,0,0,0,-1,-2,0,-2,-1
9421,0,-1,-2,1,0,1,-1,0
9421,-2,-2,0,-2,-2,-2,0,-3
9444,-1,-2,-1,-3,-1,0,2,4
9444,0,1,0,-1,-1,-2,-2,1
9445,-2,-1,0,-1,-1,-2,-1,-3
9445,-1,-2,-2,-1,-2,-2,-1,0
9466,0,0,0,-1,0,-1,-2,-3
9466,0,-1,0,-2,-1,-3,-3,-2
9466,-1,0,-1,-3,-3,0,-1,0
9466,-1,1,-2,-1,-3,-1,-2,-1
9491,-1,0,-1,0,0,-3,0,-1
9491,-1,0,0,0,0,-2,0,0
9492,2,-1,0,0,0,0,-1,-2
9492,-3,-3,-1,-1,0,-1,-2,0
9503,-1,-2,-2,-2,-1,0,0,-3
9503,-2,-2,-1,-1,-3,-1,1,-1
9504,-2,0,-2,1,-1,-2,0,0
9504,-1,-1,-1,1,-1,1,-1,0
9525,-1,-1,0,0,-1,-1,-3,-1
9525,0,-2,-3,0,-1,-2,-1,1
9527,-2,-1,-1,-2,-2,-1,-2,-1
9527,2,0,0,-1,-1,-1,1,-1
9541,-1,-1,0,-1,2,-2,-1,-1
9541,2,1,-1,-1,0,-3,-1,-3
9542,-1,0,-1,0,0,-1,-2,-1
9542,0,-1,-1,1,-1,0,-4,1
9563,1,-2,0,-1,-1,0,-2,-2
9563,-1,-3,0,0,-2,-2,-1,-2
9565,-1,-2,0,-1,-1,1,-3,-3
9565,-1,-2,0,-1,0,0,0,-2
9586,-1,0,-1,-2,-1,-2,0,-1
9586,2,1,-2,-2,0,-2,0,-1
9588,1,-2,-2,-2,0,-1,-2,0
9588,1,0,-2,-1,-1,-2,-1,-1
9603,-1,-2,-1,-2,-3,0,-1,-2
9603,-1,-1,-2,-1,-2,-1,1,-1
9603,3,0,-1,-1,-2,-1,-1,1
9603,0,0,-1,-2,-1,-1,-1,-1
9624,-1,0,0,-1,-2,-2,-2,0
9624,-2,-3,1,-2,-1,0,-2,-2
9624,2,-1,-1,-2,0,-1,-2,1
9624,2,-2,-2,-2,-1,-2,-1,-1
9646,0,-1,0,-1,-2,-1,-1,-1
9646,-2,-1,-1,0,0,-1,-2,-1
9646,-3,-1,-2,0,0,0,1,-1
9646,0,-2,0,-1,-1,-1,-1,-1
9669,0,-1,-2,0,0,0,1,0
9669,1,0,1,0,-2,1,-1,0
9670,-1,-1,0,-2,-1,-3,1,-2
9670,-2,0,0,0,1,0,0,-2
9684,-1,0,-1,0,-1,-2,0,-2
9684,-2,-2,-2,0,-3,1,0,-1
9685,-1,-1,-1,-1,-3,0,1,0
9685,-2,0,-1,-2,-2,0,0,1
9714,-2,-1,-2,-2,-2,1,0,2
9714,1,1,-2,-1,0,0,0,-1
9715,-3,-1,-2,0,0,-2,0,-3
9715,-3,-2,-2,-2,-1,0,-1,-2
9722,-2,-4,-1,0,-2,-2,-3,-3
9722,-3,-2,-2,0,-1,-1,-4,-1
9722,-2,-2,-2,0,-1,2,-3,0
9722,-2,0,-1,0,-1,0,-2,-2
9744,-1,-1,0,-1,-2,-1,1,-1
9744,-3,-1,-3,-1,-1,-1,0,0
9744,-1,-1,0,0,1,1,-1,-2
9744,-2,-2,-2,0,-1,0,-1,-1
9766,-2,-2,-3,1,-1,0,-2,-1
9766,0,-1,0,-2,-1,-3,1,1
9767,1,1,-1,-1,0,-3,1,1
9767,-2,0,-1,-1,-1,-2,1,-3
9781,-1,-1,-1,-2,0,0,-1,1
9781,-1,-1,-1,-1,-2,-2,-2,0
9782,0,-1,0,0,-2,-1,-3,-3
9782,-1,0,-1,-1,0,-2,-4,-4
9803,1,0,-1,-1,-1,0,-1,3
9803,-4,-2,-1,-1,-1,-2,0,-2
9804,-2,1,0,-1,0,-1,-3,-3
9804,-1,0,0,-1,-1,-3,-1,0
9826,-2,1,-1,-2,1,-2,-1,-3
9826,0,0,-2,-2,-1,-1,1,0
9827,-1,-1,-2,-1,-2,0,-1,1
9827,2,0,-2,-2,-3,-1,-3,0
9842,3,1,-1,-1,1,1,0,-5
9842,2,-1,-2,1,-2,-1,-1,-2
9842,1,-2,-1,1,-2,0,1,0
9842,-1,-2,-2,-2,0,-1,0,0
9863,-4,-2,-1,-1,0,-1,0,0
9863,3,2,-1,0,0,-1,1,-1
9865,-2,-1,-1,0,0,-1,-2,-2
9865,-2,-1,-1,0,-3,-1,0,3
9886,3,-1,-2,1,-2,-1,-5,1
9886,-3,-1,1,-1,-1,1,0,-5
9886,-1,0,-1,0,-2,-2,0,-2
9886,1,2,1,0,-1,0,0,1
9901,1,1,0,-2,1,-1,1,1
9901,0,-1,0,0,0,-1,1,1
9902,0,-3,-1,-1,0,0,2,-3
9902,0,-4,-2,-1,-2,-1,-4,-3
9924,-2,-1,-2,-1,-1,-5,-7,-10
9924,-2,-1,-2,-1,0,-1,-3,6
9924,-3,0,-1,-5,-2,0,1,0
9924,2,-1,-2,0,-1,0,1,1
9946,-2,-3,-1,-1,0,-2,1,-2
9946,1,0,-1,0,-3,0,-3,-5
9947,-2,-1,-1,-2,0,-1,0,0
9947,-3,-1,-1,0,-2,0,-1,-2
9961,0,-1,0,0,-1,0,0,4
9961,-5,-2,-1,1,1,-1,-1,-10
9962,-2,0,-1,1,-1,-3,-5,-3
9962,1,0,0,-2,1,-2,0,7
9983,-2,0,-1,-3,-1,-3,1,0
9983,-1,-2,-1,-2,-1,-1,4,9
9985,1,-2,-1,0,1,0,-1,2
9985,-3,-3,-1,-2,0,-2,-5,-23
6,4,1,-2,0,-1,0,-2,10
6,1,-2,-2,0,-2,2,6,-6
6,-2,-1,-1,0,-1,-1,1,-2
6,-3,0,-1,0,0,-1,0,6
22,-2,-2,0,0,-1,0,-3,0
22,2,-1,-1,0,1,-1,-3,-2
29,0,-1,-3,0,-2,-3,-4,4
29,-3,-1,-1,0,-1,0,-3,-4
44,0,0,0,-2,-4,1,3,-4
44,0,0,0,-1,-1,-1,-2,2
44,1,0,-2,-3,0,-1,1,-3
44,0,-1,-3,-1,-2,-2,-1,1
66,-3,-1,-1,-1,-5,-5,-5,-4
66,0,0,-2,1,1,-1,2,0
67,1,-2,0,-1,-2,0,1,1
67,2,0,-1,0,-1,-1,2,-8
81,-1,-1,-1,0,1,1,7,12
81,-4,-1,-1,-1,-1,-1,-5,1
88,-4,1,-1,0,0,-3,-5,-1
88,0,0,0,0,0,1,3,6
104,-4,-1,0,-1,-3,-1,-5,-10
104,-1,0,-2,-1,-3,-1,0,-1
104,-1,-3,0,0,-2,-2,-4,-1
104,-5,-3,-1,-3,-4,-3,-4,-17
127,3,0,-1,-1,2,1,7,17
127,0,-2,-1,-3,-2,0,-4,-1
127,-1,-1,-1,-2,1,1,2,-4
127,-3,-1,-2,-2,1,-2,-4,0
149,-1,-3,-1,-1,-1,-1,-2,-5
149,0,-1,0,0,-1,0,-3,0
150,1,-1,0,1,0,2,4,0
150,0,-1,0,1,0,2,1,0
164,-1,-1,-1,-1,-1,-2,-1,-8
164,0,0,1,-1,0,-1,0,0
165,-3,-1,-1,0,-3,0,0,-1
165,-2,0,-1,0,-1,-1,4,4
187,-1,-1,-1,1,0,1,-5,-5
187,0,-2,-2,-2,0,-1,-1,-4
188,-4,-2,-2,-2,-2,-2,-6,-7
188,1,-1,0,-1,0,2,1,8
201,-2,-1,0,-2,-1,-1,-1,3
201,-1,-1,0,-2,-1,-2,-1,-2
208,-2,-1,-1,-1,-1,-1,-3,-2
208,1,0,-2,0,0,-3,2,-5
223,-1,1,-2,-2,-2,-1,-2,-6
223,-3,0,-3,-2,0,-3,-1,0
224,0,0,2,-2,-2,-1,-1,-5
224,-2,0,-2,-1,0,-1,-4,0
246,-1,-1,1,1,0,-1,-2,-11
246,4,-1,0,0,0,-2,1,4
247,1,-1,-1,-2,1,-1,0,2
247,0,-1,0,-1,-2,1,-3,2
261,-4,-2,-3,-2,-3,-2,2,-12
261,-3,-2,-2,-1,-2,2,3,0
269,0,-1,0,0,0,0,1,-3
269,0,-1,-3,-2,-3,-1,2,10
283,0,0,0,-1,0,-3,0,-2
283,-2,0,-2,0,-2,-2,-3,9
284,1,-1,-1,-1,-1,1,3,4
284,2,0,1,0,1,1,2,-16
306,1,0,0,0,0,0,-3,3
306,-3,1,-1,0,-1,0,-3,-4
307,-2,-1,-1,-1,-1,-3,-3,-4
307,-2,-1,-1,-2,-1,-2,-4,-10
322,0,-1,0,0,-1,1,-2,8
322,-2,-1,0,-2,0,-1,0,-6
329,-5,-1,1,-1,-1,1,1,1
329,-5,-3,0,-2,-2,-1,-2,-4
343,3,1,-1,0,1,2,2,-1
343,1,-1,0,1,-2,-1,-2,-3
344,1,-2,-1,-1,-3,-1,-2,0
344,-2,-1,-2,-2,0,-2,0,7
367,-1,-2,-1,-1,-3,1,2,0
367,0,-1,-2,-2,-3,-3,-11,-5
