0,1,0,-1,-1,-1,-2,1,0
0,1,0,-2,-2,-1,-1,0,-2
0,1,0,-1,0,-2,0,0,0
0,-1,-1,-1,-2,-2,0,-1,-2
3,0,-2,-2,0,-2,-1,-4,0
3,-1,-1,0,-1,-3,-4,1,0
4,-1,-1,-1,0,-1,-3,0,-2
4,-1,-1,1,-2,0,-2,0,0
4,-2,0,-2,0,0,-1,0,-2
4,-2,-2,-2,-3,-1,-1,-2,-1
16,-1,-2,-1,-2,-1,-1,-1,-3
16,-2,-2,-1,0,-2,-2,0,0
18,0,-1,0,-1,0,-2,-2,-4
18,-1,-1,-2,0,0,0,-3,0
31,-3,-1,-1,-1,-1,-1,-1,0
31,0,-1,-3,-1,-1,-1,-2,-1
39,-1,-2,-1,-3,0,0,-1,-1
39,0,-1,-2,1,1,2,0,0
62,0,-1,0,1,0,1,-2,-2
62,0,-2,-2,-2,1,0,-1,-2
63,4,1,0,-1,0,0,-1,-1
63,-3,-1,0,0,0,-1,0,-1
77,-1,-2,0,-2,0,-2,-2,-1
77,-1,0,0,-1,-1,0,-1,-1
78,-1,-1,-1,-1,-1,0,0,0
78,-1,-1,-1,-3,-3,0,-2,-3
124,1,1,0,1,-2,-1,-2,-1
124,-1,0,0,-1,-1,-1,-1,-3
125,-2,-2,-1,-1,-1,-1,-2,-1
125,-2,0,-1,0,-2,0,-1,-2
129,-3,-2,-2,-1,1,-2,-1,-1
129,-1,0,-2,-1,-1,-1,1,0
129,0,-1,-1,-2,-1,-2,-1,0
129,-4,-3,-1,-1,-1,-1,0,-1
135,-2,-1,-1,0,-2,-1,0,-2
135,-2,-1,-1,0,-1,-1,-1,-2
143,0,-2,-1,-2,-1,-1,-1,-1
143,-1,-1,-1,0,0,-1,-3,0
151,-1,0,-2,-3,0,-1,-1,-1
151,-2,-1,-1,-2,0,0,-2,-2
165,-1,0,0,-1,-2,1,-1,0
165,-4,0,-1,-2,0,0,-1,-1
174,2,0,-1,-2,-1,-1,-1,1
174,1,0,-2,-2,0,0,0,0
196,0,0,-1,0,0,1,-1,-2
196,3,0,-1,0,-1,-3,-1,-1
198,-2,-2,-3,0,-1,-1,-1,-3
198,-2,-2,-2,0,-1,-1,-2,0
210,0,0,-1,-2,-1,-1,-2,-1
210,-2,-1,-1,0,-2,0,1,0
219,-1,-3,-1,-2,-2,1,-2,0
219,1,-1,-1,-1,0,-1,0,0
234,-2,-1,-1,1,0,-1,-2,-2
234,2,0,-2,-1,0,1,-2,0
240,0,0,-1,-1,-1,0,-2,0
240,2,-1,-1,-1,-1,-1,0,1
257,1,0,-1,-1,-1,0,2,-1
257,1,-2,-2,-3,-1,0,0,-3
258,-1,-1,0,-1,-1,-2,-3,-1
258,-1,0,1,-2,-2,-2,-4,-1
270,-3,-2,-2,0,-1,-1,-2,-2
270,-1,-1,0,-1,-1,-4,0,-3
280,-2,-1,1,0,0,1,1,0
280,-2,-2,-2,-1,-1,-2,0,-1
295,1,-1,-1,-2,0,1,0,2
295,-1,-1,0,-1,-2,-1,-1,0
296,-3,-1,-1,-2,-1,-2,0,-3
296,0,-1,-14,-3,-1,-1,-1,-1
317,-2,-1,0,2,-3,-2,-1,0
317,-2,-3,-1,0,-2,1,-4,-1
318,-2,-3,0,-1,-1,-1,-1,-1
318,-1,-2,-3,-2,-2,0,-1,-1
330,-1,0,-2,0,-1,-1,0,-1
330,-3,0,-1,-1,-1,-2,-1,-3
340,-2,0,-3,1,0,-1,-2,-1
340,-2,0,4,1,-1,-1,2,-2
354,-2,-1,-3,-4,0,0,0,1
354,0,0,0,-2,-2,1,0,-1
355,-1,0,0,-1,-2,0,-1,-4
355,-1,-1,2,0,0,-1,-1,-1
377,-1,-1,2,-2,0,-3,-1,-1
377,-1,-3,-4,-1,-1,-2,-2,-1
379,1,0,0,0,-1,-1,-1,1
379,-2,1,3,-1,-2,0,-1,0
399,-1,-1,-2,-2,-2,-1,-2,-1
399,0,0,-1,-1,-1,1,0,-1
400,3,0,-1,-1,-1,-1,-1,-1
400,2,-1,0,1,1,-1,-2,-2
415,-2,-1,-1,0,-2,-1,0,-2
415,0,-1,-2,0,-1,-1,-1,0
416,-3,-1,-1,-1,-1,-1,-1,0
416,3,0,1,-3,-3,0,0,-2
437,1,-1,-1,0,2,-1,-3,0
437,3,0,2,-1,-1,1,0,0
438,-3,-1,-2,-1,-2,-1,-1,-1
438,-2,-1,0,-2,-1,-3,-1,0
450,0,1,-1,-1,0,0,0,-1
450,0,-1,0,-2,-1,-2,-2,0
459,-1,-3,0,-2,-1,0,-1,0
459,-7,-2,-1,0,-2,-2,-3,-3
474,0,1,-1,0,-2,-2,-1,-3
474,-2,-1,-2,-2,-3,-3,-2,-1
481,-2,-2,-1,-2,0,-1,1,-2
481,-3,-4,-2,-3,-2,-1,-1,0
497,-2,0,0,-1,0,0,1,-2
497,-5,-2,-2,-1,0,0,-2,-3
498,2,0,0,-1,-1,-1,1,2
498,-1,0,-1,2,-1,-1,-2,0
510,-2,-2,-2,-1,-2,-1,0,-2
510,-3,-1,-2,-1,-1,1,0,0
525,-3,-2,-3,0,-1,1,-1,-2
525,-1,1,-1,-1,0,2,1,1
534,0,-2,0,0,-2,0,-2,-2
534,-2,0,-1,0,-2,-3,-1,-4
540,1,-1,-4,-2,-1,-1,-3,2
540,0,2,15,1,0,-1,-1,0
557,0,-2,1,2,0,-1,-1,0
557,-3,-2,-1,-2,0,-1,-1,-2
558,-1,1,-2,-1,-1,-2,0,-2
558,2,-2,-4,-2,-1,-1,0,1
571,-3,-1,-4,-2,-1,-2,-2,-1
571,8,4,18,3,2,1,-1,2
579,-1,-2,1,-1,1,0,-1,-2
579,-3,-3,-5,-1,-2,-1,-1,-2
594,-1,-1,1,-1,-1,-1,-2,7
594,-1,-2,-8,-3,-2,-1,-2,-12
600,-1,-1,-2,0,-2,-1,-3,-1
600,-1,-1,0,0,0,-1,0,-5
617,-2,-3,-4,-1,-2,-2,-2,-1
617,-3,-3,-4,-1,-1,-3,0,1
618,0,-1,0,-1,-1,-1,0,-2
618,-6,-5,-4,-3,-1,-2,-1,0
630,2,1,-2,-2,1,-2,-1,0
630,-3,0,-3,-1,0,-1,-4,0
639,0,-1,1,0,-1,0,-2,-1
639,2,-1,-2,0,0,0,-2,7
654,-4,-1,0,-3,-1,-1,1,-14
654,3,-4,-6,1,-1,1,-1,-10
660,2,1,4,-1,0,-2,1,25
660,0,-1,0,-1,-1,-1,1,2
677,0,-1,1,-1,0,-1,-4,-3
677,-1,-1,-12,-4,-1,-2,-1,0
678,-3,-3,2,-2,-1,0,-3,-10
678,-1,-2,0,-1,-1,-1,-1,-5
699,1,0,2,1,-3,-1,0,2
699,-2,-2,-3,-1,-1,-1,-2,3
701,1,0,-1,-1,-1,-1,0,-1
701,0,-1,-1,-2,-1,-2,-1,-1
714,-1,-3,-3,-1,0,0,-2,-3
714,1,0,2,1,-2,-1,-2,1
720,-1,-1,-3,0,0,-1,1,-6
720,-1,-1,-1,-1,-1,0,-1,-3
737,-1,-2,-3,0,0,-1,-3,0
737,0,0,2,-1,-1,0,0,4
739,0,-2,-16,-2,-2,-1,-3,-17
739,-1,0,1,1,1,-1,0,5
759,4,0,-2,-3,-2,-1,-2,2
759,-6,-3,-1,-1,0,0,-2,-10
761,-1,-1,-3,-1,-3,-1,-1,-16
761,1,1,-5,0,1,0,2,15
773,-4,-1,-1,-1,-2,0,-1,-10
773,1,0,-6,-1,-1,-2,-1,6
782,-2,2,14,1,-1,-1,-3,-9
782,-1,-2,3,-2,-3,-2,-3,-8
796,0,4,8,0,0,-1,3,14
796,-2,-9,2,0,-1,-1,-2,-11
798,3,-2,-2,-1,-1,-1,0,7
798,-1,-1,0,0,0,0,0,-6
820,-1,0,-5,-2,0,-1,0,3
820,-6,-1,1,0,1,-2,-2,1
821,1,-1,0,-1,0,0,0,7
821,2,0,-5,0,-1,-1,0,-1
833,1,-2,-3,-2,-2,0,0,-10
833,-1,3,2,-2,-2,-2,-1,-13
849,-3,-2,0,-1,-1,-1,0,-4
849,-1,-2,-4,-2,0,-1,-4,2
857,-5,-2,0,-1,0,0,-5,-6
857,0,1,3,-1,-2,-2,0,7
858,-4,-2,-2,-2,0,-3,-5,-2
858,1,-2,0,-1,-1,0,2,-9
880,-3,-3,-3,-1,-2,-1,-2,2
880,-1,2,-1,1,-3,-1,0,1
881,-1,0,-14,-2,-2,0,0,-4
881,-5,-2,0,-2,-3,-1,-3,-2
893,3,0,-1,-1,-1,-1,-2,3
893,12,4,0,-1,-1,1,4,6
910,-1,1,-1,0,0,1,0,6
910,-1,-1,-4,-2,-1,-1,-2,4
916,-6,-4,1,2,-1,-2,0,0
916,-2,-3,-13,-4,-2,-2,-4,7
918,-1,-3,6,-1,-1,-2,-4,-33
918,-1,-2,-4,-1,0,0,-2,-5
939,-3,-1,0,-2,-1,-3,-1,-5
939,-4,-4,-5,-1,0,-2,-5,-20
940,0,-4,6,1,0,0,4,55
940,0,3,1,1,-1,1,5,-16
952,0,0,-8,-1,-2,-2,-1,4
952,0,1,5,0,-1,0,1,-1
961,2,-1,1,0,-1,-2,-3,-10
961,0,-1,-1,0,-3,-2,-4,4
977,4,2,0,0,0,1,3,18
977,-2,1,0,-2,-1,-1,-2,-12
978,-5,0,-3,-2,-1,-2,-3,-3
978,0,1,-8,3,-1,-2,-3,12
999,0,0,12,-2,0,-2,0,-27
999,-1,-1,2,0,-1,-1,1,23
1001,-2,-1,-3,-2,-2,-1,1,9
1001,-1,-1,-2,-4,-1,-1,-2,14
1013,-2,-1,-6,-1,-2,-2,-2,-22
1013,-3,-2,1,-1,-2,-1,0,-2
1022,-2,-3,-4,0,-1,-2,-1,-7
1022,-3,-3,-2,-3,-3,-2,-6,-1
1037,0,1,0,1,0,1,-1,4
1037,0,1,-4,-3,0,1,6,26
1039,0,-4,-4,1,-1,-2,4,-1
1039,-3,1,4,-1,0,-2,-6,-18
1059,1,-4,-4,-2,-1,-1,2,13
1059,-4,-1,2,1,0,-2,-11,-17
1061,-1,3,3,-1,0,1,0,-34
1061,1,-1,1,0,-1,2,4,-4
1073,5,-2,-22,-5,0,0,5,22
1073,-5,-4,6,-2,0,-1,-2,-17
1082,8,1,1,-1,-1,-2,-2,33
1082,0,-2,4,-2,-1,-2,-2,-5
1104,-3,2,1,0,0,-1,-5,-21
1104,2,1,-3,-1,-3,-3,-4,-4
1105,-5,-1,3,0,1,-1,-3,-22
1105,-3,-2,-2,-2,-2,-3,4,26
1127,0,0,4,0,0,-1,-1,-7
1127,1,5,2,3,1,1,-5,-11
1129,-1,-3,-2,0,-1,1,1,-1
1129,5,-3,-6,0,0,0,-3,-18
1142,-1,-3,-5,-4,-4,-4,1,-2
1142,-2,-2,-1,-1,1,2,-6,-14
1144,-2,-2,-3,-5,-1,2,2,3
1144,2,-5,2,0,0,-2,-1,14
1164,-5,-4,2,-1,-1,0,-8,-29
1164,0,-1,-7,-2,-1,-4,-1,-17
1166,0,-2,-3,-6,-4,-3,4,69
1166,3,2,-10,-1,2,-1,-8,-29
1180,0,-1,19,3,-1,-3,0,24
1180,-1,-3,9,0,-2,0,1,18
1182,-7,-3,0,2,-1,-3,-10,-26
1182,-2,0,-3,-3,0,-2,0,4
1216,-2,-1,-2,-1,-2,0,5,11
1216,-1,3,-4,-2,-2,-2,4,32
1218,0,0,17,2,0,1,-4,-60
1218,-2,-1,3,3,0,0,-3,-9
1224,-2,-2,-2,3,2,-1,3,13
1224,7,5,0,-5,-5,0,0,-30
1227,2,-3,-15,-14,-6,-3,3,50
1227,5,0,1,2,3,1,7,46
1238,-5,-2,-15,-6,-4,-5,-14,-80
1238,6,2,-3,5,5,1,15,83
1245,-2,-11,8,3,-1,-3,-3,-28
1245,-1,2,6,-3,0,2,-1,-36
1262,2,-2,-12,1,0,-1,4,36
1262,-2,-3,3,7,-1,0,-1,-3
1263,3,0,-6,-7,-1,0,-3,-7
1263,0,-2,2,1,-3,-4,1,12
1284,-7,-7,-8,-1,2,0,-10,-37
1284,9,5,-2,-3,-1,1,0,-12
1285,-3,3,3,2,0,-1,-1,-7
1285,-7,-2,-2,-3,-3,0,2,9
1298,-8,0,2,-2,-2,-4,-1,-13
1298,-7,-5,0,-3,0,-2,-5,0
1306,7,5,-2,2,-3,-3,3,-6
1306,-3,-1,-5,4,0,1,8,40
1322,0,2,3,-6,-3,-1,-9,-14
1322,1,-2,10,-2,-1,-1,1,-14
1323,-7,1,-7,-10,-6,1,-4,-46
1323,6,1,0,9,4,1,-3,-6
1344,8,2,5,-3,5,4,10,44
1344,-6,-3,-7,17,-4,-4,-3,-23
1346,-5,1,-6,-24,-5,0,1,23
1346,5,2,12,3,0,-2,-6,-30
1358,1,0,-3,-25,1,-1,-7,-19
1358,4,-1,25,6,-16,-2,2,29
1367,0,-1,-18,4,9,-1,8,28
1367,-15,-3,5,10,-4,-1,-7,-52
1382,-2,-2,-6,9,2,-2,4,46
1382,-3,-3,-36,-39,10,0,-1,-1
1383,4,4,22,46,12,0,-2,-5
1383,-18,-7,74,-37,-64,-12,-1,40
1404,3,-8,-61,-63,-6,-5,-2,-21
1404,-8,-5,-2,1,-4,-3,-2,-41
1406,4,0,14,8,17,-2,-11,19
1406,4,-5,-68,-21,13,-3,10,62
1418,-6,4,46,44,5,23,-9,-70
1418,-4,-1,10,28,-4,-23,-6,-25
1427,-8,-4,-9,-20,-22,-10,-4,-22
1427,15,11,0,-10,9,-2,2,-21
1442,-17,-14,-31,-23,-2,4,-2,-7
1442,17,9,17,25,29,37,20,33
1444,-3,14,17,2,-12,-35,-26,-46
1444,-6,-9,11,-13,20,-4,-1,17
1463,10,27,2,26,-11,4,11,36
1463,-26,-18,-13,-80,-41,-3,-30,-84
1471,4,-19,36,70,25,7,8,38
1471,-28,-3,-37,-42,-13,-6,-16,-109
1478,38,13,41,88,66,5,17,78
1478,22,17,7,2,-39,13,19,39
1487,-15,-6,-96,-101,-31,-3,2,1
1487,-21,-20,-36,-7,43,-11,-6,-25
1501,11,-6,29,42,15,36,-4,-28
1501,-2,-1,-12,26,2,16,29,-6
1503,-30,-42,-74,-70,-55,-51,-25,-24
1503,5,5,17,-1,-33,-45,-25,0
1524,-25,-8,23,3,-4,-11,-35,-18
1524,32,14,21,32,47,35,-8,48
1525,11,11,36,86,38,52,81,15
1525,-19,-1,-19,-32,-33,-2,18,3
1546,-17,-28,4,4,-28,-71,-42,-27
1546,-3,-4,-27,-83,-15,-7,9,64
1547,4,16,-44,19,18,24,-3,7
1547,8,-2,-31,-13,-3,29,18,8
1561,-27,-38,-81,-48,-28,-11,-11,-68
1561,-1,10,11,-12,2,-21,-5,49
1569,19,24,-7,1,17,9,0,10
1569,26,3,89,94,62,62,3,-25
1584,-7,-1,-44,-66,-29,-21,11,60
1584,-36,-25,9,7,-13,-18,-13,-48
1586,-2,-64,24,0,-12,-9,-2,-12
1586,38,40,53,67,11,12,33,44
1607,-7,-27,93,105,40,9,5,-3
1607,-40,-56,-72,-58,-38,-48,-33,-7
1608,64,77,-2,-91,-32,23,-14,75
1608,-12,-42,-5,41,-4,-16,-23,-66
1622,-66,-100,-103,-121,-17,37,56,10
1622,-23,0,127,121,22,-64,-21,1
1624,62,75,63,68,1,-19,-31,-22
1624,35,2,-77,-53,-5,24,0,-12
1644,-2,41,-6,30,45,36,32,43
1644,-3,-81,-111,-61,-14,19,-4,-31
1646,-28,-85,-21,-1,8,-2,25,5
1646,-16,-14,11,-16,-22,-22,-15,25
1658,19,39,15,-8,2,2,-2,-43
1658,-26,9,-15,-37,3,11,-16,-93
1667,-12,5,56,52,7,0,0,31
1667,29,1,-70,-78,-18,-14,23,116
1682,-8,-17,15,49,-5,-17,-11,43
1682,55,119,71,37,30,16,21,4
1683,-22,-22,-48,-53,-31,-2,-15,-35
1683,-21,-14,31,79,25,6,-21,-45
1704,12,43,11,-103,-7,-11,-8,-4
1704,19,-35,-30,-3,-14,2,-2,-9
1705,-11,-6,57,12,18,3,0,-10
1705,-24,20,-3,38,-4,-5,-16,-7
1718,6,-41,16,12,-13,-20,-29,-62
1718,-20,50,-6,59,30,20,41,-30
1726,-1,-9,45,-22,-14,0,18,58
1726,49,70,72,27,12,-1,8,-1
1741,32,70,72,66,18,4,-11,-29
1741,19,-25,-118,-74,-4,2,-18,31
1742,-38,-14,-15,-21,-27,-19,-9,4
1742,-4,-12,-2,-11,14,-3,5,-3
1772,-7,-56,-29,4,-10,7,2,-19
1772,-11,-16,18,26,21,13,20,76
1773,8,7,-25,13,22,6,-16,-16
1773,-25,-17,-15,-23,-20,-6,-3,9
1777,-4,27,-13,-12,-28,-15,-3,-36
1777,-10,-16,6,2,-11,-16,-31,-96
1787,10,-2,2,18,27,20,38,59
1787,-54,-29,-13,-13,-10,-6,-27,-91
1802,62,26,0,-11,-14,1,22,101
1802,-3,13,27,-3,-11,-5,1,-70
1803,-17,7,4,2,0,-11,-11,-11
1803,-3,-16,-5,0,23,9,11,1
1824,-10,-6,-18,-63,-23,-9,-14,-4
1824,14,11,19,-1,2,-7,-30,37
1825,-16,-15,-20,6,-4,3,13,-45
1825,-4,-10,-17,-18,-11,-3,0,-5
1837,-2,8,15,23,-1,-2,7,-39
1837,1,6,15,2,-12,-9,-11,-14
1846,-11,-15,-23,1,14,0,-14,-20
1846,-6,-8,4,23,-2,-2,-5,-43
1861,4,9,0,0,-14,-1,9,-10
1861,-14,-1,9,1,-5,0,-3,-29
1868,-25,1,-6,-16,-20,-13,-41,-127
1868,49,31,8,-2,12,20,53,61
1885,-13,-26,-15,30,35,15,-1,-47
1885,-27,-25,-12,3,3,-3,-29,-93
1885,-1,3,0,-1,0,-3,0,1
1885,-21,-5,-9,-17,-33,-14,-28,-97
1898,52,31,20,-13,-3,5,57,127
1898,-4,3,16,23,16,17,15,-44
1915,-13,-27,-20,7,10,4,-11,-69
1915,-1,6,-18,-4,-6,-12,-9,14
1930,-20,-11,-7,-14,-24,-18,-31,15
1930,0,-7,-10,-18,-12,-6,2,38
1931,7,10,14,3,11,-7,-5,-37
1931,1,-7,-8,1,7,2,0,16
1944,-10,-5,-7,14,8,7,-2,24
1944,7,2,0,-8,-16,-7,18,71
1946,8,13,4,10,22,14,15,19
1946,-5,-17,-5,4,6,-10,8,107
1957,-16,4,2,2,2,7,-24,-82
1957,0,1,4,-12,-20,-6,-2,9
1967,15,9,-5,5,5,4,8,52
1967,-13,-8,33,4,5,0,7,29
1981,11,9,10,2,-5,2,-9,-10
1981,-7,-13,-38,-4,2,1,-11,-39
1988,-5,-9,2,-5,-9,-11,3,-17
1988,11,15,17,-8,-3,4,10,-53
2005,-6,-1,2,-9,-3,-4,17,-42
2005,10,-6,0,3,10,1,-4,-45
2006,-9,1,-13,-6,-3,-7,-33,-27
2006,-9,-30,2,-1,0,11,24,-9
2027,21,39,15,21,0,1,0,-18
2027,10,15,4,5,6,-6,16,47
2028,2,-15,-32,-33,-16,-6,7,77
2028,-41,-36,-27,0,-2,-3,-47,-74
2040,0,-39,17,14,0,-5,10,108
2040,29,92,71,43,15,12,15,96
2065,5,6,-5,1,-7,0,10,-22
2065,10,12,0,-6,-7,-4,2,-24
2066,-27,-37,-34,-17,2,-6,-29,-97
2066,0,-19,-34,-14,-1,-3,4,-40
2067,-3,10,54,31,2,1,3,-3
2067,8,-3,-23,4,-2,-1,-3,-19
2087,-15,-1,11,-5,-2,2,1,-20
2087,-3,-33,-6,-1,-4,-4,-6,-12
2088,-7,36,-13,-5,-1,-1,-2,-36
2088,-13,-28,-22,-26,-4,-2,-6,-3
2100,0,2,-2,1,-4,-5,0,14
2100,-2,10,2,11,6,5,3,9
2108,8,18,15,1,0,1,-1,1
2108,11,14,-13,-1,0,-1,-5,43
2124,-11,-15,-15,-14,-8,-6,-2,10
2124,-9,-24,-11,-11,-1,1,2,-2
2126,-1,-24,2,-1,-3,-1,-2,11
2126,3,12,-3,-2,-5,-5,-5,4
2147,13,1,-2,-4,0,-2,-6,-23
2147,-5,-14,3,4,4,1,4,-1
2148,4,-1,-4,0,1,2,9,56
2148,-2,1,6,1,0,2,-3,-11
2161,-3,-4,-6,-1,1,4,1,-3
2161,1,-3,6,0,-3,-6,3,2
2168,-3,-11,-4,-4,-3,-10,-11,-15
2168,2,2,6,3,1,-3,-5,-7
2184,2,8,-4,-4,-7,-5,-3,18
2184,0,-1,-3,1,2,6,4,-5
2186,-4,-8,-5,-2,-2,4,-1,-17
2186,1,1,-13,3,-4,-2,-3,-30
2206,-6,6,-2,-5,-3,-2,-10,-3
2206,1,-6,-5,-6,-7,-2,11,89
2215,6,-6,2,-5,-3,-2,4,-30
2215,4,10,7,-3,-3,1,1,18
2221,-3,0,-6,5,5,1,-2,-25
2221,-9,-10,-3,-1,0,0,-6,-36
2229,0,-1,-4,-1,-2,0,-2,9
2229,-16,0,1,-4,-6,-8,-27,-111
2244,10,2,-5,-3,-3,-3,22,57
2244,3,-2,2,0,3,1,2,-53
2245,3,1,0,0,0,4,-2,-74
2245,4,2,4,-1,-1,-1,4,37
2267,-7,-3,-9,-2,0,-4,-11,-25
2267,-8,-4,0,0,-1,-4,-7,-4
2268,1,-2,-4,-3,-3,-2,2,27
2268,3,1,5,0,3,1,-3,14
2289,-2,3,0,-1,-2,-1,1,-13
2289,4,2,1,-3,-6,-2,2,27
2290,-7,-4,-3,1,1,1,-4,-14
2290,4,-1,0,2,3,0,1,17
2303,0,4,1,1,1,0,-1,-1
2303,-1,-3,-1,0,-2,0,-3,-12
2304,-1,-1,2,0,-5,0,2,3
2304,1,0,0,1,-2,1,3,8
2326,3,3,1,-1,0,1,-1,-4
2326,-3,-1,0,-2,-3,-3,-3,-13
2327,1,-2,-4,-2,-2,-4,-3,6
2327,0,2,0,0,-2,1,4,6
2350,-8,-1,0,-1,-1,1,-3,-17
2350,1,-1,0,-1,2,2,-1,2
2350,-5,-4,0,0,0,1,1,1
2350,3,5,1,0,-1,-1,2,-1
2364,-1,7,0,-2,-4,0,-4,-5
2364,4,0,-16,-17,-2,-1,4,6
2364,-4,-4,10,7,2,-2,0,3
2364,-5,-4,7,12,-2,-3,-3,-5
2386,-1,0,-4,-2,-1,-2,-2,-3
2386,-1,-2,2,4,0,-1,-3,-1
2387,1,1,-7,-7,-2,1,-1,0
2387,1,-2,-13,-15,-2,-2,0,6
2409,-5,-5,7,7,1,-2,0,-2
2409,-7,-6,-3,1,0,0,-3,-6
2410,2,2,0,-3,-1,-1,0,1
2410,1,-1,-4,-5,-1,1,-5,0
2424,0,-1,1,-5,-1,-3,9,5
2424,3,1,4,6,1,0,0,-3
2425,-2,2,3,7,5,1,2,0
2425,-2,0,-2,-7,-4,0,2,0
2445,-1,-2,-8,-9,-2,0,-7,-6
2445,1,4,4,5,0,1,-1,2
2446,-2,-3,-11,-14,-4,-2,1,-1
2446,0,1,9,11,-2,-3,-1,-3
2468,-1,-2,0,4,-1,-1,-1,-2
2468,-7,-4,-3,-3,-3,-3,-11,-3
2470,5,2,-1,-3,-1,0,3,3
2470,-1,1,-2,-7,0,-2,3,1
2484,-1,-3,-3,-1,0,1,-3,-1
2484,-3,-4,-2,-3,0,-2,2,-2
2485,-1,-1,-13,-8,-4,-3,-8,-5
2485,0,-1,7,2,1,0,8,-1
2514,-3,-10,14,19,-1,-5,-5,2
2514,5,15,1,0,1,1,0,-1
2515,4,-3,4,-1,-2,-1,3,5
2515,-2,-1,-6,-6,-1,2,-1,0
2530,-1,1,-8,-8,-3,0,-2,-3
2530,-4,-8,-1,-3,-2,-1,-2,-2
2530,-2,0,4,5,0,-3,-6,-1
2530,1,0,-1,1,-1,3,-22,-5
2552,7,1,-3,-1,1,1,19,6
2552,2,0,-1,-1,-3,-3,2,2
2552,1,-4,0,1,0,1,-2,-2
2552,-7,1,-18,-12,-3,2,9,4
2566,-4,-13,19,18,1,-6,-23,-7
2566,8,7,8,6,1,0,4,2
2566,-15,-3,-3,5,1,1,-2,-3
2566,12,3,3,4,0,0,-2,-3
2590,-3,0,-12,-13,-3,1,-3,-3
2590,-5,-5,-6,-5,-1,-2,-1,1
2591,1,-2,1,0,0,0,-4,0
2591,-4,-2,-2,-1,1,-3,-9,-2
2603,-2,4,-16,-17,-3,0,4,-2
2603,-1,-3,16,12,2,1,0,0
2604,-5,1,1,0,-2,-4,-2,-4
2604,-3,-3,0,-3,-1,-3,1,4
2625,2,3,-3,-3,-1,0,2,2
2625,-5,-3,-8,-6,1,1,-7,-1
2626,0,-3,1,1,1,2,-4,-6
2626,3,-1,6,3,1,3,15,9
2651,0,2,-1,-4,-3,-3,-4,-3
2651,0,-1,-5,-5,-5,-7,4,2
2654,0,1,-1,-2,-3,1,-3,-3
2654,-2,-4,-6,-11,-3,-1,-4,-6
2657,-2,2,0,-3,-1,0,-1,-4
2657,-4,-4,-5,-3,1,2,0,-2
2664,1,-1,7,10,1,-3,-12,0
2664,-2,-2,6,6,-1,-3,7,-2
2680,1,0,-6,-3,-1,0,0,0
2680,0,-3,-5,-7,-4,1,-10,-8
2680,0,-3,-5,-7,0,0,8,1
2680,-2,0,-4,1,-2,-2,5,7
2694,0,-2,2,5,3,1,-2,-2
2694,0,1,-4,-2,-2,-3,-2,-3
2700,-2,2,-4,-3,-2,1,3,-2
2700,-1,-2,0,3,-3,-5,-7,-4
2717,0,0,-4,-4,-2,-2,3,-2
2717,-2,-3,-3,-2,-2,2,-3,1
2723,-1,0,1,6,-2,-7,1,0
2723,-2,-2,1,3,1,-1,-2,-3
2746,-1,4,0,-3,0,-1,-3,-1
2746,-2,-2,-1,3,-2,-1,8,3
2746,0,-1,-1,-5,-2,3,8,1
2746,-1,-5,-12,-14,-2,-1,2,2
2754,-1,1,9,10,3,3,1,-2
2754,0,-2,9,12,5,0,-1,-4
2768,1,2,0,-3,-3,-5,-1,-1
2768,1,0,-3,0,-1,0,-4,-4
2777,-3,-4,0,-8,-4,-1,-5,-3
2777,-1,1,-7,-8,-1,1,8,5
2800,-2,0,5,6,3,2,-3,2
2800,1,1,-2,-7,-3,-2,-14,-3
2801,1,1,1,5,-4,-4,4,2
2801,0,-2,2,0,-3,-1,-3,-3
2802,0,-2,-5,-5,1,0,2,0
2802,0,1,2,3,1,-1,-1,-1
2814,0,2,-5,-4,0,0,-1,1
2814,0,-6,0,-2,0,0,-7,-2
2828,0,0,-4,-6,1,4,8,1
2828,1,-1,9,13,2,0,3,0
2837,0,0,-1,2,0,-3,-5,1
2837,0,-1,3,2,-2,-3,14,5
2843,-4,-6,-3,1,-3,0,-12,-8
2843,0,-1,0,-4,-2,-1,5,0
2860,0,-2,-6,-5,1,2,3,1
2860,0,3,-4,-6,-1,-2,-8,-4
2860,-1,-3,-3,-8,-1,-4,2,-2
2860,-1,1,1,7,2,0,7,0
2875,0,-2,2,2,-1,1,0,0
2875,-3,-3,-4,-3,-2,-3,-6,-1
2881,0,2,0,-2,-2,-3,-2,-1
2881,-2,-3,-1,-7,-2,0,0,-1
2897,-2,-1,-4,-1,0,-1,3,-1
2897,-2,1,7,7,1,-2,-3,-4
2903,0,1,-2,-2,-2,1,0,1
2903,0,0,3,-1,-1,-2,-7,-3
2919,-2,-3,-2,-3,0,-1,0,-1
2919,-2,-1,-3,-5,-1,-1,-2,-2
2919,1,-1,0,1,2,5,2,1
2919,-1,1,0,0,-2,-9,-13,-1
2935,0,-3,-2,-1,-2,-2,7,2
2935,2,0,-3,-1,-2,0,6,1
2941,0,0,0,0,-2,-4,0,1
2941,-2,-1,-1,4,1,2,0,-1
2958,-4,-3,-2,-4,-3,1,-5,-3
2958,1,2,-5,-8,1,4,-1,1
2962,2,0,-1,2,-3,1,-1,-2
2962,-1,0,1,-2,-2,-2,-10,-7
2981,-2,0,4,4,-1,-6,-1,-1
2981,-3,-6,-9,-2,-4,0,-2,-4
2981,-3,-3,1,-5,-3,-4,-2,-1
2981,-3,-3,-5,-2,-1,1,1,-1
2994,-2,-5,-1,-3,-2,-1,-4,-3
2994,-3,-1,0,0,0,-2,-3,-3
3000,-2,-1,-5,-1,0,0,2,2
3000,-2,0,0,1,-1,-1,1,-4
3017,-1,1,-2,-5,0,2,-3,0
3017,1,-1,-1,-2,-1,-2,-1,-2
3023,0,-2,1,1,-2,-6,-6,-2
3023,1,-2,2,1,-1,3,5,1
3061,1,1,1,9,2,0,-2,-2
3061,-2,-2,-1,2,-1,-1,-4,-2
3063,-1,-1,-4,-3,0,-2,-2,-1
3063,0,0,-1,-5,-2,-1,-2,4
3070,0,1,-3,-2,-1,0,-3,-1
3070,-2,0,0,1,-2,-1,1,1
3071,-2,-1,0,-1,-1,0,3,-2
3071,-1,0,-3,-4,-3,0,-4,-2
3077,1,-2,-2,-5,-3,-2,1,2
3077,0,-1,-2,-6,0,-4,-4,-5
3083,0,-2,2,1,-2,2,-1,5
3083,-1,-2,-3,-3,1,-4,11,4
3097,0,-1,3,4,2,2,4,-2
3097,-1,0,0,-2,1,0,-5,-4
3106,-2,0,0,1,1,0,-4,-3
3106,0,-1,-2,-1,-1,-2,-5,-3
3114,0,-1,0,-2,-1,-3,-3,-4
3114,0,0,-2,1,-1,0,-2,3
3121,-1,0,-3,-1,-1,2,-2,-3
3121,-3,0,-1,-1,-3,-2,-2,0
3137,-1,1,-6,-5,-2,-3,0,0
3137,-1,-2,5,1,0,-2,-4,-4
3143,-2,-2,-3,-1,-1,-1,7,3
3143,-2,-5,-4,-4,-1,1,0,-2
3158,-3,-2,2,0,-2,0,-5,-4
3158,-1,-1,-3,-4,-2,0,5,-3
3181,0,0,3,5,-1,-3,-1,1
3181,-1,-2,-3,0,0,1,-13,-3
3190,-2,-4,-2,-2,-2,-1,8,2
3190,0,2,2,3,0,0,-4,-3
3191,-1,2,-1,-2,-1,-4,-7,-3
3191,0,0,1,1,0,-1,4,2
3204,1,0,-2,-1,-2,0,-4,-2
3204,-1,0,-3,-3,-1,-2,-5,0
3204,0,0,-1,-2,1,-2,2,-2
3204,-2,-1,0,0,1,0,3,3
3218,-1,-1,-16,-25,-4,-1,-6,0
3218,0,0,3,-1,-2,-5,3,3
3225,0,-3,6,15,1,0,-8,-5
3225,-1,-1,1,3,0,-1,1,-2
3234,-2,1,-2,1,0,1,0,-2
3234,-2,-2,-5,-5,-4,-1,3,0
3249,0,0,-5,-8,-5,-1,-18,-8
3249,-1,2,2,1,1,0,13,4
3255,1,-1,0,1,-1,0,9,5
3255,-1,0,-1,1,-1,1,-1,0
3263,-1,0,-1,-4,-1,-1,-3,0
3263,-2,0,-1,2,-2,1,-3,-2
3277,-2,1,3,3,0,-3,-9,-5
3277,-1,-4,1,4,1,1,4,1
3286,0,-1,-1,-4,2,3,4,0
3286,1,-1,-5,-6,-2,-3,-3,-1
3301,-1,-1,2,1,-1,-3,2,-1
3301,0,-1,-2,1,-3,-1,-1,-4
3302,-3,-1,-4,-3,-2,0,0,-1
3302,-2,-1,-2,-1,0,0,1,-3
3315,-2,-3,1,6,1,1,-6,-3
3315,-1,0,-2,-2,-3,-3,-9,1
3323,1,-1,-1,2,0,0,8,6
3323,0,0,1,3,-2,-1,-15,-3
3347,-1,-2,-3,-2,0,-5,5,3
3347,-1,0,0,-2,-1,2,-1,-1
3348,1,-2,-1,1,-4,-3,2,0
3348,-1,0,2,0,-1,1,-1,-4
3360,0,0,0,4,2,1,-5,-3
3360,-1,-1,-4,-5,-1,-3,-6,-4
3362,-1,1,-2,-2,-3,-4,-1,0
3362,-2,-1,0,0,-1,1,2,0
3375,0,0,-4,-3,-1,2,-9,-5
3375,0,0,-2,-1,-2,-1,6,2
3383,-1,-1,-1,-1,-1,1,10,5
3383,0,-1,-3,-2,-2,-2,-8,-1
3398,0,-2,1,-1,-3,-3,2,-1
3398,2,0,0,3,1,-1,-2,-1
3405,-1,-2,0,-3,0,-3,-3,-3
3405,1,0,-4,-5,-3,-2,-1,-1
3421,-2,-2,1,3,2,2,0,6
3421,-1,-1,0,1,-1,0,-9,0
3422,-3,-1,-3,-3,-3,-3,4,2
3422,-1,-1,-1,-8,-3,-2,-4,-3
3437,-1,-1,2,2,-4,0,10,4
3437,-3,-3,4,8,2,-1,-6,-2
3443,-1,-2,-1,-2,1,2,1,-1
3443,-1,0,1,1,0,0,-1,-3
3459,-2,0,-4,-5,-2,2,-5,-6
3459,-1,-1,-1,-4,-2,-6,0,0
3466,-2,-2,-5,-1,0,1,-6,-5
3466,-1,-2,-2,2,1,-1,7,2
3490,-1,-2,-1,2,0,-2,4,2
3490,-1,0,3,0,2,2,-2,-5
3490,-1,-1,1,1,0,0,6,3
3490,-1,1,-4,-4,-3,-4,-4,1
3496,-1,0,1,0,1,1,-3,-1
3496,0,-2,-1,-2,-1,-1,-1,0
3502,0,-2,0,-3,-2,0,-6,-5
3502,-1,-1,-2,-2,-3,-1,2,-3
3518,-1,0,-4,-4,-1,-3,-3,-1
3518,-1,0,-6,1,1,0,2,-4
3525,1,-1,1,6,1,-1,-1,0
3525,0,-1,-1,0,-1,-4,2,1
3549,-2,-4,7,8,-2,-2,-5,-6
3549,0,0,-2,-1,-3,-3,-4,-1
3549,-1,-2,-1,-5,-1,0,-4,0
3549,-1,-3,-1,-5,1,4,12,-3
3563,1,-3,-1,1,-3,6,6,-2
3563,0,2,5,8,3,-6,2,0
3564,-2,-3,-2,0,-2,-6,-13,-8
3564,0,-3,0,-10,-7,-11,-21,1
3586,0,2,-8,-11,-4,-6,2,6
3586,1,-3,2,4,2,8,2,5
3586,-4,0,-2,-1,2,2,14,-5
3586,1,0,-4,-2,2,5,-8,-2
3626,-4,-1,-10,-19,-9,-7,1,2
3626,1,-1,-7,9,2,2,-4,2
3626,1,-5,11,14,3,2,2,0
3626,2,4,9,12,1,0,-6,-4
3627,5,1,3,4,1,0,4,1
3627,-4,-5,-13,-16,-4,-2,8,-3
3631,-3,1,-3,-6,-3,-4,-11,0
3631,-3,-3,-4,4,1,-2,7,0
3646,-1,-2,-1,-1,0,-3,-7,-6
3646,0,0,0,-6,-3,-1,11,-3
3647,2,1,-6,-5,-1,0,0,-4
3647,0,-1,2,2,0,0,-1,1
3677,-1,-1,1,1,2,2,-1,2
3677,-2,-2,-4,-12,-4,-6,-7,-4
3678,-5,0,3,6,-4,-3,2,2
3678,3,-2,4,6,1,1,-5,-6
3684,1,3,1,2,1,-2,4,4
3684,-4,-3,-1,-3,0,6,2,2
3698,2,-1,-6,-10,-3,-3,-10,-1
3698,-2,0,-2,-2,-4,-2,5,1
3714,-2,-1,-3,-4,-1,3,-8,-4
3714,2,1,3,6,-3,-9,-17,-3
3715,1,-1,0,-3,-1,1,2,-3
3715,-4,-1,-3,1,0,3,12,4
3729,-3,-2,-2,-6,-1,0,-8,-4
3729,-1,1,0,-2,-1,-1,-2,-1
3730,0,0,-1,0,1,1,-2,-2
3730,-2,-2,-4,-3,0,-1,-8,-3
3743,-1,-2,-5,-4,0,-3,8,2
3743,-1,-1,1,-1,0,-1,-1,1
3758,-2,-1,-3,-1,1,1,1,1
3758,-2,-2,1,6,0,0,3,-1
3766,-1,0,2,2,0,-3,-11,-6
3766,-2,0,-2,-2,-5,-2,-3,-3
3767,1,-3,-13,-27,-5,-6,7,0
3767,1,1,7,9,-1,2,14,5
3789,-4,-5,1,10,5,1,-18,-11
3789,0,-2,-5,-4,-1,3,23,9
3790,1,2,3,3,-2,-3,-5,4
3790,-2,-4,0,-3,0,-4,-6,-3
3803,1,-1,-1,0,-2,1,7,0
3803,-3,-1,3,2,-3,-3,-18,-5
3811,2,1,-6,-3,0,8,1,-1
3811,-2,0,-3,-7,-3,-13,0,-5
3825,-1,-1,-4,-1,-3,0,6,2
3825,2,0,-1,-3,0,-4,5,0
3826,-7,-3,1,-5,-1,0,-1,-6
3826,-3,-1,2,8,2,6,4,1
3849,-3,-2,3,2,1,3,-7,0
3849,-3,1,-5,-7,-2,0,1,-3
3850,0,-4,3,7,1,1,-5,-3
3850,5,19,3,-3,-2,1,2,-1
3863,-6,-2,-3,-3,-5,-11,5,0
3863,1,-2,-1,-1,-2,1,3,4
3871,-3,2,2,2,0,-2,-5,-8
3871,-1,-7,-4,-6,-1,4,6,0
3893,-1,0,-3,-3,-1,5,3,5
3893,-1,0,3,5,2,-9,-4,-4
3901,-4,-3,-7,-3,-5,-9,-9,2
3901,4,-5,-7,-21,-3,-2,-4,-5
3909,7,0,15,23,3,0,-2,-5
3909,-9,-8,7,9,3,7,25,14
3910,4,4,-3,0,1,-1,-6,3
3910,-3,-4,1,1,-1,-2,-10,-3
3923,2,7,-14,-22,-3,-1,-15,0
3923,-7,-6,-4,-10,-6,-2,-5,-8
3931,-2,1,7,12,2,-3,16,3
3931,-2,-3,-2,3,0,0,-4,0
3946,4,3,1,1,2,2,-14,-8
3946,3,0,1,-5,-2,2,6,7
3947,-3,-1,2,-4,-5,1,-4,4
3947,-5,-3,-15,-13,-5,-9,10,6
3971,-1,-10,15,20,3,-3,-3,-7
3971,5,10,-2,-10,2,3,-12,3
3972,0,4,2,3,0,15,-9,-21
3972,-3,-18,-1,11,-2,-20,1,28
3992,4,12,-3,-7,2,2,6,-4
3992,1,-2,-6,-3,-3,-1,13,-14
3992,-3,-3,-2,-3,-1,-4,-9,-10
3992,-3,5,-4,-10,-6,-5,-17,-9
4006,-5,-8,-8,-12,-3,-1,13,-3
4006,-4,-9,-2,11,2,6,9,-14
4006,11,10,6,8,2,2,40,-6
4006,2,-3,0,8,1,1,-36,21
4028,-9,-4,-8,-8,-4,-7,1,-12
4028,-1,-4,2,0,0,0,-1,0
4036,-8,-10,0,-4,0,2,-12,-9
4036,8,-1,-11,-14,1,-3,-4,10
4052,-4,0,0,-3,0,4,11,7
4052,-2,0,6,1,-1,-1,13,10
4053,-3,-24,7,16,0,-8,-21,0
4053,9,23,8,9,5,12,12,-9
4066,-9,-25,10,1,1,1,-29,-1
4066,11,-1,-18,-11,-2,7,3,1
4066,1,25,4,-6,-1,-6,-5,-21
4066,-8,-11,4,2,-7,-13,42,23
4089,2,3,-16,-25,-5,-3,-25,-3
4089,-4,2,-8,12,0,-7,17,10
4089,-3,3,4,6,1,5,-22,-3
4089,-5,-15,-2,3,6,20,12,-20
4111,1,7,6,13,-6,-17,-22,4
4111,6,24,10,-8,-4,-8,-29,-10
4113,0,-2,-17,-5,-1,1,-8,13
4113,-4,6,-4,-8,-2,-2,-11,-16
4125,-2,7,-1,-8,1,8,24,8
4125,-7,-5,10,18,-1,1,-28,-5
4127,1,-9,-15,-19,-9,-10,28,9
4127,3,4,5,20,7,4,-2,-3
4157,5,9,5,5,6,15,4,-29
4157,-1,-11,-1,-2,-8,-20,6,12
4158,1,15,0,-4,-2,-7,2,-11
4158,-9,-3,0,-6,-2,6,1,0
4179,-3,-12,-7,-6,-9,-10,-41,-6
4179,1,4,-21,-38,-8,-7,-17,5
4179,-6,-15,17,31,7,0,2,-1
4179,-1,-23,-12,2,4,3,-41,-11
4186,3,17,13,7,1,0,26,19
4186,-7,-7,5,3,1,10,-10,-12
4188,4,0,-5,-16,-5,-2,0,16
4188,0,1,2,0,-2,-4,8,-33
4209,-2,-7,1,2,-3,0,-12,3
4209,-1,0,2,0,-1,-5,6,0
4209,5,-5,-14,-15,-4,1,-22,-17
4209,0,7,5,4,2,3,-5,-6
4232,-9,-14,-2,-5,-1,-4,12,1
4232,0,3,-23,-10,4,10,-19,-18
4233,-10,-9,12,11,-6,-7,70,11
4233,16,12,-24,-20,-5,-19,-37,22
4246,4,-8,9,17,6,4,56,14
4246,3,8,13,8,-2,-7,-28,-15
4246,-3,-8,-2,-6,-4,1,-15,-2
4246,-8,-3,-4,-5,-3,10,-13,29
4268,5,6,-5,-4,-2,-4,49,35
4268,-4,-2,-7,-4,3,7,-5,1
4269,-10,-26,-1,-8,-5,-2,-15,24
4269,17,59,21,14,3,6,5,-26
4293,7,-4,-26,-19,-5,-5,-42,-17
4293,-2,7,27,15,2,0,11,8
4293,-3,-6,1,4,-1,3,11,-14
4293,-23,-22,-2,-3,1,11,-13,-35
4305,7,-2,2,9,3,-1,15,4
4305,7,3,-13,-2,-2,5,27,19
4307,-1,16,5,-8,-2,-23,-32,-15
4307,-3,-22,2,13,11,10,11,-6
4329,-3,-2,-23,-23,-6,-5,15,-12
4329,0,-11,6,-8,-5,3,-18,6
4330,8,8,0,0,-8,0,42,23
4330,-1,-10,11,18,6,-3,-14,7
4351,-7,-12,-6,-1,2,1,-16,2
4351,-4,-6,2,6,-1,-2,1,-18
4353,-2,0,-11,-22,-3,4,-15,26
4353,7,-3,-9,-11,-8,-11,13,23
4365,-1,15,19,22,4,10,4,-16
4365,-6,-7,-2,1,-7,-17,-7,-28
4367,-3,2,-5,-5,3,8,8,31
4367,-11,-14,-7,-15,-6,-1,38,-12
4389,1,15,8,6,-3,-3,-21,5
4389,-2,-6,-16,-21,-1,-1,-14,-24
4389,-5,-9,3,17,6,6,-26,-22
4389,-4,-1,6,9,2,-2,17,-10
4412,-5,5,1,-5,-8,-11,6,11
4412,4,1,-6,-13,-1,1,7,10
4412,-4,-2,-9,-10,-1,1,1,-46
4412,-7,-13,7,15,-1,-4,13,28
4426,-3,-13,-1,-3,-2,-5,-35,-2
4426,19,25,4,12,3,6,24,4
4426,0,-2,-3,-2,1,7,9,-4
4426,-3,2,-4,-15,-7,-5,-42,-26
4448,-5,0,-2,-7,-3,-1,18,-6
4448,-11,-18,-17,-10,-3,0,28,20
4449,18,21,24,17,6,-2,-49,-48
4449,0,-1,-2,0,-2,-5,21,9
4472,0,9,-1,0,-1,-2,-10,1
4472,-3,-3,0,-1,-1,2,-22,9
4473,-4,7,1,-1,-6,-1,10,-6
4473,0,-4,-8,0,1,-4,-1,1
4494,11,0,2,4,0,-2,-6,5
4494,-22,-5,6,12,3,5,7,-22
4494,7,5,-11,-5,5,6,-16,7
4494,2,6,8,-3,-12,-28,24,17
4508,-4,-7,-1,-1,0,6,12,-13
4508,-3,-4,0,-1,-4,-8,-25,11
4509,-6,-4,-10,-6,-1,2,28,21
4509,-1,-5,1,-1,1,7,-18,15
4532,2,-11,-1,0,1,2,15,2
4532,3,9,5,4,2,-8,-21,-7
4532,-2,-9,-7,-7,-2,-3,-3,-1
4532,4,7,-4,-14,-4,5,-3,-18
4546,-6,-10,-5,0,0,-2,1,-10
4546,-3,-13,8,14,1,-1,-5,9
4546,3,2,3,6,0,-3,-8,-3
4546,2,1,-3,-2,-5,-1,20,10
4569,-1,4,-1,-9,-1,5,-4,4
4569,-1,-1,-7,0,4,3,7,-9
4569,-8,-12,1,12,-1,-5,-7,-16
4569,1,7,4,-5,0,4,5,14
4591,1,1,2,6,4,-2,-29,-1
4591,-1,-1,2,-4,-5,-4,27,8
4593,3,-2,-8,-3,-4,-3,-14,-16
4593,-2,-3,3,4,0,3,-1,0
4606,-3,-2,2,1,2,1,4,-9
4606,2,-1,3,0,0,0,-6,6
4614,-2,-4,-9,-9,-3,-2,3,14
4614,-3,-7,-17,-14,-4,-2,-8,-19
4637,-5,-10,9,5,0,0,-2,-13
4637,1,3,-3,3,-1,-6,5,20
4637,-1,-1,0,-2,1,-1,5,18
4637,1,3,-2,-2,0,0,0,-9
4652,-4,-4,-3,-1,-1,-3,-11,-8
4652,-1,-3,-3,-10,-3,-1,-3,0
4653,1,3,2,2,-1,-3,5,13
4653,-3,-6,3,6,2,0,-19,-5
4665,-2,3,-4,-3,-4,-1,-3,-2
4665,2,0,0,-1,2,1,7,-7
4673,-2,4,-3,-3,0,-1,0,8
4673,-2,0,-5,-7,-2,1,4,-11
4689,1,8,-2,-2,-2,-1,2,4
4689,3,0,4,6,0,3,-1,-10
4689,-2,-4,0,3,-2,-2,-1,3
4689,3,0,0,-3,-1,3,-11,8
4712,0,3,-5,-3,-3,-5,6,11
4712,-2,-5,-14,-18,-6,-3,-3,-2
4713,0,1,5,8,0,-1,-1,-5
4713,-6,-2,2,2,-3,-2,-1,-12
4726,0,-2,-1,-1,1,1,-11,-15
4726,-1,-1,4,5,1,2,3,19
4734,-2,0,-7,-2,-1,0,0,4
4734,1,6,12,-1,0,-2,-1,5
4749,-2,-4,2,0,0,-1,0,-9
4749,-1,0,0,0,1,-3,0,-9
4750,1,1,-1,-4,-1,-1,5,5
4750,-1,-2,-2,6,3,-2,-6,-19
4774,-4,-2,-3,2,-5,-1,-2,5
4774,2,0,1,-2,-2,-1,1,-35
4774,6,2,-6,4,8,0,1,28
4774,-3,0,-2,-7,-4,1,6,-3
4787,-1,0,9,-5,-1,-3,-8,7
4787,-5,-7,-4,7,3,1,10,-19
4794,0,-2,0,-4,-2,-3,-2,35
4794,-9,3,-13,-6,9,8,-3,-52
4809,15,15,35,2,1,2,7,-1
4809,0,2,22,10,2,3,-6,-1
4809,3,-4,4,7,2,1,7,10
4809,1,-2,7,-6,1,-6,1,19
4831,-9,-6,-22,8,-2,3,3,-23
4831,1,-1,-9,-15,-4,-2,-8,-1
4839,4,4,10,4,1,4,-12,-11
4839,1,-6,-12,-8,-12,-11,7,22
4845,-7,-6,-7,2,14,7,12,-14
4845,-9,-3,-1,-1,-5,-5,-6,-4
4854,1,3,-3,12,5,-1,-4,39
4854,3,-2,2,-17,-15,1,-3,3
4869,2,-3,-7,1,-1,-2,-7,13
4869,4,0,4,5,0,1,-6,-4
4870,-6,6,-24,4,11,-8,-10,-25
4870,-8,-7,17,-18,-26,2,6,10
4892,5,-6,-14,0,2,-3,2,4
4892,1,-7,7,18,6,6,0,15
4893,-4,10,16,-5,-10,-4,-4,-25
4893,4,10,-12,3,13,1,0,1
4906,-6,-4,-12,-11,-9,-1,-2,4
4906,-1,-1,-27,-24,-3,-4,-7,0
4913,0,-1,32,13,1,2,9,-5
4913,-27,-12,4,12,1,-8,-26,-96
4928,28,2,-1,3,9,2,27,38
4928,4,6,-6,-14,-16,-3,0,-47
4929,-8,-4,-4,-12,-8,0,7,-37
4929,10,8,-7,0,1,0,-7,17
4951,-17,-2,-1,5,6,-3,-1,-19
4951,-5,-7,4,10,7,2,3,18
4952,5,4,-13,-17,-10,-3,3,2
4952,3,-4,-19,-2,-2,-7,-8,-24
4974,-5,3,2,1,-3,-4,-15,20
4974,-2,-4,-7,2,-1,-1,-3,21
4975,-12,-9,-5,-20,-10,-3,-4,-17
4975,-15,-6,-3,19,10,-2,-12,-51
4988,-15,-8,13,-4,-9,-13,-4,-20
4988,63,34,6,6,9,21,22,44
4989,3,-13,1,-3,1,4,2,-27
4989,14,10,-5,0,1,3,12,23
5012,-22,-6,-4,-6,-8,-4,-13,-18
5012,-38,-21,-7,-4,-9,-15,-25,-124
5013,31,9,-3,0,6,13,36,109
5013,2,2,9,12,5,4,-7,-25
5035,2,-5,-4,-10,-7,-2,6,-1
5035,-5,7,-1,3,5,-4,5,15
5035,-1,3,14,-10,-4,-11,-2,14
5035,-6,-10,-4,-6,-4,-4,-11,-32
5048,4,8,0,5,4,5,-11,-32
5048,-1,-11,12,1,-3,-1,5,12
5049,-24,17,1,4,-3,-1,-12,-70
5049,9,-7,1,-5,-3,-5,21,124
5071,13,7,3,-1,-1,6,-16,-64
5071,-17,-6,0,-3,2,3,1,-1
5073,2,-5,-11,-3,-2,-4,4,-3
5073,-10,-25,-24,-4,1,0,-1,4
5094,-1,5,17,2,0,-1,3,-5
5094,-13,-2,-11,-2,0,-6,-7,7
5095,-4,-10,-5,6,-10,-1,-3,-19
5095,12,15,-2,-6,4,5,6,-1
5108,-3,-4,6,6,3,-2,8,33
5108,-4,2,13,17,8,-4,-18,-27
5116,1,9,24,7,-3,9,4,32
5116,9,3,15,2,-4,-2,-7,-20
5132,16,5,-30,-19,-3,6,19,59
5132,-23,3,-8,-2,-4,-16,-23,-79
5133,49,1,-8,11,16,15,40,64
5133,-11,-1,-16,2,-6,-2,-1,-80
5154,-2,-5,13,-3,-5,-3,1,-5
5154,3,-21,-6,-6,3,2,8,-12
5155,-10,0,-1,-7,-3,-5,-18,-37
5155,11,21,1,-4,5,0,3,28
5168,-13,-17,-4,9,11,6,-4,-43
5168,13,9,6,-10,-13,-3,-8,8
5184,-10,-19,-5,-19,-7,-4,11,52
5184,-6,-13,14,14,0,-5,-22,-24
5191,-4,23,1,-10,-3,11,0,-38
5191,1,5,10,-8,0,0,14,105
5193,15,-8,2,10,20,12,-2,57
5193,1,-12,-6,-1,-3,-6,12,33
5215,14,5,-12,-18,-19,-14,18,55
5215,13,16,27,23,15,17,-28,-126
5216,4,17,-8,-5,8,5,13,72
5216,-15,-4,0,-16,-10,-3,-4,6
5228,-7,-39,-23,-12,-15,-9,-8,0
5228,-11,9,-2,-8,5,-2,16,36
5236,-28,-35,-111,-18,-9,-18,-37,-89
5236,4,-5,67,-27,2,13,22,28
5252,6,28,61,51,6,-4,2,51
5252,-18,-30,-21,2,-13,-18,-15,-29
5253,-16,-42,48,8,4,3,-38,-105
5253,12,51,-29,-26,-16,3,18,80
5274,-48,-51,-28,-8,4,-1,9,-16
5274,11,23,-11,12,-6,-13,-20,7
5276,45,53,10,-3,-10,-8,41,82
5276,-9,14,2,6,9,19,-34,-124
5288,1,-26,10,22,12,12,16,61
5288,-31,-65,-73,-28,-5,-2,1,-22
5296,-25,-46,-2,-7,-11,-14,-4,-50
5296,17,23,14,19,-11,-36,-24,-63
5312,58,54,16,35,54,45,34,82
5312,-11,3,7,-4,-9,6,3,-67
5313,-5,-10,-32,-21,-17,3,-5,-55
5313,-22,-45,-7,-5,-3,-13,-7,-25
5334,-36,-17,-18,-17,-20,-33,-40,-128
5334,62,37,33,32,32,26,18,113
5335,-13,9,19,-5,-13,0,-4,-108
5335,6,-5,-13,7,-3,-6,3,-24
5349,4,8,-15,-28,-6,-9,-15,-55
5349,-14,-5,9,0,-1,5,3,-2
5355,-53,-17,-1,8,-5,-25,-55,-93
5355,64,28,10,19,20,34,70,75
5372,-13,6,-3,-7,-1,-9,-30,-105
5372,9,-23,11,9,1,0,22,13
5373,-31,9,-5,-7,-2,4,-21,-56
5373,-13,-23,-18,-5,0,-5,-6,9
5394,15,17,13,-33,-10,3,17,85
5394,-9,-7,-56,-55,-16,-17,-21,-57
5401,3,18,18,44,5,-14,-14,-14
5401,-25,-33,29,3,-6,-6,-11,-15
5416,21,21,21,40,17,27,48,40
5416,-13,-8,2,-22,-20,-11,-11,-68
5418,14,3,-15,-22,3,6,4,-83
5418,-24,-15,-43,-53,-21,-12,-36,-119
5432,-40,-23,-17,17,8,-10,-66,-98
5432,10,25,7,-6,32,21,23,-68
5433,23,3,-3,24,-16,2,22,9
5433,15,9,38,-6,2,4,9,6
5453,-10,15,1,-21,-10,-17,-29,-44
5453,0,3,34,42,2,4,5,77
5456,11,11,23,6,9,6,11,65
5456,-29,-18,-14,12,-6,-9,-15,-22
5468,-1,-15,4,9,-2,-9,-10,-74
5468,15,42,8,-3,-12,0,-4,-56
5476,36,7,11,1,9,15,40,47
5476,-7,-10,-25,15,-2,4,1,37
5492,-3,-3,-30,-37,-45,-8,-9,-18
5492,-42,-26,-21,-7,-21,-14,-5,-8
5497,1,-2,19,-35,-7,-9,1,53
5497,1,5,-4,22,44,18,-1,-47
5514,4,-3,9,24,12,5,-5,-52
5514,-14,-11,-14,-20,-5,-4,0,18
5516,-15,-22,-62,-21,-6,-10,-9,14
5516,3,23,75,27,-7,-12,18,87
5528,7,8,-7,-8,5,7,-9,-24
5528,10,0,5,-16,-17,-9,-6,38
5544,-12,5,5,-2,12,9,2,-66
5544,37,12,-22,-4,2,-7,-3,58
5552,-8,-15,-20,-3,-5,-5,4,16
5552,-5,-1,2,4,1,-1,0,8
5553,-8,-13,-8,-12,-3,-7,-19,-61
5553,-35,-18,-12,18,-5,-4,-28,-128
5574,19,12,32,8,-4,3,13,41
5574,5,-7,-5,-33,3,11,16,42
5576,-4,7,12,16,1,1,-5,-20
5576,0,-2,2,-12,-3,-1,-4,16
5588,-11,-7,-23,-16,-2,-2,-4,-38
5588,1,3,12,24,8,3,-12,-91
5597,8,6,20,10,2,4,33,98
5597,-5,7,-25,-1,1,-1,7,-10
5612,13,-5,19,-1,0,-3,14,43
5612,22,3,18,12,-1,-1,2,28
5613,-6,1,-15,-1,3,-2,-17,-52
5613,-1,-3,-6,-3,0,1,4,26
5634,2,2,11,6,1,0,6,-1
5634,2,-2,-6,2,-2,-4,-1,30
5635,-1,13,26,18,16,4,-5,-6
5635,-1,2,-2,-13,-18,2,3,-5
5648,-7,-18,-11,-19,-9,-5,-6,-23
5648,5,2,-5,6,1,-1,6,31
5656,-9,-12,-21,-14,-8,-4,-24,0
5656,5,14,21,17,14,6,9,-47
5679,-2,-3,7,6,-2,-5,18,57
5679,-3,0,-3,-7,-3,-5,8,12
5681,-6,0,-8,7,0,0,-13,-52
5681,17,-1,-6,-13,-3,0,1,30
5693,5,3,-11,15,-3,2,-4,6
5693,-6,-9,-8,-18,22,-4,-6,-17
5702,-2,-1,1,51,24,1,14,-1
5702,-9,0,2,-39,-27,6,-2,19
5708,0,-4,-5,-15,-7,-5,1,30
5708,7,1,3,8,-8,3,-6,-1
5716,-2,0,-22,-21,-4,-4,-9,-29
5716,-8,-4,-2,12,17,1,7,10
5731,-7,4,22,17,0,-5,-15,-73
5731,4,-1,-6,5,-3,1,8,60
5745,-3,-9,-9,-10,-11,-2,1,51
5745,-1,-8,-6,3,2,-5,1,0
5754,0,6,-10,-27,-16,-3,-11,-37
5754,-24,-7,3,0,-12,-16,-19,-33
5756,13,5,-8,-3,-1,12,13,22
5756,25,1,-20,2,0,13,25,50
5768,1,6,11,9,8,2,13,11
5768,-9,-9,16,4,-1,-2,-13,-101
5776,8,13,-10,-18,-14,-10,15,80
5776,-15,-6,6,4,5,-6,-22,-59
5790,36,-4,-13,-3,5,1,29,60
5790,-8,12,-2,3,2,10,-12,-96
5798,-16,-14,11,-5,-7,-9,-14,-55
5798,20,3,-2,7,2,3,26,41
5815,-16,-2,-12,1,7,10,2,-4
5815,-3,-5,-4,-9,-8,-7,-17,-60
5816,9,9,25,3,5,9,7,-21
5816,-2,-4,-7,2,0,-2,-9,18
5828,-13,-6,-14,-6,-9,-8,-7,-37
5828,6,-3,3,5,4,0,0,-11
5843,-6,-5,3,-1,2,-8,-18,-37
5843,-11,-2,-10,-4,-9,-7,1,-32
5851,2,4,-2,-2,-3,1,1,32
5851,5,2,-5,2,-6,1,8,60
5858,-3,-4,2,-4,-9,-1,-6,-23
5858,-5,-1,-2,-5,-3,-1,-3,11
5874,-3,-2,-1,-6,-3,-5,-10,3
5874,2,-2,-4,0,-1,1,15,32
5876,4,2,-2,-4,0,-1,-2,-24
5876,-3,0,19,6,1,-3,-10,-38
5897,-6,-1,-5,1,2,-3,-6,-17
5897,-2,-1,-3,0,1,-1,6,7
5898,6,1,6,-1,-3,2,3,10
5898,-4,-2,-6,0,-1,-3,-7,18
5911,-2,-1,-2,-3,9,-1,-8,-14
5911,2,1,4,3,3,1,8,-10
5925,2,1,4,2,-1,-1,3,43
5925,-3,0,-8,0,-2,1,2,0
5942,-2,-2,-6,-3,-7,-4,-3,11
5942,6,2,-2,-2,-2,1,1,-8
5943,-6,-3,1,-4,-3,-3,-5,57
5943,-4,-2,-4,-2,-3,-4,-11,1
5964,1,2,1,1,1,2,2,9
5964,10,1,0,-1,1,1,3,-12
5965,1,0,1,0,-2,1,-4,-76
5965,-2,-1,-2,-2,2,2,-4,-20
5979,-8,-3,-4,-3,-3,-4,-5,-43
5979,-2,0,-1,-1,1,-1,3,57
5980,-2,0,0,-2,0,-2,0,-7
5980,-5,-4,-4,-1,1,-1,-5,-17
5994,-2,-1,-1,0,2,2,-2,-20
5994,-1,-1,-2,-1,-3,1,-1,-4
5995,-4,-1,0,-3,-9,1,1,15
5995,-2,-1,-2,0,-6,-2,-5,14
6016,-1,-1,-2,0,-6,-2,-7,7
6016,5,-1,-1,0,-3,-2,16,41
6018,-1,-2,1,-1,-2,0,-4,-20
6018,-4,-1,-3,0,0,0,-4,-28
6039,-2,-1,-1,0,1,2,7,22
6039,1,2,-1,0,1,2,-2,-4
6040,0,-1,-1,-1,-1,-3,3,-15
6040,-2,-1,-1,-2,-2,-2,-3,-16
6054,-1,-2,-1,-2,-4,-2,-3,-4
6054,0,0,0,0,0,0,-4,5
6056,-1,-2,0,0,0,-2,-2,-11
6056,6,0,0,-2,3,0,0,4
6076,1,-1,-1,-3,0,-8,0,8
6076,-2,-2,-3,-1,-1,-3,-1,-3
6079,-1,-2,0,-2,1,-2,-1,5
6079,-1,-3,-2,-2,-1,-1,0,1
6090,2,-1,-2,-2,-1,0,0,0
6090,-2,-3,-1,-3,-3,-3,-3,0
6099,0,-1,-1,-2,1,-4,-3,2
6099,2,-2,-2,-1,-2,1,2,1
6122,-2,1,-1,-2,-2,2,2,-5
6122,-3,-1,1,-1,0,0,-5,0
6123,0,0,-3,-1,0,1,-4,-6
6123,-4,0,-2,-1,0,-3,6,0
6137,-2,-1,-2,1,-2,-1,-2,0
6137,-2,-2,-2,-1,-1,0,0,-3
6138,-1,1,-1,0,0,-1,-3,-4
6138,1,0,-1,0,-1,-2,-5,-2
6151,-1,0,-2,-1,1,-1,3,4
6151,3,1,0,1,-3,-2,0,2
6159,-1,-1,-1,-2,-1,0,3,-1
6159,-1,-1,0,-1,-1,-1,-3,-4
6174,-1,-3,-2,-3,1,-1,-2,0
6174,-2,-1,1,-2,-1,-1,-1,-4
6176,0,-2,-2,-2,-2,0,-2,-4
6176,0,-1,-2,-2,-1,1,0,-2
6198,0,-2,-1,0,-1,-1,-4,-2
6198,-2,-2,0,-3,-1,0,-3,3
6201,0,1,0,-1,-1,-2,1,6
6201,1,-2,0,-1,2,-3,-3,4
6203,0,-2,0,-1,0,-1,0,2
6203,1,0,-3,-2,-1,-1,0,-1
6213,-1,0,-2,0,-3,-2,0,0
6213,-3,-2,-2,0,-2,0,-2,-3
6234,1,-1,-2,0,-3,0,-1,-1
6234,-2,-1,1,-1,-2,0,1,-3
6235,2,0,-1,-1,1,-1,2,-2
6235,2,1,-1,0,-1,-1,0,-2
6248,-1,-1,-1,0,0,-2,-2,-1
6248,-2,-1,-2,-1,-2,-4,-1,0
6249,1,-1,0,1,1,-1,-1,-2
6249,-1,-1,-1,-2,0,0,-3,-3
6265,0,0,0,-3,1,2,0,-2
6265,0,-1,-2,-1,1,-1,-2,-6
6270,-5,-1,0,-1,1,-1,-2,-3
6270,0,-1,-1,0,-1,-2,-2,-1
6285,3,0,-1,-3,-1,1,-1,1
6285,3,0,0,-1,-1,0,-1,-1
6294,-2,-1,-1,-2,-2,-2,1,-1
6294,-2,0,-1,-1,-1,-2,-2,-2
6308,-2,0,-2,1,-2,-1,-3,-3
6308,-3,-1,-2,0,-1,-2,0,1
6325,0,0,-1,-1,-3,-1,-2,1
6325,-1,-1,-1,-1,-2,-1,-1,0
6326,-2,0,0,0,-2,-1,-1,0
6326,0,0,0,-2,-1,3,-4,1
6331,0,-1,-1,0,0,0,-1,2
6331,-2,-1,-1,-1,0,-1,-3,-1
6345,0,0,1,0,1,1,-2,-3
6345,-2,0,0,0,-2,-1,-2,-4
6353,-1,-2,-2,-1,-2,0,-4,-5
6353,-1,-1,-2,-1,-2,-2,-3,-5
6377,-1,-1,-3,-2,0,-2,-1,-3
6377,-1,-2,-2,-2,-2,-2,0,-3
6378,-3,-3,-3,-1,-3,-2,-2,-2
6378,-2,-4,-2,-1,-2,-3,0,0
6383,-1,-2,-2,-3,-3,-1,-1,-1
6383,-2,-2,-2,-2,1,-1,-6,-2
6398,-7,-1,-1,-2,-1,-2,-2,-4
6398,0,-1,0,0,-1,0,-1,-2
6405,-2,-2,0,0,-3,-2,0,1
6405,-3,-3,-2,-1,0,0,1,1
6413,0,-1,0,-2,-3,-1,0,-2
6413,-1,-1,-2,0,-1,0,-2,-1
6437,-2,-2,0,-1,-1,0,-2,-3
6437,2,-1,0,-1,-2,1,0,0
6437,1,-2,0,-2,0,-1,-1,-1
6437,2,-1,1,-1,-1,1,0,0
6443,0,0,-1,0,1,-2,-1,0
6443,-2,-2,-1,-2,-1,-1,-1,-3
6450,0,0,-2,0,-1,0,-2,-1
6450,-1,0,0,-3,-2,-2,-1,-1
6465,-3,-1,-2,-1,-1,-2,-1,-1
6465,-1,-2,-1,-1,-1,-2,-4,1
6473,-1,-1,-1,1,-4,-1,-1,2
6473,1,0,-1,-1,-3,-2,1,3
6488,-2,-1,-2,-1,-1,0,1,0
6488,0,1,-3,-2,0,0,-1,-1
6489,1,-2,-1,-1,-1,1,-1,-2
6489,0,-2,0,0,0,0,-1,0
6503,0,-1,1,0,-1,-3,-2,-2
6503,1,0,0,-1,-1,0,1,1
6511,1,2,1,1,1,-2,1,-1
6511,1,2,0,-2,2,-2,-2,-2
6525,1,2,0,0,1,0,-2,-2
6525,0,1,1,-1,-1,0,-2,-1
6534,-1,-2,0,-3,-2,0,-3,0
6534,-1,0,0,-1,1,-1,1,1
6548,-2,-2,1,-2,-2,-1,-2,0
6548,0,1,-2,-1,-1,-1,0,0
6549,-1,0,1,-2,0,-2,1,-1
6549,-1,-1,0,-2,0,-1,0,-1
6563,-4,-2,-1,-2,-2,-1,0,-1
6563,1,-1,1,0,-2,-3,0,0
6579,-1,-1,-3,0,-1,-2,-1,0
6579,-2,-1,-2,0,-2,-1,-2,-2
6596,-2,-1,-2,0,-1,-1,-2,-1
6596,1,0,0,0,-1,0,0,1
6596,1,1,-1,0,-2,0,-1,-2
6596,-1,-3,-2,-1,1,-2,-1,0
6608,0,0,0,-2,0,-2,-1,0
6608,-1,-2,-3,-1,1,-1,-1,-3
6618,-1,0,-2,-1,-1,-1,-3,2
6618,-1,0,-1,-1,-1,-1,-1,0
6622,-2,-1,-1,-2,0,1,2,0
6622,-4,-2,0,-1,-1,-4,1,0
6632,3,1,0,-1,1,0,1,0
6632,-2,-2,-1,-1,-2,0,1,-3
6645,-2,-1,-1,1,-3,-2,-1,-3
6645,1,0,-1,0,-3,0,-1,-2
6654,-1,-1,-2,0,-2,-2,0,-3
6654,-3,1,-1,-2,-2,-2,-2,2
6677,4,0,-1,-2,-1,2,0,4
6677,0,0,-1,1,2,1,3,3
6679,0,1,0,0,1,0,2,1
6679,3,2,1,1,1,1,0,0
6683,5,2,-1,0,0,-1,-1,-1
6683,3,1,0,-2,-1,1,0,-1
6692,-3,-1,-2,-1,-1,2,-1,0
6692,1,0,1,1,-1,3,0,-2
6705,-1,1,0,-2,-2,1,1,2
6705,-1,-1,1,-1,0,-1,-2,0
6722,1,-1,-1,0,-1,-2,-4,0
6722,1,1,-1,-2,1,2,0,0
6728,1,0,-1,-1,-1,0,-4,-2
6728,2,0,0,-1,-1,-1,-4,-1
6736,-2,-2,-1,-1,-3,-3,-2,0
6736,-3,-2,-3,-2,-4,-4,-3,-2
6743,3,-1,1,-2,-2,-3,-2,0
6743,-3,-3,-2,-1,-3,-1,-2,-3
6752,-2,-5,-2,1,-2,1,-5,-4
6752,-3,-3,-2,0,-2,-3,-1,-2
6765,-4,-1,-3,0,-1,0,-1,-2
6765,-3,-2,-1,0,-2,0,-1,-3
6774,-2,-1,0,-1,-2,0,1,-4
6774,-3,0,-1,-1,-2,-1,-1,-2
6788,0,0,0,-1,1,-1,-1,-1
6788,-2,-2,-4,-2,-2,-2,-2,-1
6797,-5,-3,-2,-2,-3,-2,0,-1
6797,3,0,0,-2,0,-2,-2,-1
6803,-2,-3,-2,2,1,-2,-4,0
6803,-1,-2,-2,0,-1,-1,-1,-1
6812,-3,-1,-1,-1,0,0,-2,1
6812,-3,-2,-4,-1,-2,-1,-2,1
6826,-2,0,-1,-2,-1,-1,0,0
6826,-3,-1,-1,-2,-1,-2,2,0
6834,-2,-1,-1,-2,0,0,-2,-1
6834,6,-2,0,0,0,1,2,1
6848,-2,-1,-2,-2,-4,-1,-1,-2
6848,-1,1,-1,-1,-2,-3,0,-2
6857,0,-1,0,-1,-2,-1,0,-2
6857,-4,-3,-1,-1,-1,-1,0,-2
6863,-2,-2,-3,-2,-1,0,1,0
6863,2,1,0,0,0,-1,-2,0
6871,2,0,-2,-1,-1,-1,-3,0
6871,-3,-1,-2,0,-2,-3,-4,-3
6886,-1,-2,-1,-1,-1,-1,-3,-1
6886,-3,-2,-2,-2,-2,-2,0,-1
6894,1,0,1,-1,0,0,4,-1
6894,-1,-1,0,0,-3,-1,0,-1
6908,-3,0,-2,-1,0,-1,0,-1
6908,-1,0,-1,0,1,-2,1,-1
6916,-2,-2,-1,-1,-1,-1,-1,0
6916,-2,-1,-1,0,0,0,2,-1
6923,-1,-1,-1,0,-4,-2,-2,-3
6923,-2,0,-1,-1,-2,-2,-1,1
6932,1,0,-1,0,-1,-1,0,-1
6932,-4,-2,0,-2,-1,1,-3,-2
6946,-1,0,-1,2,-1,1,-3,-2
6946,-3,-4,0,-1,0,1,-2,-2
6955,-5,-2,-1,-1,-1,0,1,-4
6955,2,0,-2,0,0,1,0,-2
6968,2,-1,1,0,-3,-2,0,-1
6968,-4,-1,-2,-1,-2,2,-1,-1
6976,0,-1,0,-2,1,0,-2,2
6976,0,0,0,-1,-2,0,-3,1
6983,-1,-1,0,-2,0,-1,-1,0
6983,2,-1,0,0,0,0,-3,-2
6992,3,0,0,-2,0,-4,0,0
6992,-5,0,-3,-1,-1,-1,1,-1
7005,-2,-2,0,-1,-1,-2,1,-3
7005,0,-3,-1,-1,-2,-2,-3,0
7015,0,-1,-3,-1,0,-1,-4,0
7015,-1,-1,-2,-1,-1,-2,-2,-1
7028,-1,-1,-1,-1,-1,-1,0,0
7028,-1,1,-2,-1,-2,0,-2,0
7045,0,0,-1,-2,-1,-1,-1,-2
7045,-2,0,-1,0,1,-1,0,0
7046,-1,-1,-2,-2,-1,0,0,-1
7046,0,-1,-2,-1,0,1,0,-1
7052,5,-1,-3,0,-1,0,-1,0
7052,-1,-3,-2,0,-2,0,0,0
7074,0,-2,-1,-1,0,-1,-1,-2
7074,-1,-1,-1,-2,-2,-2,-3,-2
7075,-5,-2,0,-1,-2,-1,-2,-2
7075,1,0,0,-3,0,-3,-1,-2
7096,4,0,-2,-1,-1,0,0,2
7096,-1,-1,-2,-2,-2,-1,-1,-1
7098,-3,0,-1,-1,-1,0,-1,-1
7098,-1,-1,-1,-2,-1,-2,-2,-2
7119,-4,-2,-1,0,0,-1,-1,-1
7119,2,1,-2,-1,-2,-1,2,1
7120,1,-2,0,0,-2,0,-1,1
7120,-3,-3,-2,0,0,1,-1,-2
7133,-3,-1,-1,0,1,0,0,-3
7133,-1,0,0,0,-2,-1,0,-2
7141,-5,-1,-2,-1,-3,-1,-1,-4
7141,-1,0,-2,-1,-1,0,-2,0
7157,-1,-2,-1,-1,-1,-1,-2,1
7157,-3,-3,0,-2,-1,-3,0,1
7158,-2,-1,-1,-2,-3,-1,1,0
7158,0,0,-1,-1,-2,0,1,0
7180,1,-1,-2,-3,-2,1,0,-2
7180,-1,-2,-1,-1,0,-1,-4,-3
7181,-2,-2,0,-2,-2,-3,0,-1
7181,-4,-1,0,-1,0,-2,1,0
7193,-1,0,0,-1,0,-1,-1,-3
7193,-2,0,-2,-1,1,2,2,1
7208,0,-2,-1,1,0,0,0,-1
7208,-2,0,-2,0,-2,1,-1,-2
7217,-3,-1,-2,1,0,-2,-3,-1
7217,1,0,-1,-2,-1,-3,-3,-1
7218,0,-1,-2,-1,-1,-1,-3,-3
7218,2,0,-1,-1,1,-2,0,0
7239,0,-2,-1,0,-3,-1,0,1
7239,0,1,-1,-1,0,-1,1,0
7241,-1,-3,-1,0,-3,-2,-1,2
7241,5,0,0,0,0,-2,-2,0
7253,1,0,-1,-1,-1,-2,-3,2
7253,0,0,-1,0,0,-2,-1,-1
7260,0,0,-1,0,0,-1,-1,-1
7260,-2,-2,-1,1,-1,1,-2,-2
7277,-1,-1,-1,0,0,1,0,-2
7277,-3,-1,-1,-1,-1,1,0,-2
7278,-3,1,-1,-2,-1,0,2,-1
7278,-2,-1,-2,-1,-2,0,1,1
7299,2,-1,1,-2,0,0,0,2
7299,-2,0,-1,-1,0,-1,-2,1
7301,-1,-2,-1,0,-1,-2,-2,2
7301,-4,-3,-1,-1,-2,-2,-3,-1
7313,0,0,-1,-3,-1,-2,-2,-2
7313,-1,-1,0,-2,-1,1,-1,-3
7321,2,0,-1,0,-3,-2,0,-3
7321,-1,-3,0,-1,-1,0,-1,-2
7338,-3,-3,-3,0,-1,-1,-1,-3
7338,-1,-1,0,-1,0,0,1,0
7339,-3,-2,-4,0,1,-1,-3,-2
7339,-2,-1,-1,-1,-1,0,-1,0
7359,-2,-2,-1,-2,1,-2,-1,-1
7359,-7,-4,-3,-2,-3,-3,-4,0
7360,6,2,-1,-1,0,1,2,1
7360,-2,0,0,-2,-1,0,0,-1
7373,-2,1,-3,0,0,0,-1,0
7373,-3,0,-2,-2,-1,1,0,-1
7381,-4,0,-1,-2,-1,2,1,-1
7381,-1,0,-1,0,0,0,0,-1
7397,0,-1,1,-2,-2,-2,-1,0
7397,2,-1,0,-1,0,-1,-1,-2
7398,-7,-4,-2,0,-1,-3,-1,-2
7398,5,0,-1,-2,-1,-2,1,-2
7418,-3,0,0,-1,-3,-1,-2,-5
7418,-1,-1,-1,1,-1,-2,0,1
7425,-3,-2,0,-2,-1,-1,-2,-2
7425,-2,-1,-1,-2,1,0,-5,2
7433,0,1,-2,-1,1,0,-1,0
7433,0,-1,-1,-1,-1,-1,0,-2
7442,0,0,-1,0,-2,-1,1,-2
7442,-3,-2,0,-1,-2,-2,0,-2
7456,1,0,-1,-1,-1,1,0,0
7456,0,-1,-1,-1,-2,0,-4,-2
7459,2,-1,-1,0,0,-1,-4,0
7459,-3,-1,-2,-2,-1,-1,-1,-2
7479,-3,-4,0,-1,-2,-1,0,0
7479,1,-1,0,0,-1,-1,1,0
7486,-1,0,-2,-2,-1,0,0,0
7486,0,-1,-1,1,-2,0,-1,-2
7493,-2,-2,-1,-3,-2,0,-2,-2
7493,1,-1,-2,-1,-1,-2,-1,-1
7508,1,-1,-1,-1,0,1,-1,-2
7508,-1,0,-1,0,0,-1,1,-1
7516,-4,-1,0,0,-1,-1,-1,-1
7516,1,0,0,-1,-1,-2,-1,-1
7518,-1,-2,-1,0,-1,-2,-3,0
7518,-5,-2,-2,-3,-1,0,0,-3
7539,-1,1,-1,-1,0,-3,2,0
7539,-2,-1,-2,-3,-2,0,0,-2
7540,-1,-2,-1,-2,-1,-1,-2,-4
7540,-1,-3,-1,-1,-2,0,-1,-2
7553,1,1,0,-1,-1,0,-1,-1
7553,1,0,0,1,0,0,-3,-1
7569,-2,0,-1,-3,-1,-2,-1,1
7569,0,0,-1,0,-1,-3,-1,0
7577,0,-4,-2,-1,-1,1,-1,0
7577,3,1,0,1,1,-2,1,1
7579,-3,-1,-1,-1,-1,-2,-1,0
7579,1,-1,-1,-1,-1,-2,0,3
7599,-3,-1,-1,-1,-1,-3,-2,0
7599,-3,-2,-1,-1,0,0,-2,0
7601,3,0,-1,1,0,-1,-2,0
7601,0,0,-2,0,-1,0,-3,0
7613,-1,-4,0,-2,0,0,0,-2
7613,-3,0,-2,-1,-1,0,0,0
7622,-2,-1,0,-2,-1,-1,0,-3
7622,-1,-1,-2,0,-3,1,0,-1
7636,-1,-2,-1,-1,-1,-1,-1,-2
7636,8,1,0,-2,0,-2,3,1
7638,-1,-1,-1,-2,-1,-2,2,1
7638,1,2,-2,-2,0,-2,-1,1
7659,-2,-2,-2,-1,0,0,-2,0
7659,-3,-2,-1,-2,-4,-1,-2,0
7661,-1,0,0,1,-2,0,0,0
7661,0,0,-2,3,-1,-3,0,-1
7673,0,0,-2,1,-3,-1,0,-1
7673,-4,-1,-1,-2,-2,-2,0,-2
7682,2,1,1,-3,0,-1,-1,-2
7682,-2,-2,1,-3,-1,0,-1,0
7697,-2,0,-2,-2,-2,-2,0,-1
7697,-3,-1,-1,-2,-1,-2,-4,-2
7703,-1,-3,-3,-2,-1,-1,-2,-1
7703,1,1,-1,-3,-1,-2,0,-1
7720,1,-1,-1,-1,-1,0,-3,-1
7720,-1,-3,-2,-1,-2,-1,-2,-2
7721,1,0,-2,-1,-1,0,1,-1
7721,-1,-1,0,-1,-1,0,0,0
7733,-1,-1,0,-2,0,1,-2,-1
7733,-2,-1,0,-1,0,-2,-2,-1
7742,-1,-1,0,-1,0,-3,-4,0
7742,-1,-2,-2,0,-1,-3,-2,-2
7756,0,-1,-1,-1,0,-2,2,-1
7756,-3,-1,-2,1,0,-1,0,1
7757,0,0,-1,0,-2,0,2,0
7757,-1,-1,-2,0,3,-1,0,1
7787,1,1,-2,0,0,0,-3,-1
7787,-1,-1,-3,0,0,1,0,-3
7788,-4,-2,0,-1,0,0,-2,-3
7788,-2,-3,0,-2,-3,-1,-3,-2
7801,0,0,-2,-1,-1,-3,0,-3
7801,-4,1,-2,-1,-1,0,-2,-1
7803,-1,-2,-2,0,-1,-1,0,1
7803,4,0,-2,-2,-2,-1,-1,-1
7817,-2,0,-2,-2,-2,0,0,0
7817,-1,-1,-2,-2,0,0,0,0
7818,-3,-1,-2,-2,-2,-2,-2,0
7818,1,0,-2,0,-1,-1,-2,-1
7839,0,0,-1,1,-3,-4,-1,-2
7839,0,-1,0,-2,-1,-2,-1,1
7847,-2,0,0,0,0,-2,-3,-2
7847,-3,-1,-3,-2,-1,-1,-2,-1
7861,-1,0,-1,-2,-2,-1,-1,-1
7861,2,-1,-1,0,-1,0,0,-1
7863,0,0,0,-2,-1,-2,1,-1
7863,-3,-3,1,-1,-5,0,3,-2
7876,5,-1,0,0,0,0,0,-1
7876,-6,-2,-1,-2,-1,1,-2,-3
7882,-3,0,-1,0,-1,-1,-4,-2
7882,0,-1,1,1,0,0,-3,-3
7899,-4,-2,-2,-1,-2,-1,-2,1
7899,-2,-1,0,-1,0,-2,0,0
7901,1,0,-2,-1,-2,0,1,0
7901,-1,-1,0,0,-2,-1,-1,-2
7922,-1,-1,-2,-2,0,0,-1,1
7922,3,-2,-1,-2,-2,0,-3,-1
7924,-3,-3,0,-1,0,0,-1,-1
7924,-1,0,0,-2,1,-1,-2,1
7936,4,1,0,1,0,-1,-2,0
7936,-3,-1,-1,-1,0,-2,-1,0
7950,-3,-3,-3,0,0,-1,-2,-2
7950,0,-1,-3,-2,-1,0,-1,-1
7960,-2,-2,0,0,0,-1,2,-2
7960,0,-1,0,0,-1,-2,-1,-3
7961,-1,0,-1,-1,-1,1,-1,-3
7961,-3,0,0,-2,1,-1,-2,-2
7981,-2,-1,1,-1,-2,-3,0,-1
7981,-2,-2,-1,0,-1,-1,-1,1
7983,2,-2,0,1,1,0,-2,0
7983,3,-3,-1,-1,-1,1,-2,1
7996,1,-2,0,-1,-2,0,-2,-1
7996,0,-2,-2,-1,-1,0,0,-2
8003,-1,0,-1,-2,-1,-2,-1,0
8003,-3,-1,-2,-1,0,-2,1,0
8019,-3,-1,-1,0,-1,-2,-1,-1
8019,3,1,0,1,-1,-1,-1,0
8021,1,-1,-2,-1,-1,-1,1,-1
8021,-1,-1,0,-2,-1,-3,-2,-3
8041,-2,-3,-1,-1,0,-1,-2,-1
8041,-2,-2,-1,-1,0,-1,-1,-1
8044,-2,-1,-2,-1,-1,1,-1,0
8044,2,0,0,1,0,0,0,1
8063,-1,-1,-1,-1,-3,-2,-1,2
8063,-2,-2,-1,-1,0,0,-3,3
8065,-1,-2,-1,-1,0,-1,0,-1
8065,-2,0,-1,-1,-2,-1,1,-2
8078,0,-3,-2,-1,0,0,-2,-3
8078,0,0,0,-1,-1,-1,0,-3
8081,-2,-1,1,-2,0,-1,-1,-1
8081,-1,-2,-3,-2,-2,-3,-1,-1
8101,-3,-1,0,-3,-2,0,1,-1
8101,-4,-1,-1,-1,-2,-1,0,-3
8103,0,-1,-1,0,-1,0,-1,0
8103,-3,-1,-2,0,-1,-3,-2,0
8115,0,0,-1,-1,-2,-1,-2,0
8115,1,0,-1,-2,-1,-3,-2,-2
8124,-4,-1,0,-1,-1,-2,1,0
8124,-1,0,-1,-1,-1,-2,-1,1
8139,-1,-1,-1,1,-2,-3,2,-2
8139,0,-3,-2,0,-1,-1,0,1
8140,1,0,-1,-1,-1,-1,-1,-1
8140,1,-1,-2,0,-2,1,-1,-2
8162,-4,1,-3,-2,0,1,-3,-1
8162,-6,-1,-1,-1,0,1,-1,0
8168,0,-1,-1,-1,-2,-2,0,-1
8168,-3,-3,0,-1,1,-1,-1,0
8175,-1,-1,0,1,1,0,1,-5
8175,1,-1,-2,-3,-1,0,3,0
8216,-1,-1,-1,-2,-1,0,-2,-2
8216,-2,-1,-2,-1,-2,-2,-2,1
8217,-2,-2,-2,-2,-1,-1,-2,0
8217,2,-2,-1,-2,0,0,-1,-1
8218,-3,-1,-1,-1,0,1,-1,-1
8218,-1,-1,-1,-2,-1,-1,-1,-3
8222,-1,0,-1,0,0,-2,0,1
8222,1,-2,-1,0,-1,0,-2,-1
8223,-4,-1,-1,-2,-2,-4,-2,0
8223,1,1,2,0,-1,0,0,1
8236,2,-1,-3,0,0,-1,-1,-1
8236,2,1,-1,-2,-1,1,0,0
8244,-1,-2,0,0,-3,-2,1,-1
8244,-1,-1,-1,-1,-1,-1,0,-2
8258,-4,-1,0,-2,1,-1,-3,-1
8258,-2,0,0,0,-1,-2,-1,-2
8266,1,-1,-3,-1,-1,-1,0,0
8266,1,0,-1,-1,2,0,-3,-3
8288,2,1,-3,-1,-1,-2,-2,0
8288,-1,-1,-2,-1,-1,-2,0,-3
8298,2,1,-3,-1,0,-1,0,0
8298,-4,1,-3,-1,-1,0,0,-2
8298,1,1,0,-1,-1,-1,2,2
8298,-1,0,-2,-1,0,0,-1,-4
8304,-2,-2,-1,-1,1,-2,2,0
8304,-3,-2,-1,-3,0,-4,-2,0
8319,-2,-1,0,-1,-1,0,-2,-4
8319,-4,-3,-2,-1,-2,-1,0,16
8320,2,2,1,-1,-2,2,-1,-16
8320,0,-3,-1,0,-1,0,-1,-2
8342,-4,-2,-2,-1,-1,-2,-3,-1
8342,0,1,0,-2,-1,-1,-4,-3
8343,-4,-1,-2,-2,-1,0,1,3
8343,0,1,-2,-1,-1,-2,1,2
8355,-3,1,1,-2,-2,-1,-1,3
8355,-1,-1,0,-1,-1,-1,0,-7
8371,0,-3,1,1,0,-2,-6,-1
8371,-1,1,0,1,-1,-1,2,0
8380,0,-1,-2,0,-2,-2,1,0
8380,2,0,-1,-2,-1,-3,-1,1
8381,-1,-1,-2,-1,-1,-1,-1,0
8381,-3,-1,-3,0,-1,0,-1,-5
8402,0,-1,1,0,-1,1,-3,-6
8402,-1,-2,0,-1,1,0,-2,-2
8404,-2,-2,-2,-2,-1,-2,-2,-2
8404,-3,-1,-1,-1,-3,-2,-3,1
8415,0,0,-1,-1,0,-1,4,3
8415,2,1,-2,-1,-1,-1,0,-3
8424,2,0,-1,-2,-2,1,0,-4
8424,-1,-1,0,-3,1,2,0,0
8439,1,-1,-1,-1,-1,0,-2,-2
8439,-2,-2,0,-3,0,0,-2,0
8440,-1,-1,-2,0,-1,-2,-3,5
8440,-1,-3,0,-2,-3,-3,1,3
8461,0,-1,0,0,0,-2,-1,2
8461,-1,-2,-1,-1,-3,-2,-1,-6
8462,2,-1,-1,0,0,-2,1,-4
8462,-3,-2,-1,-2,-1,0,-2,0
8475,-4,-2,-4,-1,-2,1,-1,-1
8475,0,0,-2,0,-1,0,-2,3
8485,-2,-1,-1,-1,-1,0,-1,-3
8485,-1,0,-1,1,-1,1,-1,-3
8507,-1,-4,0,-2,-1,1,-3,-1
8507,-1,-1,0,1,-1,-2,-3,-3
8508,-2,-2,-1,-1,-2,1,-3,-2
8508,-2,0,-1,0,-2,-1,-5,-18
8521,2,1,-2,0,-1,0,8,48
8521,-2,3,0,0,-2,-3,-2,-9
8529,-4,0,-3,-2,0,3,2,-29
8529,-1,-1,-2,0,-1,0,0,-7
8535,-3,0,-1,0,-1,2,-2,-10
8535,-3,-3,-2,-2,-1,-1,-1,6
8544,-2,-1,-1,0,-1,-3,0,7
8544,-1,-1,-1,-1,0,-2,-2,-3
8559,-2,-3,-1,-3,0,-3,-4,-16
8559,-2,-2,-3,-1,-1,-1,2,9
8561,0,-3,0,-2,0,-2,-3,-3
8561,0,-3,0,-2,-1,-1,-1,6
8581,-1,-1,0,0,0,0,-8,-14
8581,-4,-1,-1,1,-1,2,1,15
8589,2,1,0,-1,-1,-2,0,8
8589,2,0,0,-1,-1,0,7,9
8595,0,-1,-3,-1,-3,-1,1,-15
8595,-3,-1,-1,-2,-2,0,-3,-7
8604,-5,-3,-2,-1,-2,-1,-1,0
8604,-4,-2,-1,-1,0,0,-6,0
8619,-1,1,1,-3,-2,-1,-3,-23
8619,-3,-3,-4,1,0,0,2,3
8622,1,-2,-4,-1,-2,-3,2,21
8622,-3,-1,-15,-2,-1,-2,-3,8
8641,-2,1,11,3,2,1,6,-7
8641,3,-1,0,-1,-3,-2,-6,-16
8643,-3,0,-1,-1,0,-2,-1,5
8643,-3,0,-1,1,-2,0,-9,-34
8655,1,-3,-9,-3,-2,-3,2,83
8655,-6,0,1,-3,-3,-3,-3,-21
8664,5,2,3,0,-2,4,-1,-14
8664,6,1,4,0,-1,-2,2,2
8679,-4,-2,-3,-1,-2,-1,-5,-16
8679,5,1,-1,-1,-1,-3,-3,8
8681,-1,-1,6,0,0,0,7,29
8681,-1,-2,3,-2,-2,1,0,0
8702,5,0,-5,-1,-1,-1,-1,-17
8702,-1,-3,-8,-3,0,-1,-2,-2
8704,-6,-3,-1,-1,0,-5,-9,-12
8704,3,-1,-4,-2,-1,-3,6,32
8716,-5,1,5,1,1,0,-14,-61
8716,1,0,-6,-1,-1,2,14,17
8724,-1,1,-1,-1,0,2,0,36
8724,-2,-1,6,-1,0,-1,-7,-27
8740,11,3,-4,-1,-1,-1,4,10
8740,-1,0,7,-1,-1,-1,-10,-20
8741,-2,-4,0,-3,-4,-2,2,18
8741,-6,-2,0,-1,-3,-5,-8,-28
8770,-3,-2,0,-1,-1,0,5,12
8770,1,2,1,3,2,4,1,-25
8771,-3,0,0,-1,0,-3,-3,-3
8771,2,0,-7,-3,0,0,5,17
8784,-11,-9,-11,-2,-3,-3,6,19
8784,-7,-1,0,1,0,0,-1,-28
8785,-6,-4,-1,-6,-1,-3,-21,-88
8785,4,1,-2,7,2,2,13,56
8800,7,4,7,-5,-1,0,2,-26
8800,-3,-6,-8,-2,-4,-5,-4,-10
8801,6,-1,-4,1,-1,1,10,38
8801,-7,-3,3,-4,-4,-4,-16,-48
8822,-1,-1,-4,1,1,4,-14,-21
8822,3,1,4,-1,2,2,6,19
8824,-2,0,0,-2,-1,-1,1,26
8824,-5,-2,-8,3,2,1,-1,17
8844,-4,-4,-5,-7,-5,-4,-6,-17
8844,2,-2,-9,1,0,-2,9,45
8846,-5,4,31,30,14,0,-2,-45
8846,14,4,10,-15,-14,1,-1,-39
8859,-8,0,-1,-3,3,0,-1,-5
8859,5,0,3,-6,-4,-3,-1,-7
8861,-5,-3,-17,-9,-1,-2,-1,13
8861,0,5,4,7,4,2,2,-12
8882,3,1,6,2,0,-5,-5,-9
8882,-3,-4,-11,5,-1,-3,-5,7
8883,4,1,-4,-13,-12,-2,3,-20
8883,-6,-3,-2,7,3,-2,-6,-21
8904,3,-2,-2,11,10,-2,6,19
8904,-6,-4,-1,-20,-20,-5,-8,-89
8905,24,4,-3,0,3,1,2,49
8905,-8,-3,-1,1,-1,-4,-5,-5
8918,12,3,-2,21,19,-2,-8,-2
8918,4,3,9,4,-16,5,16,13
8926,-12,-6,-11,-13,-8,-1,-8,-33
8926,-7,-5,-5,-4,5,0,1,-4
8950,-1,-3,-13,-15,-10,-2,3,19
8950,-9,-5,3,13,16,-4,-17,-26
8951,-3,-4,-6,-4,-7,-3,-2,-1
8951,-1,0,0,-18,-13,-2,7,28
8965,-1,-3,-5,-6,-3,-6,-6,-3
8965,6,6,11,31,-2,2,6,28
8966,-11,-9,-25,-40,-7,3,3,-12
8966,1,-5,0,28,26,15,-9,1
8977,0,3,28,-19,-19,-13,5,9
8977,-7,-12,-44,-37,-16,-10,1,51
8987,19,6,19,-4,7,2,1,9
8987,10,5,-5,14,-16,0,6,17
9002,2,3,9,8,6,4,-9,-6
9002,1,3,-2,-2,26,16,6,-24
9003,-30,-8,0,-2,-14,-18,-21,-86
9003,25,-4,45,-3,5,0,19,117
9025,-17,33,30,26,5,-4,-11,-105
9025,-27,-41,-54,-85,-85,-24,-24,-82
9026,-1,-33,-61,24,41,2,9,61
9026,-6,2,32,19,-16,6,12,-29
9038,8,71,15,-6,-2,7,4,55
9038,10,-4,31,56,43,-1,-20,-22
9046,5,25,51,11,-21,5,-8,-19
9046,5,-22,-38,-19,12,4,42,96
9061,-13,-25,-14,11,-5,7,-15,-40
9061,-14,0,-24,-95,-29,-11,-17,-60
9063,-4,-8,-9,-9,6,-9,17,82
9063,-16,1,-24,-7,3,-8,-45,-118
9084,26,4,-18,25,7,25,57,24
9084,-5,16,11,14,13,-13,-6,2
9085,22,-5,27,50,24,-6,10,58
9085,-27,-32,-81,-71,-66,-5,0,-101
9098,25,-22,-35,-100,-25,2,-4,57
9098,-8,38,40,66,27,9,-8,-70
9106,1,12,-11,-4,-9,-9,-6,8
9106,-7,12,16,37,25,-8,-20,-30
9122,-18,-33,-15,28,-4,-8,-12,4
9122,1,-21,8,19,10,0,13,54
9130,-9,10,6,-5,-9,-4,-16,-47
9130,12,18,11,4,4,2,3,20
9144,-28,-11,9,12,17,3,-2,1
9144,30,3,4,-11,17,12,8,75
9146,-2,25,14,18,-14,6,0,-32
9146,-20,-26,12,-8,-2,-5,-10,-20
9158,-11,-47,-53,-35,-20,-9,11,-22
9158,21,11,15,48,15,-3,6,62
9174,-8,11,34,26,3,6,-12,-95
9174,29,46,6,-54,-41,-18,-5,19
9182,-16,-30,-6,3,18,-2,-12,-108
9182,-13,-33,-29,25,-7,6,1,17
9183,-3,-14,-1,0,-15,-9,-3,-101
9183,13,14,13,26,44,7,5,28
9211,12,9,4,12,4,36,15,36
9211,-4,-4,4,-13,-16,-32,-24,-14
9214,2,6,-12,-17,-7,2,4,82
9214,-9,7,16,11,-12,-14,-9,-52
9218,4,5,-10,5,-3,0,25,15
9218,3,-3,12,6,29,27,16,3
9227,7,5,-1,-6,0,-2,3,13
9227,-2,7,-20,-27,-26,-19,-43,-34
9241,-6,-34,-47,-10,-6,-24,0,20
9241,-14,-5,14,8,5,7,8,-25
9244,-1,8,47,29,29,7,-34,-23
9244,-7,-13,30,36,22,28,43,28
9280,5,17,7,2,-5,3,11,39
9280,-3,-16,-59,-37,-25,-11,-11,-23
9281,10,47,5,-1,-15,-18,2,-19
9281,0,-1,47,41,20,-1,-3,25
9281,-11,-22,-34,6,2,4,-12,-6
9281,2,19,-9,-24,-12,-3,-18,16
9287,-2,-16,-1,2,-4,11,12,-13
9287,4,1,-41,-39,-20,6,-2,-9
9302,10,18,34,7,2,2,3,18
9302,-10,-5,-54,-17,20,7,1,-14
9303,-3,-13,-33,-23,-19,-8,3,21
9303,-6,-7,80,55,-11,-44,-6,-13
9325,-12,-3,15,20,0,-19,-26,-21
9325,12,9,-19,-9,16,41,14,-2
9326,-3,-7,9,-17,15,6,15,-5
9326,-5,-14,-50,-4,15,39,20,3
9338,8,34,43,0,-18,-34,-26,-43
9338,-8,3,28,10,-19,-20,13,41
9346,-7,-19,-25,-4,4,15,-12,-17
9346,3,-2,-43,-22,11,3,6,37
9361,1,-18,17,-14,8,11,4,40
9361,4,7,21,20,1,-12,17,102
9363,2,4,-19,-21,-21,-16,-22,-42
9363,11,11,14,13,5,5,3,21
9385,-11,0,-8,-8,-7,-6,-20,-35
9385,3,0,25,16,-4,-8,-7,-96
9386,-5,-19,-12,-12,0,23,23,30
9386,1,-1,-16,-13,12,-11,5,22
9397,4,9,18,12,13,16,18,44
9397,-4,-6,7,-1,-11,-17,-12,-48
9407,-12,-2,-2,0,-16,-20,-38,-67
9407,1,-2,-12,0,3,19,5,50
9422,0,0,7,3,3,-12,6,-66
9422,-4,0,16,3,5,20,0,-19
9436,-5,-15,-14,-15,-13,-36,-7,6
9436,25,3,-25,-6,-17,-5,11,29
9443,-16,-13,0,-11,-4,-22,-31,-43
9443,10,22,3,13,15,20,8,-54
9452,8,-6,23,22,24,43,24,-125
9452,-19,-6,-3,5,-1,6,10,42
9457,7,4,-34,10,-1,-17,-19,47
9457,8,8,19,-1,10,-17,7,82
9467,0,-13,-15,-18,-29,-13,3,52
9467,-5,-4,-15,-5,6,15,-6,-80
9481,-15,-6,-14,-21,-3,13,-13,-55
9481,5,-16,2,3,6,-7,-24,-5
9490,11,5,1,7,-1,-28,22,100
9490,-5,-11,11,-1,7,23,-17,-17
9512,0,13,8,0,-7,14,23,14
9512,-5,-7,-11,2,-10,-14,18,26
9513,0,10,3,16,19,0,-26,17
9513,2,3,-3,-8,-3,-6,2,-53
9518,2,-2,0,-3,3,22,20,-10
9518,-2,8,12,-5,-1,-3,-7,-24
9533,-12,-14,-14,-10,-18,-11,4,-27
9533,-3,12,-4,-22,-18,-21,-20,-8
9541,14,3,24,25,17,6,14,37
9541,-13,-11,-28,-33,-7,10,0,-16
9547,1,-7,5,13,7,17,0,12
9547,0,-7,-18,-3,8,-8,-9,-26
9564,11,16,46,28,-10,-7,-4,1
9564,-10,8,-18,4,-10,3,-12,-17
9565,-1,1,-10,-23,1,-8,6,17
9565,-29,-26,-28,-8,4,-24,-4,-27
9577,30,2,47,46,15,7,3,7
9577,2,10,28,7,-36,6,3,12
9587,-5,-4,20,17,20,52,9,8
9587,-7,-3,-3,-9,-18,-56,-15,-9
9601,-24,-25,-58,-59,-20,-19,-17,-14
9601,5,-1,9,23,18,18,8,7
9607,3,1,-19,-11,13,3,12,3
9607,-9,-17,-18,-28,-22,21,1,-15
9624,0,12,-13,-9,-8,-52,-23,1
9624,3,2,-38,-41,-5,-1,10,0
9630,-1,9,40,26,12,7,3,-4
9630,6,5,40,60,33,25,-3,-9
9638,1,4,10,18,10,38,14,9
9638,5,4,-6,-17,-15,-14,-8,8
9647,-5,-9,-32,-38,-32,-41,-5,-1
9647,6,5,8,-1,-3,-19,-10,4
9661,-3,1,-10,-19,-12,4,2,-6
9661,-7,-14,-1,-2,11,4,-3,-4
9668,4,2,-5,6,6,15,1,6
9668,3,4,16,5,-7,-6,2,-2
9684,-5,-6,-16,-25,-7,-6,-7,-5
9684,-2,0,12,29,12,5,7,3
9686,2,-22,4,11,7,16,9,5
9686,12,10,25,27,8,12,-3,0
9706,-6,-5,-6,-1,0,12,-1,-1
9706,0,1,10,2,6,-23,-2,0
9708,-6,-1,-16,-13,-20,0,0,-6
9708,-7,-13,-18,-24,-30,-37,-11,-1
9721,0,0,-2,-9,17,34,3,2
9721,-2,-3,14,1,22,29,16,2
9727,1,6,6,34,-2,-33,-8,-4
9727,-3,3,-2,-11,-34,-46,-19,-7
9744,-2,0,2,7,-6,-4,-4,-1
9744,-1,-3,-9,-12,10,10,-2,-3
9746,6,7,-11,-13,12,25,16,2
9746,1,10,14,21,6,11,1,-1
9766,-8,-11,-8,-5,-12,-26,-4,-5
9766,-2,5,2,0,1,15,-9,-3
9769,-1,-3,-4,-10,5,0,0,1
9769,2,5,4,4,14,27,11,3
9780,-2,3,-3,-6,6,-2,5,0
9780,-4,-8,2,-2,-31,-39,-13,-6
9788,-1,-10,-1,8,-6,-25,-10,0
9788,2,-4,-10,-11,19,81,10,3
9804,-1,3,8,15,10,-32,-4,-1
9804,0,-2,10,-6,-7,11,13,1
9806,-7,-1,-14,7,-17,-19,-22,-5
9806,-5,-9,-7,-3,-7,-9,-1,-5
9826,1,-2,14,0,1,1,-4,-1
9826,2,-4,-4,-3,2,8,-4,-3
9827,3,5,2,-14,8,-5,-1,5
9827,1,2,1,0,9,34,16,3
9841,2,2,-7,-3,-22,-35,-2,4
9841,-2,-2,-7,-6,-23,-21,-11,-2
9848,1,0,10,14,17,17,-4,-3
9848,-1,3,3,13,17,24,11,0
9865,3,4,-1,2,11,22,0,2
9865,0,0,1,2,-4,-14,5,-1
9866,-3,0,-8,-20,-36,-45,-8,-3
9866,-4,-3,-7,-15,-2,-24,-23,-3
9887,-1,-2,-9,-3,17,18,11,1
9887,-5,-9,7,14,9,13,2,-2
9888,14,18,5,12,-14,-8,1,-1
9888,-1,-1,-2,-6,3,-4,3,-2
9909,-1,-2,-3,0,5,-3,2,2
9909,0,2,-3,0,-1,7,-1,-2
9910,-6,-6,0,-6,5,9,5,-2
9910,-1,-4,0,-5,-10,-27,-1,1
9924,0,-7,-2,0,-8,3,-5,-2
9924,-1,12,1,0,1,-5,-2,-3
9926,2,-5,-6,-6,-3,-2,-2,0
9926,0,0,5,-4,15,19,0,-2
9946,0,2,-3,3,6,12,6,5
9946,-11,-8,10,10,-30,-50,-14,-5
9948,0,8,-1,-11,6,11,-18,-1
9948,-3,-1,-6,-10,-4,-20,-3,-3
9961,7,-4,0,0,-13,7,-3,-8
9961,-5,-1,-2,4,15,17,7,3
9970,1,1,1,0,11,13,10,3
9970,-5,-5,-6,-10,-5,-5,-5,-4
9984,2,2,-1,-2,-7,-4,0,4
9984,5,1,4,3,2,7,3,1
9990,-4,-4,-2,-10,0,1,5,-3
9990,7,4,-16,-17,-10,-26,-5,1
7,-8,-4,13,23,0,-2,-7,-4
7,3,-3,-9,4,3,22,3,1
8,-6,-5,-2,-1,21,39,16,2
8,2,2,9,0,-17,-32,-19,-6
20,-6,0,-6,-22,-14,-39,-10,-4
20,-4,-10,-5,-6,-1,21,1,0
30,3,3,5,6,14,-17,2,-1
30,-3,-2,2,0,-19,6,7,1
44,-15,-4,-10,-14,-12,-10,-7,-6
44,6,-1,0,0,13,-1,-4,0
45,-2,-6,-7,-3,5,18,-1,-3
45,1,-2,3,7,20,14,15,4
67,-6,1,-10,-5,-10,-5,4,-2
67,7,-3,10,29,1,-18,-9,3
69,-4,-3,0,0,8,59,7,-6
69,0,-2,4,10,-7,-70,-21,-3
80,-1,-1,-1,-12,-15,6,-3,-4
80,-5,5,-18,-20,0,-5,-1,-2
89,-7,-3,2,8,-2,4,-1,1
89,8,-2,-1,3,6,25,2,2
104,3,0,2,-4,-9,-15,-8,-2
104,4,-1,-6,-16,-1,-8,0,2
105,-4,-3,2,12,-5,-13,-1,0
105,-3,-3,-2,-2,7,12,7,-2
127,4,-1,7,-4,3,3,-1,2
127,8,4,-6,-8,-9,1,7,3
128,6,-3,-1,10,-4,-34,-16,1
128,-6,-1,-5,2,-6,-4,0,-5
141,-3,4,6,11,13,9,2,-1
141,-3,-6,-10,-26,-5,-1,-1,-5
157,-3,4,1,-4,-9,-2,4,3
157,1,-5,-2,13,4,1,-2,-1
164,-8,1,1,-1,7,5,-4,-2
164,9,-2,1,-2,4,20,9,5
170,5,3,-13,-25,-23,-39,-13,-4
170,-2,0,7,17,3,7,2,-1
187,2,-2,-4,0,3,9,-1,0
187,-2,2,4,4,8,2,-1,1
188,0,-2,1,-1,1,21,2,-2
188,1,3,-2,-13,-8,-10,6,5
210,-4,-6,-15,-11,12,13,13,5
210,-4,5,7,17,-26,-36,-22,-9
211,-2,-1,1,4,-12,-28,-12,-8
211,-8,-6,-5,-8,9,12,-3,-5
231,1,-1,0,2,-1,4,8,0
231,-7,-2,3,-14,12,16,2,3
233,4,0,-7,1,3,6,12,1
233,-4,-1,-4,0,-5,-7,-4,-3
247,7,-2,1,2,0,4,-4,-2
247,-3,-2,3,8,-7,-12,0,-1
249,-1,2,-9,-13,-6,-4,-7,-1
249,-2,-2,9,9,13,17,16,4
270,4,-4,5,2,0,0,-13,-3
270,2,8,-10,3,-11,-14,-1,-1
271,-4,-8,-3,-5,6,1,-2,-1
271,2,0,2,-6,5,13,-2,0
282,8,6,-1,5,-7,-3,6,0
282,0,-3,-1,0,-4,-6,-9,0
298,-6,-3,1,0,3,-1,4,-2
298,1,-5,-6,-5,2,7,9,4
307,-5,3,-1,-3,1,11,5,1
307,-2,-4,1,9,4,-15,2,-1
308,0,0,1,1,-23,-12,-7,-4
308,-3,3,-4,-5,-21,-5,-3,-3
329,-5,-5,-8,-25,0,-3,2,-3
329,1,3,2,26,7,7,-6,0
330,-4,-2,12,10,12,15,6,-1
330,4,1,-6,2,0,-14,-9,-3
360,-4,-2,-3,-4,-9,-11,-7,-2
360,-3,-7,-11,-31,5,8,3,-3
361,0,0,6,20,12,0,0,2
361,0,8,1,3,-1,6,-1,-3
374,2,7,3,1,-18,0,-4,-1
374,-3,-5,0,-4,0,4,3,1
376,0,0,-5,-14,-25,-25,-5,-2
376,0,-4,-5,-5,2,-4,-5,0
380,2,5,1,1,14,-3,-7,1
380,1,1,15,17,6,13,12,1
397,-4,-1,-9,-9,7,9,-3,0
397,-7,-5,0,5,4,6,6,-1
404,9,0,1,8,1,-3,-4,1
404,3,-1,-1,-10,-1,-4,1,0
418,-9,0,3,6,-3,1,-2,3
418,-2,-2,-7,-5,0,-9,-5,-7
443,-14,-5,5,9,3,6,0,-6
443,1,-1,-7,-14,0,-7,-3,-1
444,2,-3,-10,-14,0,20,-3,0
444,0,-1,13,12,-2,-11,3,3
445,-2,4,-7,-5,-6,7,-1,-2
445,-5,-3,6,6,-2,-18,-11,-8
449,2,-1,-4,0,6,1,0,-1
449,1,1,-1,-5,-3,11,3,1
464,2,-4,-4,-6,-3,0,5,2
464,-8,0,4,2,6,7,1,0
466,-8,-3,-4,-14,-7,-5,4,-6
466,0,-2,-4,-2,-7,-14,-8,-1
486,1,-11,5,9,5,-1,-1,0
486,1,0,-8,-6,0,19,-2,-2
488,1,3,0,-9,-9,-40,0,-2
488,-5,-5,1,-8,-6,0,-8,-3
500,-3,-1,8,11,1,-7,1,-2
500,-4,-7,-17,-2,1,3,1,-1
510,4,1,8,9,7,25,6,3
510,3,1,-6,-5,0,-4,3,1
531,2,-3,-2,-4,-6,-3,-7,1
531,4,9,0,-9,-9,-4,-1,0
533,1,-2,-3,-3,-4,-5,1,1
533,-2,-5,-2,9,-1,0,-4,-2
547,-2,2,3,7,5,1,-2,-1
547,2,-1,-3,0,-2,6,5,1
548,-1,1,1,-5,-13,-20,-6,-3
548,1,3,4,-1,-2,-5,-8,-3
561,-3,-6,-7,-6,3,3,4,1
561,-1,1,1,6,2,14,6,1
569,9,-2,4,3,1,-6,-8,-2
569,1,-2,-6,0,10,17,9,5
584,2,1,-2,-4,-5,15,-3,0
584,-3,-4,0,-8,-13,-44,-9,-4
586,1,-3,-10,-15,3,16,-2,0
586,1,4,5,3,1,2,6,0
607,0,-1,-1,6,5,5,3,-1
607,0,-3,-7,-12,-4,1,-9,-4
609,-1,9,6,9,-7,-12,1,-1
609,0,2,-5,-1,-1,2,1,-1
621,3,2,-3,-14,2,-6,0,-3
621,-1,-2,6,12,-14,-17,1,0
630,-6,-5,-6,-2,-2,4,-3,-3
630,-4,-5,-3,-8,2,13,0,1
645,1,3,1,7,5,15,7,1
645,-4,-2,1,-3,4,-4,-7,-2
646,-3,-5,0,-1,-3,0,-2,-1
646,-2,-2,-9,-9,-6,-9,-1,0
674,-1,1,-1,8,-6,-16,-6,-2
674,-5,-3,-2,-4,1,-2,-2,-6
676,6,0,-1,-6,5,11,6,4
676,-1,-1,6,8,1,6,-1,-4
689,-4,-4,-6,3,3,-2,1,-2
689,1,4,3,-2,-5,-6,-8,-3
691,-1,-2,-3,2,8,14,2,0
691,-3,0,0,-9,-15,-48,-10,-1
703,-2,1,-1,-6,-12,-12,-3,-1
703,-1,-5,1,-1,11,15,2,-2
711,0,-2,0,7,2,0,1,0
711,7,2,-1,-3,-2,9,2,0
727,-11,-3,0,3,1,-2,1,0
727,2,-4,-2,-8,2,7,4,3
728,-2,-5,3,15,4,7,2,2
728,9,4,-5,-12,-5,2,-3,-6
749,-4,3,6,8,-12,-28,-9,-2
749,0,-2,0,2,10,29,0,-1
757,0,-1,-2,-9,-1,-20,0,-1
757,-6,-2,-4,1,-8,0,1,-1
771,6,1,-7,-24,-7,-4,-7,-2
771,-1,2,0,9,0,-1,7,2
774,-2,0,7,6,7,11,-4,-4
774,-7,-1,3,-3,3,-8,0,0
787,1,-4,-2,1,0,2,6,3
787,-3,-4,-2,3,-1,8,0,-1
793,0,5,-2,-3,-1,-17,-9,-3
793,-3,-2,4,-2,-2,3,3,-1
808,1,-1,-8,-2,-11,-14,-5,-3
808,7,1,1,-1,-4,-11,-7,1
816,-6,-3,-7,-12,0,9,4,0
816,-2,-1,-7,2,16,24,-3,-1
824,1,-1,14,9,-5,-4,2,0
824,-3,-2,-3,-2,-15,-19,-3,-3
830,-5,-5,-4,0,3,-1,-2,-3
830,1,-4,-2,2,6,6,3,1
854,0,-1,-3,0,11,13,6,0
854,-2,3,-4,-9,-6,6,-1,-4
855,-3,-1,3,3,-15,-31,-6,-1
855,-4,-4,-8,1,2,13,-5,-2
869,-2,0,-9,-13,0,-5,-5,-3
869,-2,-2,3,2,-3,-4,-2,-1
870,5,-4,1,-1,1,10,4,2
870,-4,0,3,6,-4,-8,-7,-3
884,-1,-1,0,0,1,6,2,-1
884,-2,-1,-3,0,2,0,5,1
890,0,2,-2,-4,-7,-10,-4,-3
890,-2,0,0,0,-3,-5,-1,-2
906,-1,-3,-4,-6,6,16,2,2
906,2,2,5,2,-3,-34,-4,1
908,-1,0,3,17,-4,6,1,2
908,-2,-5,-1,-5,-2,-4,-6,-4
928,-3,-1,-3,1,4,4,1,-2
928,-2,-5,-1,-9,-5,-2,-2,0
929,2,5,-9,-5,9,12,5,2
929,-2,1,1,-2,-4,-6,1,2
944,-4,0,2,-8,-20,-19,-7,-3
944,0,-2,-11,1,5,5,-2,4
951,-3,-7,-1,4,2,-5,-2,-2
951,2,7,-3,-2,9,12,4,-1
966,1,-3,10,9,7,24,-1,-4
966,1,0,1,-4,-13,-24,4,1
967,-3,-2,-1,1,8,17,6,1
967,1,1,1,-3,-1,0,-1,-2
996,5,-2,0,-6,-16,-18,-2,-1
996,-4,-1,-6,-3,1,-5,-8,-5
998,-2,0,4,8,3,7,1,-1
998,0,-4,-3,1,4,0,3,-1
1003,1,2,-3,-18,3,2,0,0
1003,0,2,-2,12,3,5,2,-1
1011,0,-1,4,-2,-3,1,1,-2
1011,-2,-2,3,0,4,29,4,1
1026,-1,-1,-4,4,-1,-31,-5,1
1026,-2,2,-5,-11,-18,-8,-2,-3
1027,-4,0,-1,-6,-1,-1,-7,-2
1027,-5,0,0,9,0,-3,-3,-3
1048,6,-7,-2,0,5,12,7,5
1048,-1,-1,5,1,12,24,1,-2
1049,1,1,0,-9,-6,-11,3,-1
1049,-2,-4,-13,1,-14,-25,-6,-1
1063,-7,-2,3,8,1,-6,-4,-1
1063,-1,0,-1,1,1,4,-3,-1
1071,2,2,-1,-5,4,17,-1,1
1071,2,-2,2,-2,5,-9,5,2
1086,-1,1,-8,-8,-16,-6,1,-2
1086,0,0,0,1,-1,3,-8,-3
1093,-4,-1,-9,-3,3,-24,0,-3
1093,-1,2,8,3,-6,9,0,-1
1117,-4,3,4,9,2,-10,-7,-5
1117,1,-1,-6,-6,0,5,3,2
1118,2,0,-6,-6,2,16,5,5
1118,-1,0,4,-2,-1,-11,-1,0
1122,-3,-1,-1,-5,-4,-1,0,-1
1122,-3,-3,1,4,-3,-4,-1,-3
1131,-3,-10,-3,1,8,13,0,-1
1131,5,3,1,-5,-22,-26,-6,-2
1154,-3,-4,-5,-2,11,20,4,2
1154,-1,1,-3,-8,1,-22,-15,-5
1154,-2,-3,-3,1,-11,0,3,-2
1154,-7,-5,1,8,4,3,-6,-1
1169,0,-2,2,1,3,4,0,-2
1169,-1,-2,-2,7,2,13,3,2
1169,0,0,0,-2,-1,-9,-2,-4
1169,1,0,-2,-4,1,-13,2,1
1184,0,0,-1,-2,-14,-16,-3,-3
1184,-4,-3,0,-5,4,14,4,-1
1192,-2,1,0,-1,4,6,1,0
1192,0,-1,-4,-6,-4,-8,-5,0
1206,-1,-4,3,8,0,8,1,-1
1206,0,-1,3,-1,-6,-11,-3,0
1206,-2,0,-4,-2,-7,-13,-11,-6
1206,-1,-2,-2,3,18,25,7,1
1229,1,2,-6,-16,-4,-1,-2,1
1229,-2,-3,-5,9,-22,-19,-2,-1
1230,1,0,0,0,-2,-11,-10,-1
1230,4,-3,-1,0,5,7,2,-2
1243,1,0,0,0,8,10,0,-3
1243,-1,1,4,-1,10,10,4,-1
1251,-5,0,-2,-4,-16,-21,-6,1
1251,3,-1,-3,-8,-5,-1,-2,0
1266,-1,1,-3,5,8,2,4,1
1266,-3,-2,0,3,4,12,-1,-1
1267,2,1,3,8,3,-22,-2,-1
1267,-2,1,2,-6,-10,-5,-9,-4
1289,-2,-2,-3,-9,-5,0,-3,-1
1289,-1,-3,2,-4,2,-1,-2,0
1289,-2,-2,-4,3,1,16,2,2
1289,-1,-2,-3,1,-2,1,0,-2
1304,-2,0,-4,-6,-7,-18,-8,-3
1304,2,0,1,1,-2,-2,2,-1
1311,-1,-2,2,0,1,5,6,-1
1311,-2,-1,-4,1,3,10,5,0
1326,-4,1,-1,3,-3,-12,-9,-4
1326,0,-2,-1,-5,3,7,4,-1
1327,-1,1,-1,-3,-6,0,-2,-3
1327,-3,-1,-6,-5,-7,-10,0,-1
1357,-1,-2,1,6,3,4,-2,-1
1357,-2,-1,-1,2,2,1,-1,-2
1357,-3,-3,-2,-2,2,7,0,-1
1357,1,1,2,-4,1,3,-3,-3
1362,3,2,-1,-13,-4,-7,-2,1
1362,0,-2,-2,12,1,-7,-5,-2
1371,1,0,-1,1,0,-1,-6,-3
1371,-2,-2,0,2,-1,-3,3,0
1386,1,-1,1,3,5,13,7,3
1386,0,1,0,-12,-1,2,-2,-2
1393,0,1,-4,-5,-6,-10,-2,-1
1393,-2,-2,1,2,-4,-11,-4,-2
1408,-1,-3,-2,3,4,3,1,-1
1408,0,1,1,-4,0,3,1,0
1409,0,0,0,1,1,14,1,1
1409,-2,0,-4,-14,-5,-8,-5,2
1423,-1,-1,-1,5,-6,-6,-5,-1
1423,-4,-4,4,6,2,-9,-3,-4
1431,-1,-2,-3,-3,0,5,4,-3
1431,-1,0,2,2,1,5,1,0
1447,0,-3,-3,-1,3,4,4,0
1447,1,1,-4,-8,-4,2,-3,-2
1454,0,-1,3,1,-4,-12,0,-1
1454,-2,-3,-2,0,-4,-2,0,-1
1469,1,-2,-1,1,-1,0,1,0
1469,0,1,-1,-4,0,-2,-3,-2
1469,1,2,0,0,4,8,1,2
1469,-1,-1,-1,1,0,6,-3,0
1482,-2,-2,-3,-5,-5,-14,-4,1
1482,-1,-1,2,2,0,8,4,1
1491,-2,-1,0,6,2,5,-2,-2
1491,-2,-1,-5,0,1,-8,-4,-1
1507,-1,0,3,4,1,7,3,2
1507,-1,0,-3,-8,-1,-12,2,1
1509,0,-1,0,-6,-11,-9,-4,1
1509,-1,-1,2,3,2,5,-2,-2
1528,-4,-3,-3,1,2,-4,-1,-1
1528,1,0,-3,-4,-3,-4,-2,-1
1528,-1,-1,-2,-5,-1,-2,-1,-3
1528,-2,-1,0,-1,-4,-7,-2,-2
1551,0,0,2,5,2,8,0,-2
1551,-4,-4,-8,-7,4,11,2,2
1552,-1,1,4,6,-5,-10,-6,-3
1552,0,0,2,3,-1,-3,1,-4
1567,-3,0,-1,-2,2,4,2,-2
1567,1,0,0,0,3,29,3,1
1568,0,-3,-4,-7,-2,-22,-2,0
1568,-1,-1,0,-3,3,0,-4,-1
1589,0,0,0,0,-10,-5,-9,-3
1589,-4,-2,-4,-1,-2,-5,-5,-2
1595,-1,-3,-4,-4,2,7,2,-1
1595,-1,1,0,2,2,6,3,1
1611,0,-1,3,1,7,4,4,0
1611,0,2,-8,-7,-7,-18,-4,-2
1619,1,-3,-1,-5,-9,-1,1,0
1619,-2,-1,-1,9,-2,-10,2,-3
1626,-2,-1,0,-1,-2,-12,3,-3
1626,0,-1,3,4,4,4,7,2
1626,-3,0,-3,-3,-2,10,-2,-1
1626,-1,0,0,-5,-4,-8,-8,-2
1650,0,-2,0,0,-5,-1,-5,2
1650,-1,-1,1,0,0,-9,-8,-1
1651,-1,0,-2,1,6,3,2,1
1651,-1,0,-1,-6,8,46,4,0
1670,-1,2,3,3,-8,-32,-7,-2
1670,-2,-3,-1,0,-7,-8,-3,-2
1671,-1,-1,-1,2,3,0,-4,-3
1671,0,-1,-1,1,0,-3,0,-1
1686,-2,-1,-3,0,4,12,3,0
1686,0,0,3,0,-1,1,0,-2
1688,0,1,-2,4,-3,1,-2,0
1688,-1,-3,-1,-6,-10,-6,-2,-2
1708,-4,-3,-4,-2,-4,-12,-3,-4
1708,-1,-2,-3,-3,-8,-27,-5,-3
1709,2,-2,1,0,20,47,4,1
1709,2,-3,-3,-12,-11,-18,4,-2
1739,2,0,-4,-1,-8,-12,-9,-2
1739,-6,-5,2,15,6,6,-2,-1
1740,-3,-1,1,0,-1,-11,2,-1
1740,-1,0,-3,2,3,15,-10,0
1745,-3,-3,-3,-8,-6,6,4,0
1745,0,1,-2,-5,5,16,4,1
1747,-2,0,1,3,2,-18,1,2
1747,-3,-4,0,-3,-8,-9,0,-1
1793,-3,-1,-5,-2,0,5,-6,-3
1793,-1,-6,-2,0,-3,-1,-2,-2
1794,2,8,1,-1,-7,-32,-2,-1
1794,2,1,-2,-2,-2,-9,1,3
1796,0,-1,0,-1,4,10,-3,-2
1796,-3,1,-1,0,10,41,6,-2
1807,1,-3,-2,-4,-8,-19,-1,-1
1807,-2,1,-1,1,-2,-2,9,-1
1809,0,2,0,-2,-6,-13,-8,-4
1809,-4,-4,-3,-7,-7,-26,-12,-1
1810,-4,-4,-2,-3,-3,8,-1,0
1810,-1,1,0,3,5,3,1,0
1829,0,-4,-4,-8,5,22,9,1
1829,3,8,6,4,2,7,1,-1
1829,-5,-3,-2,3,-4,-27,-7,-4
1829,2,-1,1,6,13,53,10,5
1851,-1,-2,-2,-1,-1,-39,1,1
1851,0,3,-2,-5,-17,-19,-7,-1
1851,-2,-3,-5,-2,7,23,0,-3
1851,-3,-2,-2,-1,-5,-20,-6,-5
1874,-1,-1,-1,2,4,11,-5,-3
1874,-2,0,1,1,1,4,3,-1
1875,0,3,-3,-7,-3,0,-1,-2
1875,-3,-8,-1,4,-3,-28,-7,-1
1888,-3,1,0,4,-5,2,-2,0
1888,0,-3,-1,1,-2,0,0,-1
1889,-1,-2,-1,-3,8,33,-3,-2
1889,6,2,-1,-8,-10,-17,2,7
1911,1,0,0,-4,1,0,3,1
1911,-2,-6,-3,1,0,-10,-1,-1
1919,-1,0,-4,-6,-8,4,-6,-2
1919,-6,0,-3,0,4,1,-4,-4
1927,-1,-2,2,8,5,38,6,1
1927,-4,-5,-6,-22,-21,-21,5,-4
1928,3,-2,0,1,1,12,-5,0
1928,1,-1,1,6,3,-31,-12,-5
1948,5,2,2,-12,-1,28,5,6
1948,0,0,0,4,-1,-23,4,-3
1950,-1,-1,0,-1,-5,-10,-1,0
1950,-4,0,-1,-4,4,10,-4,-4
1971,-3,1,-2,3,12,4,-4,-4
1971,0,1,2,0,4,10,-2,0
1971,2,-7,5,10,5,3,15,6
1971,3,1,0,1,-8,-4,0,-1
1986,-3,-4,-2,-2,-3,-15,-12,-3
1986,-1,2,-3,-6,-3,-6,-5,-3
1986,-3,-1,-3,2,1,6,-3,-4
1986,-1,-2,-3,-7,-6,11,3,1
2008,-1,-2,-1,2,-5,-18,-3,-3
2008,1,-1,-16,-1,-10,-1,-3,0
2010,-1,-3,-10,-18,-6,0,-2,-2
2010,-5,-4,-1,13,6,-3,2,0
2030,2,-30,12,16,-13,11,2,-5
2030,13,3,3,11,7,-18,-1,6
2039,-3,-1,-1,-3,-5,-9,-6,-4
2039,-3,6,-6,-4,1,0,-1,-1
2045,-6,-7,-12,-10,4,5,1,-4
2045,-3,-4,4,4,8,14,6,0
2053,-4,2,0,4,-3,-11,-3,0
2053,-6,-13,-1,-11,-3,-2,-1,-1
2077,1,8,-1,0,5,-4,-1,-7
2077,-1,-1,2,0,-2,1,-5,-4
2077,2,5,1,-4,-3,-9,0,5
2077,0,1,0,3,3,5,-2,-5
2091,3,8,-2,-3,-6,-6,2,5
2091,0,5,5,-5,-2,0,-3,-1
2092,-5,-8,-4,1,0,3,-2,-4
2092,2,1,2,-1,-1,2,-2,-4
2107,-1,5,-5,-2,-2,-10,-4,-19
2107,-1,-5,0,0,2,6,3,24
2109,2,0,3,0,-6,0,3,0
2109,-1,-1,-3,0,0,-2,-1,5
2130,3,6,4,0,-1,-8,-2,-27
2130,-1,-2,-1,-1,4,5,-1,19
2131,4,1,4,5,2,-4,0,0
2131,-1,2,-6,-9,-4,-2,-3,-2
2151,-5,-7,-3,1,4,3,4,11
2151,-9,-6,-4,1,4,2,-3,-25
2152,5,-1,-2,-3,-5,-5,-2,8
2152,-1,-1,0,0,-1,0,-3,-2
2166,-1,0,-1,-5,-4,-1,-2,0
2166,2,1,-1,-1,-3,1,0,-4
2166,-9,-2,-3,-5,-2,-2,-2,-4
2166,1,-3,-2,0,-1,-2,-5,-20
2188,5,7,10,-1,1,-1,9,40
2188,-3,0,-4,-6,-5,-2,1,-2
2189,-9,-4,10,10,6,2,-1,-6
2189,1,4,12,14,0,1,-1,-5
2211,-3,-2,-9,-8,-4,-5,-2,-8
2211,6,4,0,-4,0,-1,-3,5
2212,12,3,-4,1,7,0,1,0
2212,7,-9,-6,-6,-2,-1,4,5
2225,-6,0,1,3,6,1,0,-10
2225,-3,0,-26,0,-3,-1,-1,-10
2234,6,-5,11,-1,-12,-2,4,44
2234,-4,-2,1,2,-1,-1,4,32
2249,4,0,-2,-9,-1,1,2,0
2249,-4,3,13,3,4,2,-3,-24
2250,2,2,-3,-7,1,1,2,-12
2250,-3,-1,-2,-5,-3,2,0,-5
2271,-8,5,-12,-13,-7,-6,1,-3
2271,11,0,7,11,1,-5,1,4
2272,1,-16,3,1,-2,2,3,-1
2272,2,3,7,6,-2,1,-3,-25
2285,-2,-2,-3,3,0,-1,3,70
2285,0,-1,-10,-9,0,-2,-6,-18
2294,-7,-3,-9,-7,1,-4,-4,1
2294,-6,0,-11,-5,7,-2,-5,-35
2309,-23,-9,23,5,5,0,-9,-46
2309,16,1,-1,-13,-2,3,17,42
2309,-17,2,4,-8,-18,-9,-12,-51
2309,24,5,-15,12,16,-2,0,8
2331,2,4,0,9,7,3,2,1
2331,-8,3,17,-6,-3,2,-2,-11
2331,-7,1,-15,2,-7,0,-4,-28
2331,2,-15,5,-21,-22,-1,2,48
2346,3,-1,-7,3,-6,-4,-10,-35
2346,1,4,5,14,9,3,2,3
2354,-1,7,4,20,11,3,4,-3
2354,-5,-1,-23,-12,-11,-2,-2,4
2368,-1,-3,0,2,-4,2,-1,-38
2368,-1,-2,-2,-3,-4,-1,6,31
2370,-4,4,-2,17,10,-1,0,11
2370,-4,-12,-3,-12,-19,-5,-2,-9
2391,7,23,-1,1,1,-1,-1,-5
2391,-14,-9,7,20,3,-2,-10,-29
2392,-2,4,-25,-34,-8,-2,-1,-29
2392,-2,-5,6,6,5,4,4,28
2405,13,5,12,-11,-15,-10,-4,4
2405,7,-2,2,15,14,5,5,0
2413,-2,11,13,29,9,3,-3,-9
2413,-19,-7,-12,-16,18,-1,-6,-79
2428,6,-7,-5,11,-22,-1,7,51
2428,-10,-37,-56,-51,-23,-7,-5,-26
2430,16,14,16,1,0,0,3,21
2430,-4,13,15,8,-6,-2,0,-29
2451,-8,-4,-7,13,20,-1,-6,-22
2451,-4,-4,8,5,-1,1,-1,5
2452,-1,-7,-10,-19,-13,-3,-2,-6
2452,-4,-2,-7,-1,4,-6,-6,0
2465,15,1,-6,-8,-1,0,3,21
2465,2,4,25,8,-5,3,1,20
2474,-12,-10,-3,-4,3,-4,-10,-55
2474,2,7,6,10,2,-5,-2,-22
2488,4,-8,0,0,4,0,-3,-29
2488,-9,5,-5,-13,-9,-2,-7,-71
2488,0,-5,-5,-3,2,0,0,-7
2488,-6,-5,4,8,5,-4,-2,-20
2512,-22,-7,-19,-16,-11,-6,-10,-57
2512,-6,0,0,-3,-7,-1,3,-6
2512,6,-5,-16,6,15,-2,-4,13
2512,18,2,14,-22,-22,10,29,69
2525,-23,-10,-3,0,6,-10,-18,-17
2525,15,10,8,-3,2,5,6,-15
2534,-18,-4,-6,-3,-4,-5,-21,-84
2534,-8,-5,-6,8,7,7,11,46
2549,11,10,12,-3,4,2,15,52
2549,-10,-49,-10,8,10,-6,4,89
2550,13,15,-3,27,-5,3,9,6
2550,28,60,9,-38,-18,2,-1,19
2587,-24,5,18,-8,-5,-8,-46,-120
2587,10,10,-2,-4,1,9,32,91
2587,-22,-52,7,20,15,2,5,58
2587,-13,-25,-36,-4,11,-8,-4,1
2593,1,6,-4,27,-8,4,-1,-51
2593,-6,25,15,7,-3,-10,-29,-91
2601,29,23,14,5,3,-2,15,88
2601,14,-4,-40,-31,-22,0,7,0
2617,-8,-36,4,-31,-1,-5,9,30
2617,-8,28,58,54,24,3,-7,-52
2617,-10,-4,-19,14,-4,-2,-9,-51
2617,-21,-21,2,-15,-13,-9,-16,-57
2639,4,-2,-35,-11,-9,-2,14,-37
2639,23,8,-34,-9,2,3,0,24
2639,-7,-3,-46,-91,-20,-7,-3,-1
2639,-17,-7,36,67,19,-4,-19,-89
2662,9,4,35,44,5,4,6,103
2662,-13,2,-36,-11,4,5,-21,-107
2662,-4,3,39,-7,8,-6,-15,-78
2662,17,7,-44,6,-8,-2,0,-29
2669,4,-6,-25,-84,-17,-2,12,25
2669,0,-2,51,3,-4,-4,-2,34
2670,8,7,-8,20,5,10,7,39
2670,-14,-1,25,8,1,-2,-17,-80
2693,-8,-3,-27,4,1,-6,11,41
2693,-18,-16,-59,-34,-24,-19,-34,-87
2694,22,14,13,-4,2,23,28,2
2694,-10,-3,25,-7,-4,14,11,-50
2715,7,1,-3,3,2,-24,-3,-51
2715,-16,-12,24,15,-17,-17,-9,11
2715,-17,-9,63,39,-5,-16,-13,44
2715,14,3,-11,16,21,18,16,77
2728,31,19,-13,2,18,34,30,64
2728,1,4,-30,-24,3,6,8,0
2729,-3,-4,-35,-29,-21,-14,3,8
2729,-10,-17,7,-23,-13,-19,-4,111
2751,-11,-2,25,6,7,9,-10,-35
2751,13,7,-10,12,3,11,35,110
2758,5,9,1,-4,0,3,14,39
2758,-10,-24,-41,-31,-21,-11,-7,-20
2781,-7,-25,33,-11,-5,-20,-15,1
2781,4,19,20,43,5,5,-42,-86
2782,9,6,-8,-5,8,12,21,79
2782,2,7,-23,5,-6,-15,-8,-65
2789,-4,-15,-3,-7,-6,2,-1,-3
2789,2,4,5,10,0,4,19,12
2789,-7,1,22,17,3,1,-30,-117
2789,-4,6,19,19,9,3,-4,-18
2811,-3,4,-23,11,14,3,11,-27
2811,-7,-18,7,-21,1,-18,17,2
2811,-12,7,7,-5,-41,-23,-35,-103
2811,22,6,11,7,23,9,3,63
2834,-6,3,-45,15,25,11,-26,-128
2834,-14,-31,-10,-60,-32,2,12,-16
2835,17,21,47,61,30,0,7,6
2835,23,61,47,13,-3,0,5,16
2848,9,7,-9,8,8,4,-14,-49
2848,7,-1,-7,11,2,7,7,73
2849,-27,-43,-48,-47,-18,-1,-7,5
2849,0,-14,0,-7,6,8,26,26
2871,2,14,28,50,11,-5,4,-63
2871,14,11,11,-3,-1,-9,-31,10
2872,-10,-11,-28,-3,-16,-7,1,-37
2872,-8,-6,43,0,3,1,-10,5
2894,2,-7,-34,-55,-13,12,10,43
2894,-10,-5,-2,2,1,-7,-12,-50
2895,11,8,-6,-9,9,0,9,47
2895,-27,-45,-82,-58,-30,-14,-5,-8
2909,-14,-42,31,-3,-9,-1,17,52
2909,57,105,95,89,53,23,-8,2
2909,-6,-10,-7,-15,-8,7,-11,-81
2909,-4,-13,-39,-3,5,6,30,44
2931,-13,-3,8,-17,-19,-7,-30,-28
2931,-21,-36,-31,-30,-4,-4,26,-51
2933,12,11,14,4,10,6,-6,-33
2933,-13,-4,-4,-1,-10,-17,-20,-40
2961,-2,4,-27,7,2,-15,-8,25
2961,1,-9,-12,-9,-1,5,7,14
2963,7,0,37,20,6,1,13,49
2963,-15,-4,2,11,1,4,-34,-118
2968,16,14,10,22,20,2,10,73
2968,-7,-5,-2,4,-15,1,-3,28
2969,-6,-15,-32,-31,-18,-1,14,31
2969,7,12,10,15,20,-4,-2,5
2993,-7,7,25,15,-9,-4,-8,-72
2993,-11,-16,-19,11,11,-5,5,-9
2994,-3,2,-4,-41,-12,-3,-2,-3
2994,6,8,19,31,10,5,0,12
3015,12,6,-14,-22,-11,0,-7,20
3015,8,-16,-21,-21,-16,-15,2,23
3015,-9,0,0,17,19,1,-18,-40
3015,8,0,4,0,-2,1,1,-15
3036,-8,0,-12,-4,-7,4,11,62
3036,-16,-8,8,1,-24,-6,-17,-57
3038,12,4,-12,-25,-5,-1,-2,0
3038,-2,-6,-41,-34,-10,-3,-13,-26
3067,1,6,32,21,0,-3,27,12
3067,-7,-8,11,30,14,-1,-7,-22
3067,-5,-5,-12,1,-6,-8,-6,2
3067,-1,2,18,15,2,0,1,9
3074,9,5,12,7,-16,-1,-2,18
3074,-9,-8,-31,-51,-9,2,-11,-41
3075,4,-2,3,42,26,5,24,52
3075,8,5,10,-20,-6,-2,9,43
3097,-2,1,0,11,0,-6,-18,-17
3097,-5,-2,-1,-17,-6,-5,-15,-84
3097,-25,-12,-17,1,3,-1,-7,83
3097,14,9,14,23,11,17,11,24
3119,6,-1,-6,3,3,1,3,-27
3119,2,9,17,-19,-7,1,3,14
3120,-13,-16,-14,-1,0,-5,-9,-79
3120,-23,-8,5,12,-2,-4,-3,-47
3134,-44,-13,-14,-14,-4,-10,-33,-99
3134,85,29,5,10,0,21,62,104
3135,1,-7,-9,-24,-10,-10,-16,-72
3135,-7,-6,11,3,1,0,2,-17
3148,-1,-6,-25,-1,-1,0,-9,-29
3148,-29,-15,-18,6,5,-9,-10,19
3155,9,8,8,-4,-9,-2,-2,37
3155,-5,4,7,-5,1,8,-13,-51
3171,6,-3,-6,7,2,3,28,94
3171,-17,-9,-5,-6,2,-2,1,-3
3172,29,13,11,5,1,7,17,46
3172,-16,-13,-13,-13,-3,-14,-10,31
3194,1,10,13,0,4,12,-14,-79
3194,-8,-7,-5,-12,-5,-5,-2,14
3195,-11,-2,4,2,1,0,-13,-36
3195,8,3,2,9,1,-1,23,77
3216,24,5,5,-7,-2,1,4,39
3216,-15,-9,-5,-1,2,-1,-8,-18
3224,-6,-2,-6,-4,-3,-3,-7,-27
3224,6,5,3,5,-5,-2,1,-14
3231,2,-2,1,-7,-10,-1,11,7
3231,-17,-8,-15,-8,0,-3,-14,-29
3231,5,0,-5,3,0,1,4,-3
3231,3,1,2,-1,-3,0,-1,-10
3255,-4,-3,-4,-2,-2,2,0,1
3255,4,-1,-5,8,0,-4,-6,12
3255,0,-1,1,-6,-6,-2,3,5
3255,-1,-1,4,3,0,0,0,-3
3267,-1,0,-2,-7,-1,1,1,-9
3267,-4,-2,1,-2,0,-1,-9,-26
3276,1,0,2,2,4,2,9,31
3276,-4,-2,-2,-3,0,-1,-11,-31
3291,4,1,1,-1,4,2,7,53
3291,-4,-3,1,-3,1,0,-1,63
3292,-4,0,-1,0,2,-2,-2,-8
3292,0,-1,-1,-1,-1,-3,-3,3
3314,-7,-2,1,-2,-4,-5,0,-49
3314,-2,-1,-2,-3,-3,-5,-6,-83
3315,5,0,0,2,0,0,1,-62
3315,3,0,0,3,4,0,1,-35
3338,-3,-2,-3,0,1,-2,-6,-20
3338,-6,-2,-5,-2,-2,1,3,3
3339,-4,-2,-1,2,-7,0,-3,9
3339,-2,-2,-3,0,-4,0,-1,0
3351,0,0,-3,-3,-3,-1,2,65
3351,-3,-1,0,-3,-5,-2,-8,-42
3352,2,-2,0,1,-3,-4,11,58
3352,0,-1,0,1,-2,-1,-3,12
3374,-1,-2,-1,-2,-1,-3,0,-1
3374,0,-2,0,-1,1,0,-1,16
3375,-2,-1,-1,-1,0,2,-6,-16
3375,0,-1,-1,-2,0,-6,-5,2
3388,5,-1,0,-2,-2,0,-1,17
3388,0,0,0,-1,0,-2,-1,-6
3396,-1,-1,-2,-2,-1,0,1,-6
3396,3,1,-1,-1,-3,0,1,5
3411,-2,0,-2,0,-1,-2,-1,-12
3411,3,-2,0,-2,1,-1,2,10
3412,-2,1,-2,0,2,-2,-3,-11
3412,2,0,-2,-1,0,0,0,6
3434,-2,-2,0,-1,-1,-1,-3,-8
3434,2,-1,-1,-3,-1,0,-2,3
3434,-1,-2,-1,-2,0,-1,-1,3
3434,-1,0,0,-1,1,-2,-3,-16
3447,0,0,-1,-3,0,0,0,-5
3447,-3,-1,-2,-2,-1,-1,1,3
3456,-1,0,1,-2,-2,-4,-1,-10
3456,-2,-2,-1,0,0,0,0,4
3471,0,0,-1,-2,-2,-1,1,-1
3471,1,0,-1,-1,-1,0,1,2
3472,3,0,0,1,0,0,-1,-1
3472,0,1,0,-1,-4,-1,-1,1
3494,-1,0,0,1,-2,-1,-1,3
3494,-1,-2,-1,0,-2,-3,-2,-5
3495,0,-2,-2,-2,2,2,1,-5
3495,0,-1,-2,0,-1,-2,1,0
3524,-1,-1,-2,-1,-1,-4,-1,-6
3524,0,-1,-3,0,-1,-1,-2,0
3525,2,-3,-2,-1,-1,-2,-1,-1
3525,3,-1,0,-1,0,1,-2,1
3539,0,0,0,-2,-2,0,1,1
3539,-1,-1,-1,0,0,-1,-1,0
3539,-3,-1,-1,-1,-3,0,-2,-1
3539,-1,-1,0,-1,0,0,-1,-2
3554,0,-1,-1,0,-1,-3,0,-3
3554,-1,0,-2,-1,-1,-3,-1,2
3555,-1,0,-4,0,-3,-1,-3,-3
3555,-3,-2,-3,-1,-2,-1,-4,-1
3577,1,1,-1,-3,1,1,-2,0
3577,0,1,3,5,0,2,0,2
3577,1,-1,0,0,0,0,-2,0
3577,-1,-1,-1,-1,-2,0,-2,1
3591,-2,-3,-1,-2,0,0,-1,-2
3591,1,-2,-2,-4,-1,-1,-2,-3
3592,1,-2,0,0,-1,-2,-1,-2
3592,2,-1,0,0,-2,-1,-1,-1
3615,3,0,0,1,-4,-1,-2,0
3615,0,-1,-1,-1,-1,1,0,2
3616,0,-2,-1,-2,-1,1,0,0
3616,-1,-2,-2,-1,-1,-2,-1,1
3637,-3,-1,-2,-3,-2,-2,-2,0
3637,-2,-2,-1,-1,0,0,-2,0
3638,-3,-1,-1,0,0,-1,0,-2
3638,0,-1,0,-1,0,-1,0,0
3651,-1,0,-2,0,-3,-2,-2,-2
3651,-2,-1,-3,-3,-2,-1,0,-4
3651,-3,-2,-1,-1,-1,-1,1,-4
3651,-4,-1,1,0,0,-5,-1,-1
3674,-5,-3,-1,0,-1,-1,-2,-1
3674,3,-1,-2,-1,-2,-2,-3,1
3675,-3,0,-1,-1,-2,1,-3,2
3675,-3,-3,-1,-2,-3,2,0,-2
3697,-2,-2,0,-2,-2,2,0,-1
3697,0,0,-1,-3,0,1,1,-1
3697,-2,1,-1,-1,-1,-1,-1,-1
3697,-1,-1,-1,-1,-1,1,1,0
3711,-1,0,-1,0,-1,-1,-3,-2
3711,-2,-2,-3,0,-1,-1,-1,-2
3711,2,1,-1,-1,-1,-1,-2,-1
3711,2,0,-2,0,-2,-2,-2,-1
3734,2,-2,-1,-1,0,-1,-3,0
3734,0,-1,0,-1,-1,-3,-2,0
3735,-3,-2,-1,0,-1,-1,-2,-1
3735,-2,-1,-2,1,0,-1,0,-2
3757,-2,0,-1,-1,-1,-1,1,0
3757,-2,-1,-1,0,-1,0,1,0
3758,-3,-3,-2,-1,-2,-2,0,0
3758,3,0,0,-1,0,1,-1,-2
3770,2,-2,0,1,-1,-3,-2,-1
3770,-1,-2,-1,-1,-1,-2,0,-3
3780,1,-1,-1,0,-2,-1,-1,-3
3780,0,-1,-2,0,0,0,-3,-1
3794,0,-2,-3,-2,0,-1,-1,-3
3794,-2,-2,0,-2,-2,0,-2,-3
3795,-2,1,0,0,0,-2,-2,0
3795,-1,2,-2,0,-2,-1,-2,1
3816,-2,0,0,0,0,-1,0,0
3816,1,-1,0,-1,-4,-2,0,0
3818,0,-2,-2,-2,-2,-1,0,0
3818,-3,-2,-1,-3,-1,0,0,-1
3830,-1,-1,-2,-1,1,-2,-1,-1
3830,1,1,0,0,2,0,-2,1
3840,1,-1,0,1,-1,-1,-2,0
3840,-1,-1,-1,0,-1,0,0,-2
3854,1,-1,-2,-2,-3,0,0,0
3854,-5,-2,0,-1,-2,-1,0,0
3856,-1,-1,-1,0,-1,-2,1,-1
3856,-3,0,1,-2,-1,-3,-1,-1
3876,-1,0,-2,-1,0,-1,-1,-2
3876,0,0,0,1,0,-2,-1,-1
3877,0,-2,0,-1,2,-1,-2,0
3877,0,-1,-1,-1,-1,-1,0,-1
3891,0,-1,-1,-1,-1,0,-1,2
3891,-1,-1,-2,-2,-1,-2,1,2
3899,0,0,-1,-2,-3,-1,0,1
3899,1,0,0,1,-1,-2,0,0
3914,0,0,1,-2,-4,-2,-2,1
3914,-1,-1,-2,0,-3,-2,-1,-3
3915,-2,-3,-1,-1,-1,-1,-1,-2
3915,-2,0,-3,-1,0,0,-3,-3
3937,-1,-1,-1,-1,0,0,-1,-5
3937,-4,-2,-1,-1,-2,1,-3,-4
3938,-2,-1,-1,-2,-1,-1,2,-1
3938,-1,-1,-2,-1,0,0,-1,-2
3950,-1,-1,0,-1,-2,-1,0,-2
3950,0,-1,0,-1,0,-1,1,0
3959,0,-1,-3,0,0,0,-2,-3
3959,-3,1,-1,0,-2,0,0,0
3974,-3,-1,-2,1,0,-1,2,1
3974,2,-1,0,1,0,-1,0,0
3975,-2,0,-2,-1,-1,-4,-1,-2
3975,2,0,0,-1,-2,-2,-1,-1
3996,-2,-1,-1,0,-3,-1,-2,-1
3996,1,0,0,-2,-1,0,-1,-1
3998,2,-1,-3,-1,-2,0,0,0
3998,-1,-2,-1,-2,0,-2,-2,-2
4019,0,-1,-2,0,-1,-2,-1,1
4019,0,-1,-2,-1,-1,-1,-1,-1
4020,0,0,-1,-2,0,0,-2,-2
4020,-1,-2,-2,0,-1,-1,-1,-3
4035,3,1,-1,1,1,0,-2,-4
4035,-3,0,-1,0,-1,-1,-2,-1
4036,-1,-3,-2,0,-2,0,-2,0
4036,1,-2,-1,-1,-2,-1,-1,2
4057,-2,-2,0,0,1,1,-3,0
4057,-1,0,-6,-4,-3,-1,-3,0
4059,-1,0,1,-6,-1,0,0,0
4059,-2,1,8,10,0,0,1,-1
4070,-2,-1,-1,0,-1,0,-1,0
4070,-2,-2,-1,0,-2,-1,1,-1
4079,1,-1,-5,-3,0,-1,0,0
4079,7,0,-3,-4,-2,0,0,1
4094,0,-1,2,0,-2,-2,-1,-1
4094,-1,-2,0,0,-2,1,-1,-1
4100,-2,-1,1,-2,-3,-1,0,-2
4100,-3,-1,-2,-3,-2,-1,2,-2
4117,-2,-3,-3,0,-1,-1,1,0
4117,1,0,-1,-4,-2,0,-2,1
4118,-1,-1,0,1,-1,-1,-2,0
4118,-2,0,-2,-1,0,1,1,0
4140,-1,0,-3,-3,-2,-3,1,0
4140,-3,0,1,0,1,-1,-2,0
4141,0,0,2,2,-2,0,-2,-1
4141,-2,-2,-3,-2,-1,-2,-2,-3
4154,-2,-1,0,-3,1,-1,-2,-2
4154,-1,-2,0,1,1,-1,1,-2
4155,-2,-1,-1,1,0,-2,-1,-1
4155,-2,-2,-1,-1,-2,-2,-2,-2
4177,-1,-1,-2,-1,-3,1,0,-1
4177,0,1,-1,0,-2,-1,0,-2
4178,-1,0,-1,0,-1,-1,1,0
4178,2,0,-1,-1,-1,-1,0,0
4190,0,-1,0,-3,0,-2,3,0
4190,2,0,0,-1,-3,-1,-1,0
4199,0,-1,-2,-2,-2,-1,-1,-3
4199,-2,-4,-2,-2,-1,-1,-3,-1
4214,0,-1,-2,0,0,-1,-2,-2
4214,1,0,-3,0,-1,0,0,0
4220,0,-3,-2,1,-1,-1,1,-2
4220,-2,-2,-2,-1,-1,-2,-2,-1
4236,-1,-2,-2,-1,-1,-1,-1,-2
4236,-1,0,1,0,0,-1,-1,-1
4237,-3,1,0,0,1,-1,-3,-1
4237,-3,0,-3,-1,-1,-1,-2,0
4251,2,0,-1,0,0,0,-2,-1
4251,2,-1,1,0,0,-3,-2,-1
4259,-1,-2,0,-2,-3,-3,0,-1
4259,0,-1,-1,-2,-1,-1,2,-1
4274,-4,-2,-1,-1,-2,0,0,-2
4274,-2,-2,-1,-2,0,-2,2,1
4281,1,-1,0,0,-1,-2,0,1
4281,-3,-1,0,0,0,2,-1,0
4297,-3,1,-1,0,-1,-1,-1,-1
4297,-2,-3,-3,1,0,0,-3,-1
4304,-4,-2,-2,-2,0,-2,-3,0
4304,1,0,-1,-1,1,-1,-1,-1
4311,-2,0,-1,-2,1,0,-2,-2
4311,-1,-1,0,-2,-3,-1,0,-1
4320,-1,-1,-2,0,0,0,-1,0
4320,-2,-2,-6,-3,-3,0,-4,-2
4333,0,0,4,0,-2,-1,1,0
4333,1,0,0,-1,-2,-1,3,-1
4341,-1,-1,-4,-4,-2,2,0,-1
4341,-1,1,2,0,0,0,-2,0
4356,-1,-2,-1,-2,-1,-1,-3,2
4356,-2,-1,-1,0,-2,-2,-2,0
4358,-1,-2,-2,-4,0,0,1,-2
4358,-2,-1,0,2,-1,-2,0,-1
4370,-3,-1,-1,-1,-1,-4,-2,-1
4370,-1,-2,0,0,1,-1,-2,-3
4379,-1,-2,-1,0,1,1,-1,-2
4379,0,-1,-1,-1,-1,-1,1,-2
4393,-1,-2,1,-1,0,0,-1,1
4393,-2,0,-1,0,-2,-1,-1,-1
4396,0,-2,0,-1,-1,-1,-1,0
4396,-1,-2,0,-2,0,-1,-2,0
4424,-2,0,-3,-1,-2,-2,0,0
4424,-5,-3,-1,-3,-2,1,0,-3
4426,0,1,0,2,-1,-2,1,0
4426,0,0,1,-1,-1,-1,0,-2
4439,-1,-1,-3,-1,0,0,-2,-2
4439,-1,-3,-2,-3,-2,-2,-3,0
4447,1,0,0,-1,0,-2,-1,2
4447,-1,0,-1,0,0,0,1,-3
4462,-1,0,-1,0,0,-2,-3,0
4462,2,-1,-1,-2,-2,-1,-2,1
4463,-3,-2,-1,-1,-2,-1,-3,-3
4463,1,-2,-2,-1,-1,-1,-1,0
4476,1,-1,-1,-2,-2,2,0,-1
4476,-2,-1,-2,1,0,0,0,0
4483,1,0,0,0,-2,-1,1,-1
4483,-1,0,-1,-2,2,0,-1,-1
4507,2,-1,0,0,0,1,2,-2
4507,-2,-1,-1,1,0,-2,-1,0
4508,-3,-1,-1,-1,-1,-1,0,-2
4508,-2,-2,1,-1,-2,0,-1,2
4514,-2,-2,-1,0,-2,-3,-1,-1
4514,0,-2,-3,-2,-2,-1,-2,-3
4515,1,0,1,-1,1,-1,0,-2
4515,0,-2,-1,-1,-2,-1,-3,0
4537,-2,0,0,0,0,1,1,-2
4537,0,-1,0,-3,-1,-2,-2,0
4538,-1,-1,-3,0,-1,-4,0,-2
4538,-1,-1,0,-3,-1,-2,-1,0
4560,1,0,-1,0,-2,-1,-1,1
4560,-2,0,-2,0,-1,0,0,2
4561,-4,-1,-1,-2,-1,0,-1,-1
4561,4,1,-2,-2,-1,-1,0,0
4574,1,0,-1,-2,-2,-2,0,-1
4574,0,0,0,-2,-1,-2,1,-2
4581,1,-3,1,0,-1,-1,-2,-1
4581,-4,-2,-1,-1,-2,0,-2,-3
4597,-5,-2,-2,-1,-2,0,-2,-5
4597,2,0,0,1,1,-1,0,0
4598,-1,-1,-1,-2,-2,0,-1,1
4598,-1,-2,-2,-2,0,-3,-3,-2
4619,-2,-3,-1,-1,-1,-2,-2,-1
4619,-1,0,-1,0,-2,1,-1,-2
4620,0,0,-1,0,-1,-2,-1,-1
4620,-2,-1,-2,1,-2,0,-1,-3
4642,1,-1,-3,-2,-1,-1,-1,0
4642,-1,-1,-2,-4,-1,-1,-1,-2
4643,2,0,0,-1,0,-1,0,-2
4643,-2,-2,0,0,-3,1,0,1
4657,-2,-1,-2,0,-2,1,-1,-1
4657,0,1,-3,-1,-2,0,-3,-1
4659,-3,-2,-1,-2,-1,-1,-2,-1
4659,-3,-1,1,-2,-2,-5,-2,-3
4687,0,-1,0,-1,0,-3,0,2
4687,-2,-1,0,-3,0,-2,-1,-1
4689,1,0,-1,0,0,0,-1,0
4689,1,-1,-1,0,2,2,2,1
4694,2,-1,-1,0,1,0,-1,-1
4694,0,-1,-1,-1,-2,-1,2,-1
4701,-1,-1,-1,0,-2,-3,0,0
4701,-5,-2,-2,-1,-2,-2,-1,1
4716,1,0,-1,1,-2,-1,0,0
4716,-2,-2,0,1,-2,0,0,-2
4723,-1,-1,0,-2,0,-1,-1,-2
4723,-3,-1,-1,-2,-2,-1,-3,-3
4739,-1,-1,-2,0,-2,0,-2,-1
4739,0,-1,0,-1,-1,1,-1,-1
4740,-1,-1,-2,-2,-2,-2,-3,-1
4740,0,-2,0,-1,1,0,0,0
4753,4,1,0,-2,0,-3,1,1
4753,2,0,-1,-1,-1,-2,0,1
4761,-5,-1,0,-1,-1,2,-2,0
4761,-2,-3,-2,1,-1,0,-2,1
4777,-2,-2,-1,-1,0,-1,-2,0
4777,-2,-1,-1,0,0,-1,-2,0
4778,-1,-2,-2,-1,0,0,1,-1
4778,-5,0,-2,-1,-2,1,-1,-5
4799,0,1,1,-2,1,1,2,-3
4799,2,1,0,0,-1,0,1,-1
4801,-1,0,-1,-1,-2,0,-2,-1
4801,-2,0,-4,0,-1,-4,1,0
4813,-5,-1,-1,0,-2,-2,0,-1
4813,0,0,0,0,-1,-2,-1,0
4828,0,-1,-3,-1,0,0,-1,0
4828,1,-2,0,-2,0,1,-1,-1
4837,-4,-2,-3,-3,-1,-1,-2,0
4837,-2,-3,-4,-3,1,-3,-1,1
4838,1,2,0,0,0,-2,-1,1
4838,0,1,-1,0,-2,-1,-1,0
4859,-2,-2,0,-1,-2,-1,-1,1
4859,-1,-3,-1,-3,-1,0,-1,0
4861,-3,-3,-1,0,-2,0,2,-1
4861,1,-1,-1,-1,-1,0,1,-1
4872,1,1,-1,0,-2,-1,2,-3
4872,-2,-2,-2,-2,-2,-1,-1,-1
4882,1,-1,0,-1,-2,0,-2,0
4882,1,0,0,-2,0,-3,0,-3
4897,-4,0,-2,-1,-2,0,-4,1
4897,-5,-1,-1,1,0,-1,-3,0
4899,-3,-2,-3,-1,0,-2,-2,1
4899,1,0,-1,-1,-1,0,-2,-2
4919,2,1,-2,-1,-3,-1,-2,-2
4919,-1,-1,-2,-1,0,1,1,-2
4920,-2,0,0,-1,-1,-1,0,-1
4920,-2,-1,-1,0,1,0,-3,-1
4933,0,0,-2,-1,0,-2,-3,-4
4933,1,0,0,0,1,-1,-1,-1
4941,0,-2,-2,-2,-2,-2,-1,-1
4941,-1,-2,0,-2,-2,-2,-1,0
4957,-1,-2,-2,-2,-1,-2,-1,0
4957,4,-2,-1,1,-2,0,-2,0
4959,-1,-1,0,-1,0,-1,-1,3
4959,-1,-2,-2,0,-1,-1,0,2
4980,-1,-2,1,-1,0,1,-1,-1
4980,-1,-2,-1,-2,-1,-1,0,-4
4981,0,-2,-2,-2,-2,-3,-2,-3
4981,2,1,-2,-1,-3,0,-1,0
5010,-3,0,-1,-1,-1,-1,1,-1
5010,-1,0,0,-1,-2,-1,1,0
5011,0,0,-1,1,0,1,-2,-1
5011,0,-1,-2,-2,0,-2,-2,0
5017,-4,-3,-1,0,0,-2,-3,-2
5017,3,2,-1,-3,0,0,-3,0
5019,-2,-1,-2,-2,-2,-1,0,-1
5019,3,1,-1,-1,-1,-2,-1,-1
5039,3,0,0,0,-1,-1,1,0
5039,0,0,-1,-1,-2,-1,1,0
5040,-1,0,1,0,-1,1,1,-2
5040,-2,0,0,-1,-1,0,-3,-5
5053,-4,-3,-3,-1,-1,-1,-2,-2
5053,-1,0,0,0,-1,-3,-4,-2
5062,2,-2,-1,0,-2,0,-2,0
5062,-2,0,-1,-2,-2,-2,3,2
5077,-4,-2,-1,-1,-1,-1,1,-2
5077,1,-2,-2,-1,-1,0,-1,-2
5078,1,-1,-1,-2,0,0,-1,1
5078,-1,-2,0,0,1,-2,-2,-4
5099,0,-1,-1,-2,-1,-2,-2,-1
5099,-4,-2,-1,2,-2,-1,-3,-1
5101,-1,1,0,-1,-2,-1,-1,-1
5101,-1,-2,-2,0,-3,0,1,1
5112,4,1,-1,-2,-1,0,3,5
5112,-1,0,-2,-3,0,1,3,-6
5121,-1,-1,-1,2,0,-1,-2,-2
5121,1,-1,1,1,-1,0,1,2
5136,0,0,-1,0,-1,-1,-2,1
5136,-2,-2,-1,-1,-2,-1,2,0
5137,-1,-2,-2,-1,-2,-1,1,0
5137,5,0,-1,-1,-1,0,-1,-1
5159,-3,-3,0,0,0,-1,-3,-1
5159,-3,-1,-1,-1,0,-3,-4,-1
5161,-1,0,0,-2,0,-1,-3,0
5161,-6,-2,-1,-2,0,0,-5,0
5172,3,0,-2,0,-2,-1,-4,-3
5172,-3,-3,-1,-2,-2,-2,-1,-1
5182,-2,-2,-2,0,-3,-3,2,-1
5182,-2,0,-2,-3,-1,-3,0,0
5195,-2,-1,0,-1,-1,-1,1,-1
5195,-2,0,0,-1,-2,1,1,0
5202,-4,-2,-1,-1,-1,-2,-2,-1
5202,2,-1,-1,0,-2,-2,-4,-2
5227,-4,-2,0,0,-1,-1,-2,-2
5227,-1,0,-2,2,-2,0,-2,-1
5228,0,-1,-3,-2,-3,-2,-2,2
5228,0,0,-1,-1,0,0,1,1
5233,2,-1,-1,-3,-1,1,-3,-14
5233,0,0,0,-1,0,0,1,4
5242,-2,-1,0,-1,-1,-2,0,10
5242,-3,-1,-3,0,-1,-2,-1,6
5256,2,2,0,-1,-1,0,0,-5
5256,0,-2,0,-3,-3,-1,-2,-5
5263,-1,-1,0,-2,-2,-1,0,1
5263,0,-2,-2,-1,-1,-4,1,-7
5279,2,-2,-1,-1,1,0,1,11
5279,1,-1,0,0,1,-2,0,-7
5281,1,-2,-1,0,2,1,-3,-4
5281,-3,-2,0,-1,0,-1,-3,-3
5293,-3,-1,-1,0,-2,-2,-1,0
5293,-2,-1,-1,0,1,-4,-2,4
5302,-5,-1,-2,-3,0,1,0,-4
5302,2,0,-1,-2,0,1,0,-5
5316,1,-1,-3,-2,-3,-2,-1,12
5316,0,0,-1,-2,-2,0,0,-18
5318,-1,0,-2,0,-2,-1,0,-7
5318,-2,0,0,0,-2,0,0,-3
5340,-4,-1,-1,1,0,-2,-2,1
5340,-7,-2,-2,-1,-2,-2,-3,5
5341,2,1,1,-1,1,-1,-2,-2
5341,-2,-1,-1,-2,-1,0,-1,-5
5353,-1,-2,-3,-3,0,0,0,2
5353,0,-3,-1,0,-1,-3,-3,1
5362,-2,-2,0,0,-2,0,-1,-1
5362,-1,-1,1,0,0,-1,1,2
5376,-3,-1,0,-2,0,-2,0,-5
5376,-2,0,-1,-1,-2,-2,-2,1
5383,0,-2,-2,-1,-1,-3,-3,-1
5383,2,0,-1,-3,-2,0,-4,-4
5399,2,-1,-2,-3,-1,-3,-2,2
5399,1,2,0,-1,0,0,3,5
5401,0,1,-1,-1,0,-3,2,-5
5401,-6,-1,0,0,-1,-1,-1,-4
5422,1,-2,1,1,0,0,-3,-8
5422,-1,-3,-2,1,1,1,-3,4
5423,0,1,0,0,-1,1,1,-9
5423,-2,-2,-2,0,-2,-1,1,19
5437,1,0,-3,-1,-2,-1,-1,-5
5437,-3,-3,-2,-2,-3,-3,-4,-22
5438,3,1,-2,-2,-1,1,2,43
5438,1,-2,-3,-1,-1,0,-1,-4
5459,-2,0,0,0,-1,-1,1,-1
5459,0,-2,-1,0,0,-1,0,3
5460,-1,-2,-2,-1,-2,0,0,-10
5460,-2,-1,0,-2,1,0,-1,-5
5482,-1,-1,-1,-1,0,-1,-1,8
5482,2,1,-2,-2,-2,-2,-2,-5
5483,-4,0,-2,-1,-1,-2,-1,-9
5483,2,1,-2,-1,-1,-2,1,12
5496,-4,-3,-1,-1,-2,-4,-4,-12
5496,-3,-2,-1,-2,-1,-1,0,4
5498,3,-1,-1,1,-1,-1,-2,-1
5498,-2,0,-2,0,-3,-3,-5,-6
5519,-2,1,-2,0,-2,0,0,1
5519,1,0,-5,0,0,1,1,12
5520,-4,-1,6,0,0,1,-4,-44
5520,0,-2,2,-1,0,-2,2,20
5548,3,1,0,-2,-2,0,0,27
5548,0,0,1,0,0,0,-3,4
5559,-1,-1,-2,-2,-1,-1,-1,-3
5559,-2,-1,-1,1,1,-1,-5,-16
5559,1,1,-1,1,2,2,1,8
5559,-5,0,1,0,1,0,5,-3
5563,1,-3,-3,-1,-2,-2,0,7
5563,1,-1,-2,-2,-2,1,1,0
5579,-4,-3,-3,-1,-2,-1,0,-4
5579,2,-1,-3,-3,-4,-2,-4,0
5581,0,-1,-1,0,1,-3,-5,-7
5581,1,1,0,-2,-1,-2,-1,4
5601,-1,-1,-1,0,-1,-1,2,-21
5601,-2,-4,-1,-3,-4,-2,5,11
5603,-2,0,0,-1,-2,-2,-4,5
5603,-5,-1,-1,0,-1,1,-19,-49
5615,-4,2,7,2,-1,1,5,-9
5615,3,0,1,1,0,-1,-1,1
5622,-5,-5,-4,-4,-2,-1,4,23
5622,4,1,-5,1,-1,-4,3,-21
5639,0,3,20,2,-2,-2,1,13
5639,-7,-5,-2,-3,-2,-2,-6,-18
5641,4,-1,2,1,1,2,-1,33
5641,-1,-2,0,-3,0,-1,3,17
5662,-2,-2,-11,-3,-1,-2,-5,-38
5662,-3,-1,-4,0,0,-1,-4,21
5664,6,2,4,0,-3,-4,-9,-25
5664,-8,-3,1,-1,-2,-1,-2,-20
5692,9,-2,-12,-3,-1,1,16,32
5692,-2,4,16,5,2,1,-1,-22
5693,-5,-1,-1,-3,0,1,-3,-20
5693,7,0,-3,0,-4,-3,-13,-13
5700,-16,-7,-2,-5,-7,-15,-31,-63
5700,6,3,-2,4,4,11,27,105
5701,-2,1,-4,-1,0,4,9,-18
5701,11,4,4,1,-3,-1,-4,-26
5721,1,-3,-10,-3,-2,-3,1,-29
5721,-2,-5,-8,-3,-7,-10,-17,33
5728,0,0,-1,1,0,-2,-3,-1
5728,2,-5,-6,-2,-1,-2,11,86
5737,3,3,-1,-1,-1,2,-5,-65
5737,-2,1,-1,-2,1,2,-6,-63
5743,-1,-1,-3,-2,0,1,6,20
5743,-9,-6,0,-2,0,-2,-10,-54
5759,4,-2,-1,-1,1,0,-3,60
5759,-8,-4,-2,1,2,1,15,-49
5760,3,0,-7,-20,-14,-3,3,41
5760,-5,-2,-10,4,1,0,0,-17
5782,-2,0,0,-8,-3,-2,-6,-2
5782,4,-1,-2,14,3,0,8,46
5783,-11,-6,-5,0,-2,-2,-22,-86
5783,3,1,1,-3,-2,1,17,39
5797,-8,-1,-1,2,1,1,-6,5
5797,-6,-2,-3,-8,-6,-5,-16,-75
5804,9,3,2,4,6,-1,14,18
5804,-3,2,1,3,1,0,-3,-1
5819,-8,-6,-3,0,0,-1,5,16
5819,-3,-2,-11,1,-3,-3,-7,-33
5820,-1,3,16,-5,-4,1,-4,3
5820,-6,-5,-3,7,6,-3,-9,-43
5841,7,1,1,-1,0,6,24,76
5841,0,-3,-6,4,6,-4,-3,-3
5848,-4,-3,-10,-30,-43,-8,-3,-7
5848,-2,-3,-7,-28,-7,0,-2,34
5856,2,3,3,0,-2,2,-2,-39
5856,-2,2,1,-7,5,0,-4,-21
5863,-3,-1,2,29,16,0,-5,-14
5863,0,-1,4,9,-3,-2,1,-4
5879,0,-3,-3,-8,7,8,7,6
5879,2,-2,-2,3,-18,-2,2,3
5881,1,-2,-6,5,14,-9,7,35
5881,1,3,32,-21,-25,-5,-6,14
5901,0,-2,-31,-9,7,-2,-6,-7
5901,-5,-1,1,24,26,10,-7,-30
5904,-10,-2,26,-8,-16,4,1,29
5904,23,8,-39,-37,-3,10,34,84
5915,-5,-8,3,51,2,-3,-13,-8
5915,-10,-6,2,-85,-51,-41,-17,7
5924,3,-3,21,63,18,1,-2,-20
5924,-3,6,7,12,-2,3,-1,-2
5940,2,8,-7,37,13,12,3,-4
5940,-7,-20,-20,-45,9,12,9,17
5941,-11,-11,-2,38,5,-1,-10,-15
5941,-27,-33,-46,-28,21,-14,-17,-48
5962,24,51,62,20,-49,-3,6,11
5962,17,31,9,-26,12,1,-14,-78
5963,-6,-12,2,-34,-6,14,12,36
5963,-11,-7,-1,48,17,8,9,-24
5984,-29,-58,-19,-62,-32,-28,-12,-16
5984,-6,-31,-25,-14,-13,-37,-23,22
5991,1,-61,-28,-82,-15,1,-2,-35
5991,58,91,63,51,25,11,6,69
6000,-26,-68,-11,-7,22,18,-8,-71
6000,-60,-86,-13,108,1,6,16,53
6001,-12,58,-3,-26,7,-31,-50,-54
6001,50,-12,24,25,-12,12,30,98
6022,41,66,-2,-35,-9,-8,-2,-31
6022,119,124,112,76,50,31,23,41
6023,-29,-60,-41,11,-2,7,32,83
6023,-73,-76,-88,-92,-45,-20,-33,-105
6035,-36,23,20,-21,0,-1,-8,-35
6035,50,-20,-28,21,-18,4,10,1
6045,15,59,73,18,5,1,8,-15
6045,-18,-6,-24,-14,-7,-10,-21,-43
6059,-19,-100,-58,-44,-9,-12,-9,-33
6059,-24,-32,31,32,6,7,12,2
6061,34,95,35,53,33,14,-3,-2
6061,-12,-39,-27,28,-24,-6,13,43
6083,-13,-3,7,-44,-21,-6,-5,1
6083,53,99,65,27,29,14,6,38
6084,-2,2,-21,13,24,-1,-17,-23
6084,12,-1,-15,-35,-6,5,5,18
6096,-26,-2,57,69,39,11,10,46
6096,-7,3,-21,2,-24,-3,-3,-63
6110,-6,-15,11,-35,-22,-10,-2,-66
6110,0,22,-25,-5,25,0,-11,-4
6119,5,-13,-18,17,-6,-31,-8,3
6119,-31,-36,-12,-43,2,8,21,16
6133,-3,-10,-15,-16,-22,-6,0,-11
6133,-9,-19,6,20,9,13,4,5
6149,4,0,12,7,-1,8,-28,-88
6149,-40,-32,-70,-30,-3,-8,-12,32
6151,67,61,31,-7,-5,6,27,127
6151,-8,-3,35,-1,-13,-12,-12,-50
6156,-23,-26,-31,-4,10,0,-15,-76
6156,0,-9,-9,-8,9,16,17,-19
6172,-12,-25,-29,-2,-2,-3,-5,-99
6172,10,9,26,-12,-21,-3,28,-62
6187,-3,21,1,28,14,-9,-11,-35
6187,-21,-16,-16,-25,-9,-1,-16,-60
6188,-3,-37,-13,11,5,24,-6,-3
6188,-1,11,36,35,33,-10,-7,-2
6202,18,11,-15,-30,-34,-4,-1,53
6202,-19,-13,-12,-29,-25,-13,-22,-102
6203,7,-23,-7,11,17,10,33,20
6203,-39,-8,-4,23,7,-5,-23,-107
6215,86,48,40,-25,-33,9,55,127
6215,-6,1,18,24,46,5,-20,-35
6225,-82,-46,-33,-9,3,-16,-76,-128
6225,83,20,27,48,38,35,76,119
6239,-6,6,-5,-64,-50,-13,3,-99
6239,-22,-14,-5,-14,-11,-16,-23,-113
6245,32,-6,-13,-11,-11,-10,33,126
6245,-25,-4,0,-11,10,-12,-19,5
6269,16,12,15,33,13,22,14,-26
6269,-1,0,-8,2,0,6,0,-4
6271,-44,-11,-37,-11,-13,-20,-37,-50
6271,26,7,59,10,16,0,14,54
6284,-7,-2,0,2,-15,-5,-6,19
6284,-24,-13,-12,-17,-7,2,-21,72
6286,23,6,11,30,24,22,23,-50
6286,-9,5,-7,-22,-18,6,-12,-37
6298,-4,-4,-8,15,29,8,22,89
6298,-4,4,-6,-5,-14,-15,-3,20
6305,5,-27,-20,-5,-12,-20,-35,-84
6305,-1,12,4,-8,-10,-7,22,-38
6322,-5,-2,3,11,18,4,-16,-4
6322,3,0,-5,4,1,10,10,6
6323,1,-7,-1,-15,-6,4,25,48
6323,-11,1,-16,-9,-9,-10,-29,-65
6344,-11,-12,17,17,13,-17,-16,-35
6344,10,-6,5,-2,-5,-2,20,21
6345,3,7,14,-23,-18,6,10,16
6345,-28,-25,-23,-9,4,9,-27,-89
6367,6,-10,-28,1,4,-4,2,20
6367,44,54,52,25,7,-15,29,9
6369,-16,-25,17,11,3,2,-15,-55
6369,-16,-14,-35,-30,-25,-13,1,14
6382,-22,-26,-47,0,8,-11,-15,-39
6382,21,0,-8,-11,-4,6,-6,-14
6383,25,10,44,26,8,2,14,73
6383,-11,-11,-24,-10,-3,16,-3,37
6404,-26,-44,-64,-19,3,7,-1,45
6404,-14,-17,59,8,-11,-5,-3,67
6405,35,88,-34,-11,-7,-8,-5,-18
6405,-8,-50,-1,-1,8,4,-6,-63
6419,14,58,27,5,11,10,-1,-55
6419,2,-23,-16,1,-16,-2,8,-47
6425,3,-22,36,28,-11,-29,-11,-23
6425,-15,-8,-65,-41,-8,-12,-27,-9
6442,-10,-5,21,-1,9,14,15,18
6442,30,47,35,24,6,9,-3,-10
6447,-52,-93,-28,-4,5,6,19,2
6447,11,45,-11,-23,-25,-29,-12,-15
6464,24,40,60,38,6,-10,-15,-34
6464,-10,-29,-20,-8,5,7,-5,19
6470,5,-9,2,-6,0,2,10,-9
6470,-8,-9,-38,-8,-2,7,7,17
6478,-8,-20,-33,-27,-1,5,10,32
6478,-10,13,13,12,-3,-5,-6,5
6493,3,26,4,11,13,18,-1,-6
6493,3,-2,28,11,-6,0,5,23
6502,20,12,1,-1,-11,-8,0,16
6502,-11,-12,-18,-14,-11,-20,-11,-8
6503,-13,-17,-54,-34,-3,-7,-7,18
6503,16,-8,53,20,10,8,8,28
6524,-5,-11,0,12,-2,9,-2,-23
6524,-3,-8,-12,-4,-9,-6,-11,-3
6526,6,21,2,1,0,-12,-1,14
6526,10,16,22,9,7,16,-2,-7
6537,2,2,-7,13,14,5,4,11
6537,-16,-19,-25,-27,-2,-2,6,6
6547,3,4,-5,-2,-8,5,10,6
6547,4,4,4,3,-17,-26,-16,1
6561,-4,-10,11,15,15,-1,-3,2
6561,-6,2,-14,-10,-11,13,2,4
6563,1,-3,7,-1,3,-9,-2,1
6563,-1,3,4,10,3,-10,-4,0
6584,-5,-3,-4,-9,9,17,0,2
6584,0,3,-11,2,18,12,6,-6
6585,2,4,2,-6,-39,-30,-8,1
6585,-9,-16,-10,0,-10,-22,-12,-6
6598,8,15,13,5,8,3,5,1
6598,4,12,2,12,10,12,9,2
6615,-6,-5,-6,-10,11,18,-3,-2
6615,-2,2,3,10,0,4,1,3
6622,-3,-9,-5,-22,-22,-23,-2,-2
6622,-1,-6,-4,2,7,4,-3,1
6623,-1,0,-2,5,5,7,-2,2
6623,-1,2,11,0,6,4,2,-3
6644,0,-2,-2,5,3,9,3,6
6644,5,13,-4,-14,-19,-20,-5,2
6646,-2,-2,-2,9,9,-2,-10,-2
6646,2,2,6,1,-3,1,5,-3
6667,-4,-3,-2,-8,4,53,6,1
6667,-8,-15,-11,-2,-12,-68,6,0
6668,1,2,2,-5,-1,7,0,-2
6668,-2,6,6,3,6,-10,-15,-4
6681,-2,4,-5,-3,-11,-2,-10,-8
6681,-4,-8,-5,-5,1,5,-7,-4
6683,-2,-1,3,4,3,4,11,0
6683,-3,-14,-11,-8,-5,6,6,1
6704,7,23,18,26,6,-5,-4,1
6704,-5,-6,-2,-2,9,23,2,-4
6705,-1,-1,1,-3,-9,-21,-11,0
6705,-3,2,-1,-3,-8,-7,-3,-2
6717,-5,-11,-7,-4,9,3,0,2
6717,-1,-2,-3,-8,-3,-6,-2,-3
6734,0,4,-2,-1,0,6,9,1
6734,0,-2,-1,-2,6,4,0,-2
6749,-1,-5,-10,-21,-6,-5,-3,-2
6749,-1,-6,8,27,3,19,4,-1
6750,1,-4,-3,0,-21,-22,-11,-5
6750,1,3,7,8,-2,-11,-4,-2
6764,1,-5,-2,-2,7,-3,2,-2
6764,-3,-1,-9,-19,1,15,0,1
6766,-4,1,-1,-1,-2,4,3,-2
6766,-1,1,2,1,6,21,2,-2
6778,-2,-4,-1,-2,-14,-58,-10,-2
6778,0,-2,-7,-9,-7,-4,-9,-2
6787,2,1,-6,-9,9,16,7,2
6787,2,3,3,4,19,31,9,3
6808,0,-5,4,1,-16,-11,-3,-2
6808,-2,-1,3,-1,-17,-19,-7,-3
6811,0,0,-7,-13,-8,-21,-10,-1
6811,-3,-2,-5,-6,12,29,8,0
6825,-2,-2,5,24,7,-10,-2,-2
6825,-6,-13,-1,-1,0,3,1,-5
6826,6,1,-1,-4,-1,15,4,1
6826,-1,-2,5,-7,3,15,0,0
6837,3,-1,-3,1,-5,-34,3,2
6837,-8,1,0,-1,-1,2,1,1
6847,-2,3,7,1,2,6,-10,-6
6847,0,-2,-14,-5,-16,-33,-8,-3
6862,-2,0,0,-9,5,15,3,-5
6862,2,3,1,2,1,-4,-6,-1
6864,-4,-8,-4,-7,3,10,7,-1
6864,2,7,11,15,11,17,4,1
6884,-2,-4,-1,3,-9,-13,-3,-2
6884,3,0,-7,-4,-7,-6,-4,0
6886,2,3,4,4,12,13,-1,-1
6886,1,3,3,0,-1,-17,0,-3
6898,-4,-3,-5,-6,-2,16,-1,-1
6898,3,-5,-10,-9,-5,-8,4,1
6907,-12,-2,-2,-1,-5,-2,-5,-2
6907,5,5,-14,-31,-2,9,7,-1
6920,2,-3,25,28,19,16,0,5
6920,2,0,-9,-6,-5,-1,-3,-5
6927,1,1,1,1,-31,-38,-10,-1
6927,-8,2,2,-1,-6,-25,-25,-7
6945,-3,0,-11,-15,20,80,11,0
6945,7,-2,5,1,4,-32,1,7
6946,-6,-5,-4,4,4,12,6,0
6946,4,-2,-4,0,-8,-16,-7,-1
6958,2,0,-2,-3,-16,11,-4,-1
6958,-6,1,1,2,16,7,3,-1
6967,-6,-3,-10,-13,-1,4,9,0
6967,3,3,8,2,-8,-15,2,3
6981,-6,-7,-7,12,8,9,-1,-2
6981,-8,1,5,4,-4,-7,2,-5
6984,4,1,2,-2,-11,-17,-13,-2
6984,-8,-7,-3,1,8,9,5,0
7004,2,0,-9,-10,-2,-11,4,0
7004,-1,4,-2,-3,-10,4,-5,-1
7006,4,-2,-3,-3,8,-5,0,-1
7006,-8,-4,-4,6,10,25,9,0
7026,4,2,4,-1,-14,-24,-9,-3
7026,1,5,-6,1,-14,-17,-10,-3
7028,-4,-3,5,8,1,-3,4,-1
7028,1,0,-4,4,8,5,-2,0
7041,18,4,3,-6,8,12,9,5
7041,-14,-8,-14,-20,0,11,2,-3
7048,2,-1,11,10,-4,-1,-8,-4
7048,-6,7,8,12,-10,-32,-2,-7
7064,5,-2,-10,-12,-18,-32,-15,0
7064,-2,-2,-2,4,13,27,3,-2
7065,-1,0,-6,-1,20,27,11,5
7065,-2,-2,-10,-12,-29,-27,-2,3
7086,-9,0,10,10,-5,-17,-7,-6
7086,-1,-2,7,3,4,5,-9,-4
7087,-8,-7,-11,0,6,4,10,3
7087,6,5,12,0,2,10,-3,1
7109,10,5,-20,-8,-7,-6,3,1
7109,-12,-5,-1,-1,0,-3,-7,-4
7111,-1,1,5,0,9,19,-3,-3
7111,-2,-6,3,5,-4,7,2,0
7124,-8,-4,-3,-11,4,-28,-8,-3
7124,8,1,4,2,0,26,14,1
7131,1,0,-3,-1,-20,-31,-13,-3
7131,-7,-6,-5,-5,3,0,-5,-5
7155,-8,0,8,1,8,15,7,-4
7155,-6,1,-4,-1,-2,-6,-1,-1
7156,0,-1,2,-3,-6,-6,-1,0
7156,5,1,2,4,2,8,3,0
7161,-8,-2,-3,5,-1,-3,-2,-1
7161,-7,-2,9,5,12,23,7,3
7168,3,4,0,-7,-6,-21,-8,-1
7168,-2,1,-4,-1,-13,-16,3,-2
7192,-6,-4,-2,-14,-2,-6,-10,-3
7192,3,2,-7,8,1,-2,-4,0
7193,0,-2,7,8,10,15,7,3
7193,2,-5,-2,-3,3,-2,-5,-2
7206,1,-1,-11,-21,0,17,11,0
7206,2,-2,5,4,-18,-55,-12,-1
7208,0,7,-7,4,-6,-1,-13,-6
7208,-1,-4,3,3,1,6,8,-1
7221,-2,-7,1,1,-5,0,-2,1
7221,2,-3,-4,-8,8,18,5,1
7228,0,-1,-7,-8,8,17,0,-1
7228,-8,0,8,9,-12,-11,2,0
7245,-4,0,-2,2,-14,-16,-14,-4
7245,0,0,-3,-8,0,-4,-5,-2
7246,-3,-6,0,3,7,7,5,1
7246,4,4,-3,-2,9,12,-2,1
7266,1,2,1,-1,5,-3,-2,0
7266,0,-1,3,5,-24,-12,-2,2
7269,0,1,-6,-9,-3,-11,1,1
7269,2,-13,2,-3,11,17,5,1
7281,-8,5,4,29,-2,-10,1,1
7281,6,7,-1,2,6,-2,1,-3
7288,0,-1,0,0,-53,6,5,-2
7288,-2,-3,-5,-9,-33,-22,-6,-3
7304,-4,-8,-5,-6,-14,-1,-4,-3
7304,1,0,-1,-5,13,15,-3,-4
7306,-1,-3,-1,2,32,0,9,3
7306,0,5,6,1,29,13,7,3
7326,-2,-4,-11,4,-9,-22,-4,-3
7326,-3,-5,2,3,2,-11,-8,-4
7327,0,-3,-2,-6,14,1,-5,-3
7327,1,1,-4,-3,12,13,-2,0
7342,1,3,4,-2,21,35,6,3
7342,2,1,-1,-5,-19,-27,-2,0
7343,-5,-6,-13,-11,-4,-4,-9,-4
7343,-2,-9,3,8,2,-21,-8,-3
7364,-1,-1,7,9,6,12,6,-1
7364,-1,-1,-7,2,5,20,4,3
7365,1,-1,2,-1,-2,-7,4,1
7365,-1,1,-4,-5,-9,-10,-8,-2
7387,-1,1,1,-7,-7,-5,-1,-2
7387,0,-3,-4,-5,0,7,5,0
7388,-1,0,2,4,7,-1,-1,-1
7388,-3,-1,-4,0,-4,9,1,-1
7402,-1,-3,2,-4,-13,-18,-5,-3
7402,0,-2,2,-14,5,12,2,2
7404,3,10,4,13,2,-6,2,1
7404,-1,-3,3,14,-3,-3,-2,-1
7425,2,1,0,-2,-2,-9,-12,-5
7425,-3,-2,-3,-3,-6,1,1,0
7426,-1,-4,-1,-11,-7,-15,-2,-1
7426,0,2,-9,-9,3,24,4,-1
7447,0,1,12,7,3,-7,3,0
7447,-4,-5,-7,9,0,-1,-1,-3
7448,-4,-2,3,2,2,7,-4,-3
7448,0,0,-1,-2,-6,-15,-10,-1
7477,4,0,-9,-15,-1,3,2,3
7477,0,0,4,10,0,4,-1,-2
7478,1,0,3,3,12,27,7,2
7478,-1,1,0,2,-7,7,1,-2
7491,-2,-4,-1,-9,-11,-31,-7,-4
7491,-1,-1,-6,-7,-12,5,-3,-2
7500,-3,-2,-4,0,-2,-23,-2,-2
7500,0,-3,-3,-4,2,-4,-3,0
7514,-1,0,0,3,8,21,4,2
7514,1,0,-1,-1,7,7,6,2
7516,0,0,1,0,-3,3,-6,-3
7516,0,1,-3,-4,-6,-14,3,4
7521,-3,-2,-8,-5,-1,4,0,0
7521,-3,-1,0,-2,0,-5,-4,-1
7536,0,0,2,-7,-4,-1,-1,-3
7536,-1,1,3,11,16,37,7,-2
7545,-4,-5,0,-2,-5,-36,-1,-1
7545,-2,-4,-2,-8,-16,-10,-10,-1
7546,-1,-1,-5,1,-5,-5,-1,0
7546,-4,-2,-1,-2,0,-5,-4,-2
7567,-1,-2,-2,1,7,24,5,0
7567,1,-1,2,-8,5,2,1,-1
7568,3,6,-2,6,-2,-6,2,1
7568,-2,-5,-6,-3,-4,2,-1,0
7581,-3,-1,-1,7,-1,-6,-4,0
7581,-2,-1,3,4,-2,-12,-4,-4
7589,-3,-4,-4,-5,0,6,0,-1
7589,0,1,-5,-7,5,3,-1,0
7604,0,1,-1,-5,4,32,6,0
7604,-2,-1,-4,-3,-21,-49,-9,0
7606,-1,-3,-1,-2,-2,-4,-7,-3
7606,1,0,4,-3,5,-2,0,-3
7634,0,1,-9,-1,7,12,3,1
7634,1,3,9,5,9,21,7,0
7636,0,-3,-2,9,-4,-3,3,2
7636,-2,-1,-3,-4,-6,-14,-5,-2
7641,-1,-4,3,6,0,-1,-4,-3
7641,4,6,-3,-3,3,-3,-5,-1
7656,-2,-3,2,-4,-5,-5,-3,0
7656,-3,-1,1,2,-4,2,1,0
7665,-2,-1,0,-4,4,13,3,-1
7665,0,-1,0,6,-4,-2,4,1
7666,0,9,-4,-7,-17,-19,-6,-4
7666,1,-1,0,3,2,-14,-7,-1
7686,-2,-1,-5,-1,-4,-8,-4,-2
7686,-2,-2,-1,0,14,27,7,2
7710,-1,-2,2,5,16,26,9,2
7710,1,3,-3,-15,-20,-26,-10,-4
7711,-2,-1,-5,-6,-18,-22,-6,-3
7711,0,-4,7,17,7,-1,-5,-2
7713,-4,-7,1,-5,7,12,7,1
7713,3,5,-3,16,14,17,3,2
7724,0,1,5,-4,-7,-2,-5,0
7724,-1,-1,-6,-9,-14,-30,-4,-1
7725,-2,-6,-4,-5,-1,0,-5,-3
7725,-2,-2,0,-5,5,18,1,-2
7747,2,0,4,1,-14,-38,-4,2
7747,-4,-2,-5,-3,-1,8,-2,-2
7748,-3,0,-1,-8,3,1,-1,-1
7748,0,-2,1,-3,-4,-6,1,1
7777,-1,0,-1,6,9,19,9,-1
7777,-2,-3,1,13,5,5,-1,1
7778,1,-4,2,1,-5,-12,-9,-3
7778,-2,-1,-4,-5,5,10,2,0
7784,-1,-3,-4,-8,-7,-17,-1,1
7784,0,1,0,-4,-7,-4,-2,0
7785,-1,-2,-2,0,5,11,6,0
7785,-2,-5,-1,-2,-3,-12,-4,-1
7807,2,2,1,2,6,12,0,0
7807,-1,-1,-6,-11,-7,4,2,-3
7808,1,0,1,-3,-7,-28,1,1
7808,0,2,-4,-7,-3,-2,0,0
7820,-2,-4,6,19,18,17,4,-1
7820,-1,-1,0,-4,-12,-4,-9,-5
7830,1,0,-8,1,2,3,3,-1
7830,-3,0,5,6,-1,-8,-3,-2
7844,1,4,-4,-7,-7,-6,-4,0
7844,-3,-3,-2,-4,12,22,4,1
7846,1,0,3,8,12,20,5,3
7846,-1,2,-4,-5,-22,-36,-10,-3
7866,-3,-6,-9,-4,-12,-8,-5,-4
7866,1,-1,3,0,5,-6,-3,0
7869,-1,-2,-10,-5,0,6,0,-2
7869,0,2,8,2,10,19,9,4
7880,-1,-2,5,2,1,8,-2,-2
7880,1,9,-5,-1,-2,-7,0,0
7889,-2,0,2,-1,-6,-9,-3,-2
7889,-2,-3,-3,-2,0,7,1,-1
7912,1,0,1,-9,-6,-8,-5,-3
7912,-3,-3,0,-1,-2,-7,-3,0
7913,1,-2,-2,2,8,31,4,0
7913,0,2,-2,-4,-8,-33,0,-1
7927,-2,-4,-3,-3,-7,-7,-8,-3
7927,-1,0,0,-2,6,3,1,0
7928,-2,2,-9,-11,-13,-7,-4,-2
7928,2,-1,8,15,7,8,2,0
7939,-2,-1,2,10,9,10,3,1
7939,-1,-3,-3,-4,-7,-9,-2,-3
7949,-3,-2,9,-1,-9,-14,-5,0
7949,1,2,-14,-13,0,8,1,2
7964,0,2,-2,3,6,5,1,0
7964,-2,-1,2,3,-1,4,-1,0
7966,0,1,4,1,-2,-7,-3,1
7966,-1,-2,2,1,3,2,-3,0
8003,0,1,-1,-8,-7,-13,2,-2
8003,-2,-3,-1,-15,-14,-7,-5,-3
8004,-2,-1,-6,3,3,-7,-1,-2
8004,-2,-3,5,9,0,3,0,-3
8005,-3,-4,0,8,12,15,6,1
8005,1,3,1,2,4,11,1,2
8009,-2,-2,0,-4,-4,-7,-1,-1
8009,-1,-2,-5,-7,-12,-5,-3,-2
8032,0,-4,-1,-4,0,-3,0,0
8032,-1,0,-7,-4,-2,-7,0,-1
8033,1,-1,-1,10,2,1,-3,-2
8033,0,-2,1,10,2,4,0,-1
8055,-1,2,3,0,9,35,4,0
8055,0,-1,0,-6,3,-28,-8,-4
8056,-2,-3,-7,-5,-20,-11,-8,-3
8056,-6,-6,-7,-19,-18,-27,-12,-6
8060,-1,0,-3,9,5,10,-1,-1
8060,-2,-2,2,8,15,23,7,1
8070,2,1,4,4,9,1,0,0
8070,-1,-1,-1,-3,-4,8,-2,0
8084,1,0,-2,-10,-8,-13,-1,1
8084,-1,-3,-3,-2,-1,3,4,1
8090,-4,-2,0,1,-5,-9,-4,-2
8090,0,0,-2,3,4,6,1,1
8114,-1,1,-2,-6,0,6,-3,1
8114,0,1,-1,5,-13,-27,-5,-3
8115,-3,-2,3,3,1,8,-5,-4
8115,-3,-3,-1,1,7,4,-1,-3
8120,-2,0,-1,2,3,-5,1,1
8120,1,0,2,-4,1,15,-1,0
8129,1,2,-1,-6,-15,-8,1,1
8129,-1,-3,-2,-2,-1,-7,-2,-1
8144,-1,0,1,-7,-8,-14,-6,-4
8144,-2,-5,-14,-13,4,7,3,0
8145,2,2,14,9,5,2,1,1
8145,0,0,2,16,2,6,1,-2
8166,-3,-3,0,-1,-4,-5,-1,-2
8166,-1,-1,-3,2,5,13,1,1
8168,1,-1,0,-8,0,-6,-1,0
8168,2,2,-3,-9,-6,-6,-3,-2
8180,-3,-2,-3,-1,-3,-4,2,-1
8180,-3,-2,3,7,2,28,2,0
8189,-3,-1,-1,-3,0,-19,0,-2
8189,-1,-1,3,-2,-6,-10,-6,-1
8204,-1,-1,-7,-8,-5,-10,-4,-3
8204,-2,-1,-1,-1,5,7,3,2
8211,1,-1,-3,3,8,17,2,1
8211,0,0,-4,-7,-4,-3,0,-1
8227,-1,-1,0,-3,-4,-5,-3,-1
8227,-2,-1,4,8,-4,-8,-2,1
8228,-2,-3,-4,-1,-2,-2,-3,-2
8228,-1,-2,1,-8,7,18,4,1
8249,1,1,-4,4,-1,-8,-3,1
8249,0,2,12,9,-1,-2,-5,-4
8251,1,0,-9,-4,-6,-8,-6,-2
8251,-1,-2,-4,-1,-4,-7,2,0
8264,0,-2,-2,-4,2,8,1,2
8264,1,-2,-2,-2,4,-11,2,0
8266,-1,2,1,1,1,1,-1,-2
8266,-1,-2,-3,-5,-8,2,-3,0
8287,-2,-2,0,3,-2,-4,-3,-3
8287,-1,1,-3,0,1,0,-3,0
8289,-3,-2,0,0,4,12,-3,-3
8289,1,0,-5,-3,3,-4,2,1
8310,1,1,3,1,-2,8,-2,-2
8310,0,0,-6,-10,-9,-9,2,0
8311,0,-2,-6,5,3,-17,0,0
8311,-2,-2,-1,-1,-6,-1,-4,-3
8323,-2,-2,-2,1,-8,-15,-7,-2
8323,-3,-1,1,1,-2,-3,-4,-3
8332,0,-1,4,-5,4,14,4,1
8332,0,-1,-11,-9,8,12,4,2
8346,1,-1,2,4,-2,-6,-1,2
8346,-1,-2,0,-2,-4,1,-1,-1
8348,0,0,-7,-8,-1,6,0,0
8348,-1,-1,0,1,5,0,-3,-1
8369,-4,-4,2,6,-13,-17,-2,-1
8369,-1,0,0,3,-9,-12,-6,-1
8371,-2,-3,0,3,9,14,3,0
8371,-1,-2,1,2,6,4,4,0
8399,1,1,-3,-13,-2,-1,-3,-1
8399,-1,-1,-3,0,-3,-7,-1,0
8401,1,1,0,3,-9,-18,-2,-1
8401,-2,-5,-10,-14,1,9,-1,1
8414,1,3,8,4,7,-2,-3,-1
8414,-2,-5,-6,3,1,18,1,-1
8416,-1,-2,-5,-9,-11,-10,-4,-3
8416,-1,1,2,-2,-10,-22,-7,-3
8429,0,-1,-6,2,5,13,5,3
8429,1,0,7,6,15,28,6,2
8435,0,1,-1,-1,-4,-17,-4,-2
8435,-3,-2,4,3,-7,-1,-3,-3
8443,-1,-3,-7,-6,4,7,0,-1
8443,1,1,-3,-9,-12,-20,-8,-3
8450,0,-2,4,-3,2,7,3,-1
8450,0,-1,6,5,2,7,3,1
8467,1,9,-5,9,2,2,-1,-2
8467,-2,-5,-1,1,-3,-10,-3,-1
8468,-2,-2,2,2,0,2,-2,1
8468,0,2,-1,-2,0,-1,0,-1
8489,-3,-3,-2,-8,-5,-5,-3,-3
8489,1,0,-1,-3,-1,-8,0,-1
8491,-3,-1,-6,-1,0,-3,-3,-1
8491,-2,-2,3,5,3,6,-1,0
8503,-2,-3,-2,-5,-1,2,2,2
8503,0,0,0,0,-5,-8,-2,-2
8510,-2,-4,5,1,5,30,5,1
8510,-1,-1,-6,-3,-2,-27,-3,-2
8527,-1,-2,9,7,-2,9,-4,-2
8527,0,0,-6,-3,-10,-21,-10,-5
8540,1,-2,1,-4,1,4,7,4
8540,0,0,0,13,5,7,0,-1
8549,-1,-3,-2,-8,2,0,-2,-1
8549,-1,-1,-2,-5,6,18,2,1
8550,-1,0,0,2,-12,-21,-5,-6
8550,0,-1,0,-2,-5,-8,-4,-2
8564,-3,-2,-5,-9,-3,-9,1,-1
8564,0,-1,-1,-1,7,6,3,1
8570,0,2,-2,2,2,10,2,0
8570,1,1,1,3,-5,-10,-4,-2
8587,-1,-5,-4,0,-4,1,0,-2
8587,-1,0,3,4,-1,-4,1,-1
8588,-1,0,-3,-2,2,2,-2,-1
8588,-1,-1,-2,-6,-5,-3,0,-1
8609,1,1,-4,-3,0,-5,-3,-1
8609,-2,-1,-2,-1,-7,-10,-2,-1
8610,-3,-3,-4,-6,-4,-10,-6,-3
8610,-1,-3,8,8,14,33,8,3
8623,2,3,-2,-6,-12,-24,-8,-1
8623,-2,-1,-6,-3,-2,1,3,-1
8630,2,-2,-3,-3,8,2,3,0
8630,-1,1,1,5,-5,-4,-6,-1
8647,-3,-5,2,-6,-6,-3,2,-1
8647,-1,-2,-4,-4,3,4,-2,1
8649,-2,-1,0,1,-3,2,-2,0
8649,0,0,-1,-5,2,-3,0,0
8669,-1,-1,1,2,-1,-2,-1,0
8669,1,0,-1,-3,1,-1,-1,-1
8670,0,1,-4,-2,0,8,2,-1
8670,-3,0,2,-1,-5,-9,-1,-2
8692,-1,-1,1,2,-3,-5,-5,-3
8692,-2,-3,1,1,1,1,1,-2
8698,-1,0,-3,-4,0,1,0,0
8698,1,-1,-3,-4,-4,0,0,0
8706,1,0,-5,-4,5,8,2,2
8706,-1,1,2,0,-5,-3,-3,1
8708,0,-1,-1,2,-8,-14,-4,0
8708,-2,0,-5,-3,0,0,-1,-2
8729,-3,-2,0,2,5,11,5,0
8729,2,-1,-1,-4,1,-4,0,-2
8731,-2,-1,0,-1,-6,-7,-4,-3
8731,0,-2,1,2,-4,-5,-1,-3
8743,-1,0,-2,-1,0,0,-1,-2
8743,-2,-1,-2,-1,1,4,2,1
8769,3,-1,-1,2,0,1,-1,-2
8769,1,-1,-1,-1,-1,5,1,0
8770,0,1,-1,0,-1,-7,-5,-2
8770,-1,-1,0,-3,-3,-3,-3,-1
8780,-3,0,-2,-1,-4,-4,-1,0
8780,-1,-1,-3,-2,1,2,0,-2
8789,-2,-1,-1,2,0,4,2,1
8789,-1,-3,-1,0,2,2,0,0
8791,0,-1,0,0,2,-8,-6,-2
8791,-1,0,-1,-2,-3,-4,-4,-2
8812,-1,-1,-1,0,2,8,1,-2
8812,0,0,-2,-6,-4,-13,-4,-3
8813,-3,-3,-1,2,0,2,1,0
8813,-1,-1,-4,-6,-1,-5,0,-1
8827,-2,0,1,1,-4,-8,-2,0
8827,-1,-1,-1,1,7,19,3,0
8828,-1,1,-1,-2,0,-7,0,0
8828,-3,-1,-2,1,-4,0,-3,-2
8849,2,0,-3,-3,1,-4,-1,-2
8849,-2,0,-3,-5,-3,-4,-1,0
8850,-2,-2,1,5,8,21,1,0
8850,0,0,0,-3,-5,-9,-7,-3
8863,-1,-2,-1,-1,-8,-23,1,-1
8863,0,-1,-1,-3,-7,-11,-6,-3
8872,-1,0,-3,-4,2,8,-1,-1
8872,0,-1,0,2,10,7,3,4
8887,-1,-1,2,5,-6,5,-1,-1
8887,-2,0,-1,0,-3,-7,-3,-3
8889,-4,-2,-1,0,-2,-9,-2,-2
8889,-1,-2,-1,-1,2,8,1,2
8909,-2,-1,-3,-2,4,5,-2,0
8909,-2,-1,0,3,7,33,4,2
8911,1,-1,0,-5,-7,-33,-2,1
8911,-1,-1,0,1,-8,-6,-2,-2
8931,-2,-2,-2,-1,1,5,2,-1
8931,0,1,0,0,-2,-3,1,0
8934,1,0,-3,-1,6,15,2,-1
8934,1,0,-2,2,-2,-8,0,-2
8946,-1,-1,-1,1,1,8,1,1
8946,1,0,-2,0,-4,-21,-2,-2
8949,-1,-1,-6,-6,10,41,6,-1
8949,0,1,6,2,-2,-39,-3,-1
8969,-1,-1,-3,-2,-13,2,-5,-2
8969,-2,-2,-1,-3,-3,-13,-6,-1
8970,-2,0,-1,0,-5,-8,-3,-2
8970,-2,-1,-2,-2,10,26,3,-1
8982,-1,0,0,-2,12,25,5,1
8982,-1,0,2,1,-9,-9,1,0
8992,-2,0,2,0,-15,-55,-6,0
8992,0,-3,-4,-1,-1,5,-7,1
9014,0,-1,0,-2,2,-8,-1,-1
9014,1,-1,-4,-3,3,18,2,1
9016,0,1,3,7,9,8,6,-1
9016,-2,-1,-2,-1,-17,-14,-4,-3
9029,-2,-2,-1,-3,-1,-14,-6,-1
9029,2,1,-1,-1,7,34,3,1
9037,-2,-2,0,0,-7,-30,-3,-2
9037,1,-1,-3,-1,0,1,-5,0
9042,0,-1,-3,-2,6,27,4,-1
9042,-3,-1,1,2,1,-23,1,-3
9067,1,-1,-1,1,5,19,-1,-1
9067,-1,-1,0,-1,-13,-6,4,-1
9067,1,0,-2,-7,-14,-24,-10,-3
9067,-5,-4,-3,18,29,13,-1,2
9073,0,2,3,-3,-14,0,5,-1
9073,-4,-2,-4,-6,11,21,-3,-3
9089,1,1,-1,-2,7,7,10,5
9089,2,7,8,5,-18,-29,-5,-6
9091,0,-6,-7,-4,-7,-12,-17,3
9091,-6,-3,1,3,3,0,4,0
9102,-2,-1,-3,-5,-3,1,1,-3
9102,-6,-2,0,2,18,19,2,-2
9112,-3,-1,-1,1,8,29,5,-3
9112,1,1,0,-6,-10,-13,2,1
9133,1,1,1,1,-10,-27,-7,2
9133,-6,-8,-14,-7,-12,-11,-11,-5
9136,3,5,33,2,3,0,-1,-1
9136,-1,2,-1,1,15,27,2,0
9148,4,13,8,22,17,31,12,2
9148,-1,-22,8,5,-21,-23,0,1
9165,1,1,-12,-4,-7,-12,-5,-3
9165,-1,-1,-4,-1,6,2,-6,0
9166,-2,-1,1,-4,2,-12,-4,-4
9166,1,5,-6,-10,-5,26,4,2
9172,-4,-4,-9,1,4,-2,-2,-1
9172,-4,-2,0,2,-7,-34,2,0
9186,-3,-5,-8,-5,0,-4,-4,-2
9186,4,4,-3,-6,2,19,2,3
9193,2,-3,-4,0,-4,-9,1,-2
9193,3,3,0,-2,-2,3,0,0
9209,-4,-4,-1,-4,0,30,3,-1
9209,1,2,0,-2,-9,-50,-6,-1
9211,-5,0,-4,-5,-8,5,1,-4
9211,4,-1,-6,-4,0,-6,-8,-8
9232,3,-3,9,15,4,16,4,6
9232,-1,0,-2,-2,2,-5,4,-1
9233,-9,-5,-6,-2,-2,-7,-10,-6
9233,8,4,0,-4,-2,9,0,3
9246,-2,1,-2,-7,-10,-17,-6,-6
9246,3,2,0,0,6,23,1,-1
9253,-4,-2,-2,0,-3,-16,2,-5
9253,-6,-4,-1,0,-2,7,-2,-1
9269,0,1,15,-3,1,-18,-4,0
9269,-6,0,5,0,1,-3,-2,-3
9271,0,0,-6,-1,17,50,6,4
9271,-1,-2,6,6,-19,-42,-1,1
9292,-3,-6,-9,-12,-18,-21,-11,-2
9292,-5,-3,-4,-6,2,2,-7,-6
9293,-1,0,2,1,5,2,-1,-2
9293,0,-1,-12,-7,10,19,5,0
9322,-1,-1,1,8,4,0,4,-2
9322,0,-2,-1,1,-6,-6,0,5
9323,0,-1,-1,1,-2,-4,-2,2
9323,-3,-2,0,5,2,4,-1,-3
9330,-9,-2,-5,-10,-8,-11,-8,-13
9330,4,3,1,-2,4,2,5,10
9332,-3,-12,-5,-2,0,-6,-2,0
9332,0,11,1,-4,-8,-1,0,-2
9352,-7,-10,-14,-4,-2,-7,-7,-7
9352,6,5,8,2,2,-2,-2,5
9353,-5,-3,-5,-4,-11,-3,-3,-4
9353,-2,-3,4,4,-1,-2,-3,-2
9374,6,3,2,-3,3,3,2,7
9374,-4,-3,-17,-7,-2,1,0,-7
9376,3,6,5,17,1,-5,-1,0
9376,-3,-15,-16,-18,-9,3,-2,-3
9389,-1,-4,1,3,1,1,0,-2
9389,2,2,-1,-4,-2,0,-1,1
9390,0,1,3,4,-5,0,0,-4
9390,1,-1,-2,3,-2,3,-3,12
9412,5,0,-4,-2,-3,-3,-2,0
9412,-3,-5,-15,-5,0,-6,-5,-6
9413,5,6,9,0,5,4,4,6
9413,-1,-2,3,0,0,1,-1,-3
9435,-3,-3,-4,2,5,0,1,-1
9435,-14,-3,3,-3,-9,-6,-7,-21
9437,10,0,-7,-5,-2,-3,0,12
9437,7,1,-7,-6,4,9,11,12
9457,4,0,2,-3,1,0,3,6
9457,-12,-1,3,9,8,-1,-7,-13
9458,-16,2,28,0,-1,-6,-6,-18
9458,12,-8,-4,-4,-4,-1,-2,11
9472,-3,-5,-12,0,-1,0,-5,-11
9472,10,2,7,-4,-4,1,4,10
9473,-9,-3,-10,-12,-9,0,1,-9
9473,-4,4,18,6,-2,4,6,-8
9486,1,0,11,-3,-1,-9,-6,3
9486,-7,-4,-3,-4,-7,-6,-6,-13
9494,10,2,-3,-4,19,2,1,11
9494,-2,-4,-6,-5,12,1,0,29
9509,-3,0,-6,-1,0,2,-1,-62
9509,-9,3,1,4,-3,3,-2,-12
9510,13,-4,34,-2,-11,-5,-4,6
9510,-1,2,1,1,-5,0,0,0
9532,9,25,2,-2,-12,1,1,11
9532,11,1,5,2,-4,-6,1,22
9533,-8,-2,-17,6,3,-6,-10,-11
9533,-18,-7,3,-4,0,-6,-9,-41
9546,3,-4,5,0,-16,-1,0,25
9546,5,-6,-7,-8,-3,0,10,36
9555,-19,-7,-14,-7,-5,-1,-16,-13
9555,23,10,7,14,13,-1,-6,-31
9577,-2,4,-30,4,5,9,17,39
9577,2,-8,28,5,-1,-4,-4,16
9578,-6,-13,-15,-22,-8,-4,14,78
9578,-25,0,-11,3,3,-6,-25,-106
9592,-23,-5,9,-7,-13,-1,-24,-43
9592,38,17,-3,-3,3,2,13,43
9594,5,-15,-13,-2,2,10,14,20
9594,-4,18,-6,-5,-2,0,6,22
9613,-4,-8,2,10,4,-3,5,31
9613,-12,1,0,-9,-4,-3,-18,-63
9614,-4,6,-2,15,6,-3,-14,-53
9614,4,-4,-6,5,6,6,12,37
9629,-3,-10,3,-13,-11,-10,-1,-11
9629,-6,7,-2,1,3,5,5,-49
9629,24,16,7,8,0,1,-3,14
9629,-7,-9,9,-5,-8,-4,-6,-9
9651,7,2,-4,-8,11,8,14,60
9651,-16,-35,-15,-6,-10,-18,7,35
9652,-1,26,2,29,24,18,-18,-77
9652,-23,-10,11,-34,-44,-4,-7,-9
9674,12,-3,1,3,2,-11,-10,-33
9674,4,1,-7,-12,-2,7,14,24
9675,-5,-18,-8,5,5,-4,9,2
9675,-2,-1,-2,17,19,0,-12,-16
9688,-3,1,3,9,-11,3,3,7
9688,-11,0,-13,-8,-2,-6,-15,-42
9696,0,-22,-6,-16,-5,-4,23,83
9696,7,-3,1,9,2,-6,-5,9
9711,5,13,9,26,12,5,-21,-18
9711,-5,0,12,-11,-10,3,-12,-35
9719,-11,-2,-3,-20,-9,-7,-6,-13
9719,7,-16,-8,-29,-22,-1,21,69
9734,-19,-13,-9,2,9,-8,-3,-11
9734,-4,-4,-5,8,-3,-3,-9,-13
9735,12,3,-1,-5,-13,-5,-9,-42
9735,-2,10,-1,13,26,-6,-7,-58
9749,22,21,13,0,-18,6,9,-7
9749,-17,-19,-7,12,16,10,3,1
9750,-10,-11,-2,-1,-3,-2,-5,-24
9750,6,6,5,13,6,2,1,16
9771,-18,-4,-4,-11,0,-3,-7,-31
9771,12,8,5,-6,-5,-4,-1,38
9772,8,0,-1,7,1,0,3,22
9772,5,5,-1,1,-1,5,5,-4
9793,-6,-12,-4,-16,-3,-4,7,23
9793,-1,-1,-5,-3,-3,-7,-13,-9
9794,-16,3,-4,-2,-7,-9,-18,-72
9794,8,1,-6,13,15,4,18,25
9808,0,-4,1,-26,-7,8,6,-41
9808,-8,4,2,20,9,-1,-10,-102
9809,23,11,2,3,3,10,36,91
9809,-14,-13,-6,-18,-12,-7,-17,-49
9832,15,-1,-3,8,2,3,13,64
9832,9,8,-3,-3,3,5,11,81
9834,-21,-5,-8,-13,-16,-15,-20,-40
9834,-3,-10,-11,-4,1,-2,-4,3
9855,5,-1,-8,2,20,8,0,1
9855,-9,5,21,51,-2,-2,-11,-89
9856,9,-4,-21,-49,-21,0,16,52
9856,3,0,6,4,-4,-5,-7,-8
9868,-4,-3,-18,7,12,-4,-7,40
9868,3,4,11,-24,-9,3,-4,-2
9870,-74,-20,-7,13,4,-15,-70,-121
9870,91,26,8,14,5,31,92,112
9899,7,12,9,7,3,0,10,-5
9899,-10,-6,-2,-3,5,-2,-1,-56
9899,18,-9,16,38,40,20,17,-15
9899,-37,-11,-33,-17,-24,-5,-31,-63
9921,-2,3,14,39,12,-8,-13,-31
9921,16,-3,-45,-51,-28,-16,5,60
9923,-25,-30,-30,-30,-20,-16,-8,8
9923,-18,-5,64,21,8,-7,-19,-10
9928,35,50,18,0,5,10,14,22
9928,-26,19,16,30,-8,-2,-33,-116
9929,36,12,-15,-8,17,8,24,58
9929,-18,-21,-42,-30,-12,5,1,9
9952,3,-23,-37,-56,-11,0,6,22
9952,-2,5,84,17,3,-4,18,15
9953,-6,2,14,19,-2,-20,-22,-67
9953,-4,10,24,38,6,3,-6,34
9973,-24,-6,-22,-57,-20,-13,-21,-57
9973,6,-5,-60,-4,1,10,16,12
9974,6,-10,23,35,7,6,19,30
9974,-11,-23,-14,1,4,-15,-17,-2
9997,-5,13,15,18,-3,2,-17,-78
9997,1,-12,-2,-8,-1,1,-11,-58
9997,22,24,7,4,5,12,16,40
9997,-25,-11,-51,-17,-12,-7,-21,-125
11,4,-13,58,57,9,5,32,49
11,8,-1,-19,-46,-18,-2,-4,12
11,-6,1,14,-7,-6,0,-7,-68
11,1,3,0,-10,4,3,-3,24
41,-9,-11,-16,-8,6,-12,-12,7
41,-6,-8,-4,52,-3,-13,-12,51
42,5,13,-11,-34,-11,9,10,43
42,-5,-8,30,4,4,-3,13,27
56,-16,-5,12,11,-14,-6,-23,-119
56,23,9,5,0,19,5,31,58
57,31,7,10,-14,0,7,4,-36
57,0,0,-12,-19,-7,-5,1,-78
71,-9,-17,-24,-28,-13,-7,-2,-9
71,-4,-12,-30,-39,-11,3,-4,17
71,-16,0,-3,3,3,-4,4,-49
71,9,12,56,45,8,3,4,10
94,1,-2,-24,-3,5,8,5,-39
94,-10,-13,-16,2,15,4,-9,-114
94,1,-7,-17,12,-13,3,14,16
94,-4,8,2,-15,3,-14,-17,-39
110,2,8,26,30,-2,-5,-15,8
110,-9,-4,3,23,10,-1,-19,-25
110,0,7,-3,-14,-11,0,1,47
110,0,-17,-22,-14,4,4,6,15
131,5,-3,-9,-9,-6,0,11,35
131,-2,5,5,4,5,-2,-3,20
132,-14,-10,-9,9,2,-8,-13,-10
132,6,10,-8,13,-4,2,3,5
154,0,-6,-64,-67,-15,-5,8,46
154,-20,-31,-30,-20,-9,-6,5,-17
155,-2,-7,77,42,10,4,-5,-67
155,31,88,53,50,28,7,-10,-7
169,-25,-19,20,29,-4,-14,-48,-52
169,29,1,-11,-11,4,12,22,80
169,-3,-12,-56,-55,-20,1,20,-34
169,-16,-14,23,14,0,3,-3,-19
191,-7,-6,0,5,3,-7,-14,-81
191,14,27,14,-8,-7,-15,5,-3
192,16,13,-1,10,7,-2,9,71
192,-10,-22,-48,-67,-22,-5,2,4
213,-26,-33,-55,-29,-2,3,-10,-75
213,-1,2,42,11,-1,-1,7,55
214,22,-18,95,57,17,6,-3,-22
214,20,63,-2,7,0,11,-6,-31
228,5,-6,17,0,-7,-6,10,60
228,-7,2,-31,-16,-9,-21,-26,-8
229,-34,-16,-35,5,0,-13,-28,-84
229,-4,-28,-3,-13,-6,1,10,73
251,9,2,-4,-3,14,10,15,20
251,-8,-8,-11,-6,-8,9,4,-21
251,-4,10,-4,-12,-7,-10,4,-55
251,-11,-25,-4,7,-3,-5,-3,-36
273,12,13,12,13,8,5,8,-65
273,-1,-12,-14,8,3,5,5,95
274,2,15,13,-25,-17,-4,-11,22
274,-13,-15,-12,-1,-9,-10,-14,-10
288,6,11,15,11,5,5,-1,-44
288,-3,-2,23,11,6,2,1,-34
288,9,6,-29,-8,-3,2,-6,-36
288,-8,-19,-23,-27,-3,-9,-3,-59
311,-6,6,19,45,11,2,4,8
311,10,3,-10,-51,-15,2,6,-29
312,-2,5,-29,-15,-10,-5,0,23
312,2,-6,8,-9,2,1,-4,0
334,6,2,-3,10,1,-4,4,70
334,-8,7,14,16,14,9,4,-78
334,-2,2,3,6,0,-1,5,49
334,-1,-4,-9,-7,-4,-8,0,37
349,-3,-6,-5,5,4,1,3,-9
349,-7,3,4,-10,-15,-3,-6,-6
350,6,-11,-19,-11,4,0,-9,-7
350,1,1,33,33,-5,1,-1,-20
370,-5,-6,-6,-12,-1,-5,-7,-12
370,7,-2,3,-9,-11,4,0,11
372,-10,2,-20,-8,1,-3,-9,-19
372,5,6,14,4,5,0,4,20
394,2,2,7,-4,-5,-3,2,24
394,-24,-4,3,19,7,-4,-15,-73
394,32,15,7,-5,-1,2,6,65
394,6,-8,-21,-8,2,4,12,115
409,-3,2,2,-8,-9,-5,-12,-2
409,13,7,3,7,8,4,15,94
410,-36,-9,-4,0,-8,-11,-24,-107
410,-36,-13,-14,-7,-1,-3,-17,-84
431,83,30,20,9,13,26,43,19
431,-4,-7,15,3,-4,-7,-12,-96
431,-27,-19,0,5,0,-1,-2,-86
431,-6,3,-1,-7,-7,-16,-20,-36
453,-23,-2,2,-13,-6,-7,-13,-25
453,13,13,9,9,9,12,19,69
454,7,6,0,1,-1,0,-4,64
454,-2,-7,-7,-5,1,2,29,59
468,-9,-1,-3,-7,-5,-5,-21,-18
468,6,-4,-10,2,1,-2,15,88
470,-18,-6,-4,2,-4,-9,-39,-78
470,19,9,3,1,5,14,31,74
490,-5,-4,-3,-5,-6,-4,6,16
490,-16,-4,-3,3,3,-5,-25,-67
492,1,3,5,0,3,2,11,37
492,6,-3,-1,-2,-2,-5,4,-25
513,-16,-5,-2,-1,2,-2,-12,-13
513,-3,1,-2,1,-3,0,2,-28
515,8,5,-1,-1,-4,-1,7,27
515,1,2,1,-1,-3,-1,-7,-23
528,-14,-8,-3,-4,-7,-4,7,9
528,-5,-4,-10,1,-2,-5,-6,-15
537,9,4,3,1,1,3,10,22
537,2,-2,-3,-2,1,-2,-10,-23
552,-9,-7,-4,-4,-1,0,-3,-3
552,2,1,2,-1,2,0,-4,-23
552,0,2,0,0,1,0,6,27
552,2,-1,-4,-2,0,1,-5,-32
573,-4,-5,-1,-3,-5,-4,-4,-6
573,3,-3,-3,1,-1,0,0,-7
575,0,-2,0,-1,0,0,1,-6
575,-9,-5,-4,-4,2,-2,-6,12
588,0,2,-2,-1,2,1,6,53
588,-6,-2,0,-1,1,-2,-6,26
590,-1,1,0,0,0,0,0,-35
590,-2,2,-1,2,3,4,3,-5
611,-9,-4,-2,1,-2,-3,-6,-53
611,0,2,1,1,-2,-1,6,-10
611,-2,0,-2,-1,-6,-3,-2,-39
611,1,-1,-5,0,-2,0,-4,-35
634,-3,0,-1,-2,-4,-2,0,0
634,0,-1,0,1,-2,-3,-8,-4
634,3,1,0,0,0,-1,5,32
634,4,-1,-2,-2,-1,-1,-9,-13
649,-1,-1,0,-1,3,0,7,63
649,1,-1,0,-2,0,-2,-4,1
649,3,0,-1,0,2,1,4,42
649,-2,-3,-3,-1,-1,1,-1,0
679,-1,-2,-3,-3,-1,-4,-7,-22
679,1,-1,-2,-1,0,-3,-2,-5
680,-2,-1,-2,0,-2,3,0,4
680,2,-1,-1,-4,-3,-3,-3,-13
711,3,-1,-1,-1,-3,2,3,-9
711,-2,0,-1,-2,0,0,1,-10
711,-1,0,0,-2,-3,-1,-1,-40
711,0,-3,-3,-3,-2,-2,2,-3
714,-3,-1,0,-2,0,1,-2,-9
714,-1,-1,-2,-1,-1,-4,-2,1
716,1,-1,-2,-1,1,1,-4,-12
716,2,0,0,-1,-1,-2,1,-6
731,-1,-1,-1,-2,0,-2,0,3
731,-1,0,-2,-1,-1,-1,-2,-2
732,-3,-1,-1,-1,1,1,2,24
732,0,1,0,-1,-1,-1,-1,8
762,-2,0,0,-1,-2,-2,-3,5
762,-3,0,0,-2,0,0,-3,-3
762,-1,-1,1,-1,-1,-1,2,13
762,-4,-1,-2,0,-3,-4,-6,-19
768,-1,-3,-2,0,-1,-2,4,14
768,-1,0,-1,0,-1,1,1,1
776,1,0,1,0,-1,0,-1,11
776,-1,-2,0,-1,-1,0,-3,5
791,2,0,-1,1,-1,1,-2,-11
791,0,-2,-1,-2,-1,0,0,5
792,-1,0,-1,-1,-3,-2,1,13
792,-3,-1,0,0,-1,-3,-3,-12
814,-3,1,-1,-2,-3,-2,0,-3
814,1,-1,-1,-1,-1,-1,0,4
814,0,0,-1,-1,0,-2,-3,-5
814,2,0,0,1,1,0,-5,1
827,1,0,0,-2,0,-2,3,0
827,0,0,-2,0,0,0,-1,1
837,1,0,-1,-1,-2,-2,0,3
837,0,-2,-1,0,-2,-1,1,4
851,1,-1,0,-1,-1,-2,-3,-4
851,0,-1,-1,-1,0,0,-3,-12
852,2,-3,-2,-1,0,-1,0,13
852,1,-2,-1,-2,-2,1,0,6
873,-1,-2,-2,1,-2,-2,-2,-11
873,-1,-2,0,-1,-1,-2,0,-3
874,-1,0,-1,0,-1,-3,-1,-1
874,-1,0,-1,-1,-1,-2,0,2
888,-2,-1,0,-2,-2,1,-1,-2
888,-2,-2,-1,-1,-1,2,0,2
896,4,0,0,-2,1,2,-1,2
896,0,0,-1,-1,-2,3,0,-1
911,-3,-1,-3,0,-2,0,-6,-32
911,-1,-1,-2,0,-2,0,1,20
912,1,0,-1,-1,-1,0,5,36
912,-1,-1,-1,1,-1,-1,1,3
933,-4,-2,-1,-2,-1,-2,-4,-9
933,-2,-2,-1,1,-1,-3,-3,-16
935,-6,-2,-2,0,0,-1,-1,-13
935,-3,-1,-2,-1,-1,-1,0,4
948,1,-1,-1,0,-2,-4,2,9
948,-2,-2,-2,-2,-1,-2,-3,-5
956,3,0,-1,-1,-1,1,3,19
956,-2,-1,-4,-2,0,-2,2,2
971,-1,-2,1,-1,-1,0,0,-2
971,1,-1,-1,1,-2,-1,2,4
972,-2,-2,-2,1,-1,0,-5,-17
972,0,-1,-1,-1,-2,-2,-1,-7
994,0,-1,-2,-2,0,0,2,10
994,0,1,-1,-1,-1,-2,-1,-1
994,-2,0,-1,-1,-2,-3,-2,-6
994,-1,-1,-2,-2,1,-2,-1,-1
1009,-1,0,-1,-1,-1,-2,-2,3
1009,-5,-2,-2,-1,-1,0,-2,1
1016,-1,-1,-2,-1,0,0,-1,-13
1016,1,-2,0,-1,-2,-2,1,-1
1031,-1,-1,-1,-2,-1,-2,-1,2
1031,1,-1,0,-2,-1,-2,-2,-3
1032,-3,-2,-1,-1,-3,-4,-1,-3
1032,-2,-1,-2,0,-1,-1,-3,-2
1054,-1,-2,-2,-1,0,1,0,1
1054,0,-1,0,1,-2,0,1,2
1054,-2,-1,1,1,-1,0,-3,-3
1054,0,-1,0,0,-1,-3,1,-3
1077,-1,0,-1,0,-1,-1,1,0
1077,2,0,0,-1,-1,-1,3,-2
1078,1,-1,-1,-2,-1,-2,0,-3
1078,-1,-1,0,-2,-1,-1,0,-3
1091,-1,-1,-2,-1,-1,-1,0,2
1091,0,1,-1,-2,0,-1,0,0
1092,-2,-2,-2,-2,-2,-1,-1,-4
1092,2,0,1,-2,-1,-3,-3,-11
1114,-1,-1,-2,0,-1,1,1,8
1114,-1,-1,-1,0,-1,1,0,0
1114,-2,-1,-1,-2,-1,-1,1,-3
1114,-2,-2,-1,0,-1,0,-2,-3
1137,0,-1,0,-1,-1,-1,-3,-3
1137,-1,1,-1,-1,0,-1,-2,-4
1138,0,0,0,-2,-2,0,-3,0
1138,-1,0,-2,-2,-1,0,-1,5
1151,-1,-2,-1,-1,0,-1,0,0
1151,-1,0,-2,0,-3,-2,-1,2
1152,-1,-1,-2,0,0,-2,-2,-3
1152,-1,1,-1,-1,0,0,-3,2
1174,2,0,0,-1,-1,-2,-2,-1
1174,-3,0,-1,-1,3,0,0,-1
1174,-2,-1,-1,0,0,-2,1,-3
1174,-2,-1,-1,0,-2,-1,0,0
1221,0,-1,-1,-1,0,-2,1,-2
1221,0,-1,-2,0,-1,-2,-2,-1
1221,0,-1,-1,-1,-1,0,-2,0
1221,0,-1,0,-1,-1,0,-1,1
1223,0,-2,0,0,-1,0,-4,-4
1223,-2,-2,0,-1,-1,-1,-3,-2
1226,-2,-2,-1,0,-2,0,1,0
1226,-2,-1,-2,-2,-2,-1,1,-1
1233,-2,0,-3,-1,-2,-4,2,0
1233,0,-1,0,-1,-2,1,-1,0
1235,-1,1,-2,-2,0,-1,-3,1
1235,-1,-2,-1,-1,-1,-2,-2,3
1256,0,-1,0,0,-1,0,-2,1
1256,0,-2,0,-2,-1,-2,0,1
1264,1,0,-1,-2,-1,0,0,-2
1264,0,-1,-1,-1,-1,0,-1,-3
1271,-2,0,0,-3,0,-1,0,0
1271,-2,-1,-1,-2,-2,-2,0,-2
1272,0,-1,-2,-1,0,0,-1,0
1272,-1,-1,-2,-1,0,-2,-1,0
1294,-2,-2,-1,-1,-3,0,-3,-1
1294,-2,0,-1,-3,-2,0,0,-1
1295,0,0,0,-1,-1,0,1,-2
1295,0,0,-3,0,-1,-2,-1,-2
1317,-1,0,-1,0,-2,-1,0,-1
1317,0,-1,-3,-1,-1,0,0,-3
1318,-2,-1,-2,0,-1,-3,-3,-2
1318,0,-1,-1,0,-2,-1,-2,1
1331,-1,-2,0,-1,0,-3,1,-1
1331,-3,-1,-3,-1,0,0,1,-2
1331,0,-1,0,-1,0,0,1,-2
1331,0,-1,-1,0,-1,-1,0,-2
1361,-1,-1,-2,0,-1,0,-4,-3
1361,-1,-2,-1,-1,-2,-1,-2,0
1362,-1,-1,0,-2,1,0,-1,0
1362,-1,0,-1,-1,0,-1,-2,-1
1384,2,-1,0,0,0,-2,-3,1
1384,1,1,0,0,-1,-1,-4,-1
1384,-3,-2,-2,-2,-2,-1,-3,-3
1384,2,-1,0,-2,-1,0,-1,1
1399,-2,0,-2,-1,0,2,-1,-2
1399,0,-1,0,0,-2,-2,-2,0
1400,-1,-2,-2,0,-1,-1,0,0
1400,-3,0,-2,0,-3,-3,2,-1
1421,-2,-1,0,-1,0,-2,-1,-3
1421,1,-1,-2,-1,-1,1,-1,-1
1423,-1,0,-1,1,-1,0,-1,-1
1423,1,-1,-1,-1,-1,-1,1,-2
1437,0,0,0,0,0,-3,1,0
1437,-3,-1,-1,-2,0,-3,2,-1
1437,0,0,0,-1,1,-2,0,-1
1437,-1,-1,-1,-1,-2,1,-2,0
1451,-1,-2,-3,0,-2,-1,-3,0
1451,0,-2,0,0,-2,-1,-3,-1
1452,-1,-2,-1,-1,-1,1,0,1
1452,0,-2,-4,-1,-1,0,-1,-1
1473,-1,0,-3,-2,0,0,-2,-1
1473,-1,-1,-1,0,-1,-1,-2,0
1473,0,0,0,-1,-1,-2,-1,0
1473,-2,1,0,-1,-1,-2,0,0
1496,0,-1,0,0,-1,-1,1,0
1496,1,-1,-1,0,0,-3,-1,-1
1498,-2,-1,-1,-1,-1,-2,-2,-1
1498,-2,0,0,-1,-2,-2,0,-2
1511,0,-1,-1,0,-1,-1,0,-4
1511,0,0,2,-2,-1,0,0,-1
1512,-1,-3,-1,1,-2,0,-3,-1
1512,0,-2,-1,-3,0,1,-3,-1
1533,-2,-2,-1,-2,-4,1,-3,0
1533,-2,-2,-2,-2,-1,-1,0,-1
1540,-1,-1,-1,0,-3,-3,1,0
1540,0,0,-2,-1,-1,0,0,-2
1556,0,0,-1,-3,-1,-2,2,-2
1556,-1,-2,-1,0,-1,-2,1,-4
1557,-1,-1,-2,-1,-1,-1,1,-2
1557,-2,-1,-1,0,0,-2,-1,-2
1571,-2,-2,0,0,-2,0,-3,-1
1571,0,0,-2,-3,-1,-1,-2,-1
1571,0,-1,-2,0,0,-1,1,-1
1571,-1,0,0,-1,0,-2,1,-1
1594,-2,0,-1,-2,-2,-1,2,-3
1594,-2,-1,-1,-1,0,-2,-3,0
1594,-2,0,-1,-1,-1,1,-2,0
1594,-1,-1,0,0,-1,-2,-3,1
1617,0,0,0,1,-2,-1,-1,0
1617,1,0,0,1,-3,0,2,1
1618,-2,0,-2,-1,-2,-3,-2,-3
1618,-2,0,-2,-1,-1,-1,0,-1
1639,0,-1,-1,-1,0,-2,0,-2
1639,-1,-1,0,-2,-1,-1,-2,-1
1640,1,0,-1,0,0,-1,0,-1
1640,0,-1,-1,-1,-1,1,-2,-1
1662,0,-1,-3,0,0,-1,-1,2
1662,-2,-2,0,-2,-3,-1,-3,-2
1662,0,-1,-1,-2,-3,0,-3,-1
1662,-1,0,0,-1,-1,0,6,-1
1677,2,1,0,-1,-1,-1,-1,3
1677,1,1,-2,-2,0,-1,0,-1
1678,-3,-3,-1,-2,-1,0,-2,-1
1678,5,1,-2,0,-1,-2,0,-5
1690,-2,0,0,-1,-1,-2,-5,-2
1690,-2,-1,-2,0,1,-1,1,-3
1698,-2,-2,-1,-2,0,-1,-3,-4
1698,-1,-3,0,-1,-1,-2,1,-1
1713,0,-3,-2,-2,0,0,9,-12
1713,-2,-2,-2,-1,-2,-3,-5,5
1714,1,0,0,-1,0,3,-4,2
1714,-1,-1,1,-1,-1,-3,-4,-5
1737,1,1,-1,-1,-3,-2,21,6
1737,0,0,-1,-2,0,1,6,0
1737,-2,0,0,-1,0,-2,1,-22
1737,0,-2,-1,0,0,1,-13,7
1750,0,-1,-1,-1,-1,-1,-21,2
1750,-2,-2,0,-1,0,1,9,-4
1759,4,-1,0,0,-1,-2,-3,25
1759,-2,-1,-1,-2,0,2,0,-10
1773,-3,0,-2,0,-4,-2,-8,-6
1773,-2,-1,-1,-1,-2,-1,6,6
1775,-2,1,0,0,-3,-3,-1,-3
1775,-3,-2,-1,-1,-3,-1,2,3
1796,-1,-2,0,-1,-1,-1,0,-2
1796,-2,-2,0,-1,-2,-1,-10,9
1798,-2,-2,0,-2,-2,1,4,-4
1798,-1,-2,-2,0,-4,-2,-2,-3
1818,-2,-1,-2,0,0,1,-5,-7
1818,-2,-2,-3,-1,-2,-2,-9,3
1820,-2,-1,-2,-2,-1,-2,4,-1
1820,-1,0,0,-1,1,2,5,25
1833,0,-3,0,-2,-1,-1,-1,-4
1833,0,-1,0,0,0,-4,-2,-8
1849,-1,-2,-1,-1,0,0,-11,-10
1849,-3,-2,-2,-2,-1,-3,-3,-11
1857,6,1,3,1,1,2,12,55
1857,0,1,-1,1,0,-1,-4,-14
1857,-1,-1,1,-1,-2,0,2,3
1857,0,-1,-1,-1,-1,-1,-1,-17
1870,-1,-1,-1,2,1,-1,-9,8
1870,2,0,-1,0,-2,0,7,0
1879,2,-1,-2,-2,-2,-3,8,10
1879,-2,-2,-1,-1,-1,-2,-4,-6
1894,-5,-2,-4,-2,-4,-3,1,-19
1894,1,-1,0,0,1,1,-4,0
1894,-3,-1,-2,-1,-1,-5,-12,-8
1894,-4,0,0,-1,0,0,8,-11
1916,0,0,-2,0,-2,-1,-6,-3
1916,-4,-3,-1,1,-1,1,-2,-7
