0,0,-1,1,0,-2,-2,2,0,1.0083,-0.0556641,0.292969,41.1875,4.625,22.25,0.112846,-1.32856,-2.28194
0,0,-2,-1,2,-1,-2,-1,0,1.0083,-0.0556641,0.292969,41.1875,4.625,22.25,0.112846,-1.32856,-2.28194
3,-2,-2,1,-1,-1,-2,-2,-1,1.0083,-0.0556641,0.292969,41.1875,4.625,22.25,0.112846,-1.32856,-2.28194
3,0,-1,-1,-1,1,-2,-2,-1,1.0083,-0.0556641,0.292969,41.1875,4.625,22.25,0.112846,-1.32856,-2.28194
12,-1,-1,-1,-1,0,0,0,-1,1.0083,-0.0556641,0.292969,41.1875,4.625,22.25,0.112846,-1.32856,-2.28194
12,-2,0,-1,0,-1,0,1,-3,1.0083,-0.0556641,0.292969,41.1875,4.625,22.25,0.112846,-1.32856,-2.28194
14,0,0,-1,2,-1,-1,-1,-2,1.0083,-0.0556641,0.292969,41.1875,4.625,22.25,0.112846,-1.32856,-2.28194
14,-2,0,0,-1,-1,-2,-2,-1,1.0083,-0.0556641,0.292969,41.1875,4.625,22.25,0.112846,-1.32856,-2.28194
15,-1,0,-4,-3,1,-2,0,-2,1.0083,-0.0556641,0.292969,41.1875,4.625,22.25,0.112846,-1.32856,-2.28194
15,-2,-1,0,-3,-1,-2,-2,-4,1.0083,-0.0556641,0.292969,41.1875,4.625,22.25,0.112846,-1.32856,-2.28194
35,-2,0,0,-1,-2,-1,-2,-1,1.00293,-0.0551758,0.282227,47.125,7.8125,21.8125,0.0897377,-1.32596,-2.24173
35,-3,0,0,-2,-2,0,-2,-2,1.00293,-0.0551758,0.282227,47.125,7.8125,21.8125,0.0897377,-1.32596,-2.24173
36,-2,1,-1,-1,-3,0,-2,-1,1.00293,-0.0551758,0.282227,47.125,7.8125,21.8125,0.0897377,-1.32596,-2.24173
36,1,0,-1,1,-2,-2,1,0,1.00293,-0.0551758,0.282227,47.125,7.8125,21.8125,0.0897377,-1.32596,-2.24173
40,-1,-1,0,0,-1,-1,0,-1,0.95459,-0.0551758,0.273926,50.625,11.1875,21.9375,0.0680003,-1.32181,-2.2014
40,0,-3,-2,0,0,0,-2,-1,0.95459,-0.0551758,0.273926,50.625,11.1875,21.9375,0.0680003,-1.32181,-2.2014
49,0,-1,1,-3,-2,0,-1,1,0.95459,-0.0551758,0.273926,50.625,11.1875,21.9375,0.0680003,-1.32181,-2.2014
49,-1,-1,-2,-1,0,-1,1,-17,0.95459,-0.0551758,0.273926,50.625,11.1875,21.9375,0.0680003,-1.32181,-2.2014
70,-1,-1,-1,-1,-1,-1,-2,-19,0.908691,-0.0751953,0.275391,54.375,13.875,22.875,0.0461258,-1.31677,-2.15986
70,1,-1,-1,-1,-2,0,-1,-15,0.908691,-0.0751953,0.275391,54.375,13.875,22.875,0.0461258,-1.31677,-2.15986
71,0,-1,-2,0,0,0,-2,-8,0.908691,-0.0751953,0.275391,54.375,13.875,22.875,0.0461258,-1.31677,-2.15986
71,0,1,-1,-1,-1,2,-3,-1,0.908691,-0.0751953,0.275391,54.375,13.875,22.875,0.0461258,-1.31677,-2.15986
86,-1,-1,-3,-3,0,-1,1,3,0.885254,-0.0932617,0.26709,60.0625,16.375,23.9375,0.0252497,-1.31058,-2.11718
86,-2,-2,-2,1,-1,0,0,10,0.885254,-0.0932617,0.26709,60.0625,16.375,23.9375,0.0252497,-1.31058,-2.11718
86,0,-1,-2,1,-1,-3,1,13,0.885254,-0.0932617,0.26709,60.0625,16.375,23.9375,0.0252497,-1.31058,-2.11718
86,-2,-1,-1,2,1,-3,-1,16,0.885254,-0.0932617,0.26709,60.0625,16.375,23.9375,0.0252497,-1.31058,-2.11718
132,-1,-1,0,-1,-1,0,-1,6,0.949707,-0.081543,0.241699,62.125,21.9375,23.9375,-0.0096735,-1.29744,-2.03651
132,0,0,-1,-2,-2,-2,-2,21,0.949707,-0.081543,0.241699,62.125,21.9375,23.9375,-0.0096735,-1.29744,-2.03651
133,0,0,0,-3,-2,-2,0,27,0.949707,-0.081543,0.241699,62.125,21.9375,23.9375,-0.0096735,-1.29744,-2.03651
133,-2,0,0,-1,-1,-3,-2,17,0.949707,-0.081543,0.241699,62.125,21.9375,23.9375,-0.0096735,-1.29744,-2.03651
134,0,0,-1,-1,0,-3,0,7,0.949707,-0.081543,0.241699,62.125,21.9375,23.9375,-0.0096735,-1.29744,-2.03651
134,0,-1,-1,0,-1,0,-3,-9,0.949707,-0.081543,0.241699,62.125,21.9375,23.9375,-0.0096735,-1.29744,-2.03651
138,-2,-2,-1,-1,-3,-1,-1,-13,0.948242,-0.101074,0.26709,55.3125,23.3125,24.8125,-0.0283806,-1.28894,-1.99722
138,0,0,-2,0,-2,-1,-1,-12,0.948242,-0.101074,0.26709,55.3125,23.3125,24.8125,-0.0283806,-1.28894,-1.99722
145,0,-1,1,-1,0,-2,-2,-12,0.948242,-0.101074,0.26709,55.3125,23.3125,24.8125,-0.0283806,-1.28894,-1.99722
145,-1,-1,1,0,0,0,0,-11,0.948242,-0.101074,0.26709,55.3125,23.3125,24.8125,-0.0283806,-1.28894,-1.99722
154,1,-1,-2,0,0,-1,-1,-9,0.979492,-0.13623,0.287109,52.5,22,25.6875,-0.0501398,-1.28134,-1.95672
154,-2,-1,-3,-2,-1,0,1,-8,0.979492,-0.13623,0.287109,52.5,22,25.6875,-0.0501398,-1.28134,-1.95672
168,0,0,0,-1,-1,0,0,-5,0.979492,-0.13623,0.287109,52.5,22,25.6875,-0.0501398,-1.28134,-1.95672
168,-2,-1,0,-2,-1,0,-1,-4,0.979492,-0.13623,0.287109,52.5,22,25.6875,-0.0501398,-1.28134,-1.95672
177,0,-2,0,0,-2,1,-2,-4,1.05078,-0.180664,0.291992,49.8125,20.125,24.875,-0.0735134,-1.27391,-1.91503
177,0,-1,-1,-2,-1,-2,-2,-3,1.05078,-0.180664,0.291992,49.8125,20.125,24.875,-0.0735134,-1.27391,-1.91503
182,-2,0,-3,1,-1,1,-1,0,1.05078,-0.180664,0.291992,49.8125,20.125,24.875,-0.0735134,-1.27391,-1.91503
182,-1,0,-2,-3,-1,0,-1,-1,1.05078,-0.180664,0.291992,49.8125,20.125,24.875,-0.0735134,-1.27391,-1.91503
205,-1,-1,-2,-2,-2,-2,0,-3,1.09863,-0.209473,0.291016,43.5,18.1875,21.375,-0.0959508,-1.26794,-1.87716
205,-2,0,0,0,-1,-1,-3,-1,1.09863,-0.209473,0.291016,43.5,18.1875,21.375,-0.0959508,-1.26794,-1.87716
207,0,-1,0,0,-2,-1,-1,-1,1.09863,-0.209473,0.291016,43.5,18.1875,21.375,-0.0959508,-1.26794,-1.87716
207,1,1,0,1,1,-2,-1,-1,1.09863,-0.209473,0.291016,43.5,18.1875,21.375,-0.0959508,-1.26794,-1.87716
228,-1,0,-5,-3,-2,-1,-1,-3,1.09375,-0.219727,0.283691,35.4375,15.3125,17.0625,-0.115731,-1.26299,-1.84483
228,-2,-1,-1,-1,0,-1,-1,0,1.09375,-0.219727,0.283691,35.4375,15.3125,17.0625,-0.115731,-1.26299,-1.84483
229,-1,-1,-1,-1,1,1,-1,-1,1.09375,-0.219727,0.283691,35.4375,15.3125,17.0625,-0.115731,-1.26299,-1.84483
229,0,-2,-1,-1,-2,-4,0,-2,1.09375,-0.219727,0.283691,35.4375,15.3125,17.0625,-0.115731,-1.26299,-1.84483
243,-2,-3,0,1,-1,-3,-1,-2,1.04102,-0.218262,0.254883,29.0625,12.8125,13.9375,-0.133701,-1.25928,-1.8168
243,0,-2,-2,0,-1,0,0,0,1.04102,-0.218262,0.254883,29.0625,12.8125,13.9375,-0.133701,-1.25928,-1.8168
243,-2,-1,0,-2,-1,-2,-3,-2,1.04102,-0.218262,0.254883,29.0625,12.8125,13.9375,-0.133701,-1.25928,-1.8168
243,-1,-1,-1,-1,-1,0,-1,-2,1.04102,-0.218262,0.254883,29.0625,12.8125,13.9375,-0.133701,-1.25928,-1.8168
265,0,0,0,0,-1,1,-1,-1,0.959961,-0.20166,0.217285,24.25,12.5625,12,-0.149117,-1.25574,-1.79268
265,-1,-1,0,0,-3,-2,0,-2,0.959961,-0.20166,0.217285,24.25,12.5625,12,-0.149117,-1.25574,-1.79268
266,-1,-3,-1,-1,-3,-1,0,1,0.959961,-0.20166,0.217285,24.25,12.5625,12,-0.149117,-1.25574,-1.79268
266,-1,-1,-1,-1,0,-1,0,-1,0.959961,-0.20166,0.217285,24.25,12.5625,12,-0.149117,-1.25574,-1.79268
288,-2,-2,-3,-1,-1,0,-1,-1,0.888672,-0.206543,0.193848,20.9375,12.5625,11.1875,-0.165009,-1.25247,-1.76975
288,-1,-1,-2,-1,-2,0,0,0,0.888672,-0.206543,0.193848,20.9375,12.5625,11.1875,-0.165009,-1.25247,-1.76975
289,-1,2,-1,-1,1,-2,-2,-2,0.888672,-0.206543,0.193848,20.9375,12.5625,11.1875,-0.165009,-1.25247,-1.76975
289,0,-1,0,0,-2,-3,-2,1,0.888672,-0.206543,0.193848,20.9375,12.5625,11.1875,-0.165009,-1.25247,-1.76975
305,-1,-1,-1,0,-2,-1,1,0,0.839844,-0.214844,0.168945,20.625,12.1875,10.375,-0.180375,-1.24936,-1.74737
305,-2,0,0,-1,0,0,-1,0,0.839844,-0.214844,0.168945,20.625,12.1875,10.375,-0.180375,-1.24936,-1.74737
305,-1,-2,-1,2,-2,0,-1,0,0.839844,-0.214844,0.168945,20.625,12.1875,10.375,-0.180375,-1.24936,-1.74737
305,-1,-1,-3,-2,-2,-1,0,0,0.839844,-0.214844,0.168945,20.625,12.1875,10.375,-0.180375,-1.24936,-1.74737
326,0,0,1,-1,-1,1,-1,0,0.824707,-0.233398,0.164062,21.875,11.875,8.875,-0.194935,-1.24665,-1.72583
326,-1,1,-1,-3,-3,-1,-1,0,0.824707,-0.233398,0.164062,21.875,11.875,8.875,-0.194935,-1.24665,-1.72583
326,-2,0,-2,-2,0,0,-1,-1,0.824707,-0.233398,0.164062,21.875,11.875,8.875,-0.194935,-1.24665,-1.72583
326,0,-2,0,-1,0,1,-1,0,0.824707,-0.233398,0.164062,21.875,11.875,8.875,-0.194935,-1.24665,-1.72583
348,-3,-2,0,-2,0,-3,-1,0,0.824707,-0.235352,0.167969,19.25,11.5625,7.0625,-0.207791,-1.24382,-1.70683
348,-1,-1,-1,-2,0,-1,-1,-1,0.824707,-0.235352,0.167969,19.25,11.5625,7.0625,-0.207791,-1.24382,-1.70683
349,1,2,-2,-2,-2,-1,-1,-1,0.824707,-0.235352,0.167969,19.25,11.5625,7.0625,-0.207791,-1.24382,-1.70683
349,-2,-1,-1,-1,-1,1,1,-2,0.824707,-0.235352,0.167969,19.25,11.5625,7.0625,-0.207791,-1.24382,-1.70683
363,-1,-1,1,1,-1,-2,-1,-2,0.818848,-0.229004,0.167969,12.5625,11.625,5.125,-0.220052,-1.24082,-1.69053
363,-1,-1,0,0,-1,-3,-1,-1,0.818848,-0.229004,0.167969,12.5625,11.625,5.125,-0.220052,-1.24082,-1.69053
364,0,-2,-1,0,-1,-1,-2,0,0.818848,-0.229004,0.167969,12.5625,11.625,5.125,-0.220052,-1.24082,-1.69053
364,-1,-2,-1,1,-1,-2,-1,-2,0.818848,-0.229004,0.167969,12.5625,11.625,5.125,-0.220052,-1.24082,-1.69053
386,0,1,0,-3,2,1,-2,-2,0.806641,-0.223145,0.16748,3.375,12.25,3.9375,-0.233369,-1.23792,-1.67677
386,0,-2,0,-1,3,2,0,-2,0.806641,-0.223145,0.16748,3.375,12.25,3.9375,-0.233369,-1.23792,-1.67677
386,-1,0,0,-1,0,-2,0,-2,0.806641,-0.223145,0.16748,3.375,12.25,3.9375,-0.233369,-1.23792,-1.67677
386,-1,0,-2,0,-2,-3,1,0,0.806641,-0.223145,0.16748,3.375,12.25,3.9375,-0.233369,-1.23792,-1.67677
408,-1,0,-2,-1,-3,-1,-1,-2,0.807129,-0.220703,0.166504,-7.1875,13.0625,2.875,-0.248453,-1.23481,-1.66487
408,0,-1,0,0,-3,-1,-2,-1,0.807129,-0.220703,0.166504,-7.1875,13.0625,2.875,-0.248453,-1.23481,-1.66487
409,0,-1,0,-1,-1,-1,0,0,0.807129,-0.220703,0.166504,-7.1875,13.0625,2.875,-0.248453,-1.23481,-1.66487
409,-1,-1,0,0,1,0,-1,1,0.807129,-0.220703,0.166504,-7.1875,13.0625,2.875,-0.248453,-1.23481,-1.66487
423,-1,0,-3,-2,-2,-2,0,1,0.826172,-0.242676,0.186035,-15.8125,12.8125,0.875,-0.265327,-1.23154,-1.65462
423,-1,0,-2,0,-2,-2,0,0,0.826172,-0.242676,0.186035,-15.8125,12.8125,0.875,-0.265327,-1.23154,-1.65462
423,0,-2,0,-3,-2,0,0,0,0.826172,-0.242676,0.186035,-15.8125,12.8125,0.875,-0.265327,-1.23154,-1.65462
423,0,-1,-2,0,0,1,0,-1,0.826172,-0.242676,0.186035,-15.8125,12.8125,0.875,-0.265327,-1.23154,-1.65462
454,0,-2,0,0,-2,-1,-2,-3,0.859375,-0.292969,0.211914,-17.8125,11.0625,-1.875,-0.283133,-1.22852,-1.64415
454,-1,-2,-2,0,0,1,-2,-3,0.859375,-0.292969,0.211914,-17.8125,11.0625,-1.875,-0.283133,-1.22852,-1.64415
455,-2,0,-2,0,-1,-3,-1,-8,0.859375,-0.292969,0.211914,-17.8125,11.0625,-1.875,-0.283133,-1.22852,-1.64415
455,0,1,0,-2,-1,-1,-3,-21,0.859375,-0.292969,0.211914,-17.8125,11.0625,-1.875,-0.283133,-1.22852,-1.64415
468,-2,-1,0,-2,2,0,-1,-19,0.913086,-0.324219,0.230469,-14.3125,9.25,-6,-0.297734,-1.22629,-1.63613
468,-1,-2,-2,-2,0,-2,-2,-15,0.913086,-0.324219,0.230469,-14.3125,9.25,-6,-0.297734,-1.22629,-1.63613
469,1,0,2,-2,-1,-2,-2,-14,0.913086,-0.324219,0.230469,-14.3125,9.25,-6,-0.297734,-1.22629,-1.63613
469,-1,0,-7,-4,-1,0,1,4,0.913086,-0.324219,0.230469,-14.3125,9.25,-6,-0.297734,-1.22629,-1.63613
484,0,-1,-1,0,1,-3,0,15,0.969727,-0.328613,0.250488,-10.5625,7.4375,-9.8125,-0.307184,-1.225,-1.63196
484,-1,-2,-2,-2,-2,-1,0,16,0.969727,-0.328613,0.250488,-10.5625,7.4375,-9.8125,-0.307184,-1.225,-1.63196
484,-1,-2,-2,1,-1,-1,2,18,0.969727,-0.328613,0.250488,-10.5625,7.4375,-9.8125,-0.307184,-1.225,-1.63196
484,0,-1,2,0,-1,-2,-2,9,0.969727,-0.328613,0.250488,-10.5625,7.4375,-9.8125,-0.307184,-1.225,-1.63196
506,-2,-3,-1,0,-2,0,-2,5,1.01318,-0.308594,0.258301,-9.25,5.4375,-13.4375,-0.311849,-1.22518,-1.63225
506,-1,-2,0,1,1,1,-4,7,1.01318,-0.308594,0.258301,-9.25,5.4375,-13.4375,-0.311849,-1.22518,-1.63225
507,-1,-1,-3,-2,0,1,-2,3,1.01318,-0.308594,0.258301,-9.25,5.4375,-13.4375,-0.311849,-1.22518,-1.63225
507,-1,-2,1,-1,-2,-2,0,3,1.01318,-0.308594,0.258301,-9.25,5.4375,-13.4375,-0.311849,-1.22518,-1.63225
528,-1,-2,-2,1,0,-2,0,4,1.02734,-0.270996,0.251465,-11.375,4.0625,-15.5625,-0.313395,-1.22645,-1.63641
528,0,0,-2,-3,0,-3,0,1,1.02734,-0.270996,0.251465,-11.375,4.0625,-15.5625,-0.313395,-1.22645,-1.63641
528,-2,-1,-1,0,-1,0,0,0,1.02734,-0.270996,0.251465,-11.375,4.0625,-15.5625,-0.313395,-1.22645,-1.63641
528,0,-2,-3,-2,-1,1,-2,7,1.02734,-0.270996,0.251465,-11.375,4.0625,-15.5625,-0.313395,-1.22645,-1.63641
543,0,1,-1,2,1,0,-2,22,1.02539,-0.206055,0.23584,-16.375,4.875,-16.6875,-0.31128,-1.22858,-1.64595
543,1,-1,-1,-1,-2,0,0,18,1.02539,-0.206055,0.23584,-16.375,4.875,-16.6875,-0.31128,-1.22858,-1.64595
544,-2,0,-1,0,-1,-2,-1,10,1.02539,-0.206055,0.23584,-16.375,4.875,-16.6875,-0.31128,-1.22858,-1.64595
544,-1,-1,-1,0,-2,-2,0,0,1.02539,-0.206055,0.23584,-16.375,4.875,-16.6875,-0.31128,-1.22858,-1.64595
565,-1,-2,-2,-1,0,-1,-1,-14,1.0166,-0.149414,0.244141,-23.25,6.0625,-14.6875,-0.308858,-1.22993,-1.65773
565,-2,-2,-1,-2,0,-1,-1,-14,1.0166,-0.149414,0.244141,-23.25,6.0625,-14.6875,-0.308858,-1.22993,-1.65773
565,0,0,0,-3,0,-1,-1,-12,1.0166,-0.149414,0.244141,-23.25,6.0625,-14.6875,-0.308858,-1.22993,-1.65773
565,-1,-2,2,-2,-3,-1,0,-12,1.0166,-0.149414,0.244141,-23.25,6.0625,-14.6875,-0.308858,-1.22993,-1.65773
588,-1,1,-2,-3,-3,-2,0,-11,1.01611,-0.136719,0.249023,-29.1875,5.875,-11.875,-0.310263,-1.23107,-1.66737
588,0,0,0,-1,-2,0,0,-9,1.01611,-0.136719,0.249023,-29.1875,5.875,-11.875,-0.310263,-1.23107,-1.66737
588,-1,-2,-2,-1,0,-1,-1,-5,1.01611,-0.136719,0.249023,-29.1875,5.875,-11.875,-0.310263,-1.23107,-1.66737
588,0,-1,-1,1,-1,0,-2,-4,1.01611,-0.136719,0.249023,-29.1875,5.875,-11.875,-0.310263,-1.23107,-1.66737
603,0,1,-1,0,0,0,-2,-3,1.02637,-0.155273,0.253906,-32.875,5.5625,-9.9375,-0.315925,-1.23224,-1.67456
603,-1,0,-1,0,-1,0,0,-4,1.02637,-0.155273,0.253906,-32.875,5.5625,-9.9375,-0.315925,-1.23224,-1.67456
603,1,-2,-1,0,-1,-1,-2,-1,1.02637,-0.155273,0.253906,-32.875,5.5625,-9.9375,-0.315925,-1.23224,-1.67456
603,-2,-3,-4,-5,1,0,-1,1,1.02637,-0.155273,0.253906,-32.875,5.5625,-9.9375,-0.315925,-1.23224,-1.67456
626,-1,-1,-1,0,-2,-1,-3,-2,1.01221,-0.163086,0.270996,-32.375,6.1875,-8.875,-0.321883,-1.23179,-1.68021
626,0,0,3,2,-1,-2,-1,-3,1.01221,-0.163086,0.270996,-32.375,6.1875,-8.875,-0.321883,-1.23179,-1.68021
626,-2,-2,-6,-8,-4,0,0,-1,1.01221,-0.163086,0.270996,-32.375,6.1875,-8.875,-0.321883,-1.23179,-1.68021
626,-1,-1,0,0,-2,-3,-1,1,1.01221,-0.163086,0.270996,-32.375,6.1875,-8.875,-0.321883,-1.23179,-1.68021
656,0,-1,-1,-1,0,0,2,0,1.0083,-0.192383,0.310059,-30.5,5.6875,-8.8125,-0.32853,-1.23106,-1.68535
656,-3,-2,0,1,0,-1,1,-2,1.0083,-0.192383,0.310059,-30.5,5.6875,-8.8125,-0.32853,-1.23106,-1.68535
657,-1,-1,1,1,-1,1,-1,-2,1.0083,-0.192383,0.310059,-30.5,5.6875,-8.8125,-0.32853,-1.23106,-1.68535
657,1,-1,-3,-1,0,-3,0,-1,1.0083,-0.192383,0.310059,-30.5,5.6875,-8.8125,-0.32853,-1.23106,-1.68535
663,0,-1,0,-1,1,-1,-1,-2,1.0127,-0.229004,0.332031,-26.25,2.3125,-8.125,-0.337261,-1.23063,-1.68693
663,-1,0,0,1,-2,-2,-1,0,1.0127,-0.229004,0.332031,-26.25,2.3125,-8.125,-0.337261,-1.23063,-1.68693
664,0,0,-1,-1,0,0,-1,0,1.0127,-0.229004,0.332031,-26.25,2.3125,-8.125,-0.337261,-1.23063,-1.68693
664,-1,1,0,0,0,1,-2,0,1.0127,-0.229004,0.332031,-26.25,2.3125,-8.125,-0.337261,-1.23063,-1.68693
685,-2,-1,1,0,-2,0,-2,-1,1.01611,-0.226562,0.350098,-18.5,-3,-7.0625,-0.34502,-1.23107,-1.68606
685,0,-1,-3,-3,0,-1,0,-1,1.01611,-0.226562,0.350098,-18.5,-3,-7.0625,-0.34502,-1.23107,-1.68606
686,0,-2,0,0,1,-2,-1,-1,1.01611,-0.226562,0.350098,-18.5,-3,-7.0625,-0.34502,-1.23107,-1.68606
686,-2,-1,-3,1,0,-2,-1,-1,1.01611,-0.226562,0.350098,-18.5,-3,-7.0625,-0.34502,-1.23107,-1.68606
708,-1,-1,-3,-5,-3,-1,-2,-1,1.00928,-0.19043,0.359375,-13.9375,-8.5,-7.125,-0.35036,-1.2337,-1.68611
708,-1,0,-1,-2,-3,-1,-1,-2,1.00928,-0.19043,0.359375,-13.9375,-8.5,-7.125,-0.35036,-1.2337,-1.68611
708,0,-2,2,-1,0,-1,-1,0,1.00928,-0.19043,0.359375,-13.9375,-8.5,-7.125,-0.35036,-1.2337,-1.68611
708,0,0,0,-1,0,-1,-1,-2,1.00928,-0.19043,0.359375,-13.9375,-8.5,-7.125,-0.35036,-1.2337,-1.68611
723,-1,1,2,0,-3,-1,-1,-2,0.964844,-0.152832,0.349609,-14.8125,-12.4375,-7,-0.354436,-1.23757,-1.68755
723,0,-2,-1,-1,-1,0,-2,-1,0.964844,-0.152832,0.349609,-14.8125,-12.4375,-7,-0.354436,-1.23757,-1.68755
723,-2,1,-1,-1,2,0,0,-1,0.964844,-0.152832,0.349609,-14.8125,-12.4375,-7,-0.354436,-1.23757,-1.68755
723,-2,-1,-3,-3,-2,-1,0,1,0.964844,-0.152832,0.349609,-14.8125,-12.4375,-7,-0.354436,-1.23757,-1.68755
746,-2,-2,-5,-5,-2,-2,-1,0,0.919922,-0.132324,0.322754,-16.625,-13.9375,-6.5,-0.359911,-1.242,-1.68776
746,-2,-1,-3,-2,0,0,0,1,0.919922,-0.132324,0.322754,-16.625,-13.9375,-6.5,-0.359911,-1.242,-1.68776
747,-2,0,2,1,-1,0,-1,0,0.919922,-0.132324,0.322754,-16.625,-13.9375,-6.5,-0.359911,-1.242,-1.68776
747,0,2,1,1,0,1,0,-1,0.919922,-0.132324,0.322754,-16.625,-13.9375,-6.5,-0.359911,-1.242,-1.68776
768,1,-1,2,1,-1,-2,0,-1,0.883301,-0.127441,0.294434,-19,-13.125,-6.625,-0.366179,-1.24661,-1.68846
768,-1,0,0,-2,-2,-3,-1,-2,0.883301,-0.127441,0.294434,-19,-13.125,-6.625,-0.366179,-1.24661,-1.68846
768,-1,-1,-2,-1,0,-3,2,1,0.883301,-0.127441,0.294434,-19,-13.125,-6.625,-0.366179,-1.24661,-1.68846
768,-2,-1,-1,-1,0,-1,-1,-4,0.883301,-0.127441,0.294434,-19,-13.125,-6.625,-0.366179,-1.24661,-1.68846
783,-1,1,1,1,-2,-1,-1,-1,0.852539,-0.168457,0.296875,-16.875,-11.25,-7.1875,-0.373075,-1.25002,-1.68791
783,-2,0,-4,-1,-1,0,-2,-3,0.852539,-0.168457,0.296875,-16.875,-11.25,-7.1875,-0.373075,-1.25002,-1.68791
783,-3,-1,-2,0,-3,0,-1,-3,0.852539,-0.168457,0.296875,-16.875,-11.25,-7.1875,-0.373075,-1.25002,-1.68791
783,0,0,0,-2,-3,-1,-1,-13,0.852539,-0.168457,0.296875,-16.875,-11.25,-7.1875,-0.373075,-1.25002,-1.68791
805,-2,-2,0,1,0,-1,-1,-23,0.847656,-0.194824,0.297852,-7.75,-10.0625,-8.3125,-0.377001,-1.25244,-1.68678
805,-1,-1,0,-1,1,-1,-1,-16,0.847656,-0.194824,0.297852,-7.75,-10.0625,-8.3125,-0.377001,-1.25244,-1.68678
806,-1,-2,-1,-3,0,-2,-1,-12,0.847656,-0.194824,0.297852,-7.75,-10.0625,-8.3125,-0.377001,-1.25244,-1.68678
806,1,-2,1,0,-1,-1,-1,-4,0.847656,-0.194824,0.297852,-7.75,-10.0625,-8.3125,-0.377001,-1.25244,-1.68678
828,-1,-1,-1,-1,0,-1,1,7,0.891113,-0.183594,0.299316,0.25,-9,-10,-0.375354,-1.25546,-1.68918
828,0,1,-4,-2,-3,-2,-1,12,0.891113,-0.183594,0.299316,0.25,-9,-10,-0.375354,-1.25546,-1.68918
828,1,0,-4,-3,-3,0,-1,15,0.891113,-0.183594,0.299316,0.25,-9,-10,-0.375354,-1.25546,-1.68918
828,-1,-1,0,-1,-2,-1,0,14,0.891113,-0.183594,0.299316,0.25,-9,-10,-0.375354,-1.25546,-1.68918
843,0,-1,0,1,-1,0,1,11,0.939941,-0.161133,0.305176,0.3125,-7.75,-11.75,-0.369811,-1.25868,-1.69524
843,-1,-2,2,0,-1,-2,-2,7,0.939941,-0.161133,0.305176,0.3125,-7.75,-11.75,-0.369811,-1.25868,-1.69524
843,0,-1,-1,-1,-3,-1,0,5,0.939941,-0.161133,0.305176,0.3125,-7.75,-11.75,-0.369811,-1.25868,-1.69524
843,-1,-2,0,0,0,-1,0,6,0.939941,-0.161133,0.305176,0.3125,-7.75,-11.75,-0.369811,-1.25868,-1.69524
866,0,-1,-2,0,-1,-2,0,10,0.969238,-0.13916,0.300781,-7.0625,-6.25,-13.25,-0.363208,-1.26175,-1.70492
866,-2,0,0,-1,0,0,0,25,0.969238,-0.13916,0.300781,-7.0625,-6.25,-13.25,-0.363208,-1.26175,-1.70492
866,0,-1,0,-1,-2,-1,-4,18,0.969238,-0.13916,0.300781,-7.0625,-6.25,-13.25,-0.363208,-1.26175,-1.70492
866,-1,0,0,-3,-2,-1,-1,9,0.969238,-0.13916,0.300781,-7.0625,-6.25,-13.25,-0.363208,-1.26175,-1.70492
888,-1,-1,-2,-2,0,-1,1,-2,0.976074,-0.123535,0.29541,-17.0625,-3.9375,-14.3125,-0.356906,-1.26463,-1.71798
888,0,-1,-2,-1,-3,0,-1,-13,0.976074,-0.123535,0.29541,-17.0625,-3.9375,-14.3125,-0.356906,-1.26463,-1.71798
888,0,-3,-1,-1,1,0,-2,-15,0.976074,-0.123535,0.29541,-17.0625,-3.9375,-14.3125,-0.356906,-1.26463,-1.71798
888,0,-1,1,0,-2,-3,-3,-11,0.976074,-0.123535,0.29541,-17.0625,-3.9375,-14.3125,-0.356906,-1.26463,-1.71798
903,-1,-1,-2,1,0,-1,0,-8,0.966309,-0.0957031,0.288086,-25.9375,-0.625,-14.5,-0.350258,-1.2664,-1.73412
903,0,-2,-2,-3,-3,0,0,-12,0.966309,-0.0957031,0.288086,-25.9375,-0.625,-14.5,-0.350258,-1.2664,-1.73412
910,-1,1,-1,1,-3,0,0,-9,0.966309,-0.0957031,0.288086,-25.9375,-0.625,-14.5,-0.350258,-1.2664,-1.73412
910,0,0,-2,0,-1,3,-1,-5,0.966309,-0.0957031,0.288086,-25.9375,-0.625,-14.5,-0.350258,-1.2664,-1.73412
926,0,0,1,1,-2,-2,-2,-2,0.94873,-0.0786133,0.282227,-31.25,3.3125,-14,-0.343751,-1.26721,-1.75235
926,0,0,1,0,0,-3,-1,-5,0.94873,-0.0786133,0.282227,-31.25,3.3125,-14,-0.343751,-1.26721,-1.75235
926,-1,1,-5,-5,0,-2,0,-5,0.94873,-0.0786133,0.282227,-31.25,3.3125,-14,-0.343751,-1.26721,-1.75235
926,-1,-1,-3,-1,-2,-3,0,0,0.94873,-0.0786133,0.282227,-31.25,3.3125,-14,-0.343751,-1.26721,-1.75235
948,0,-2,0,-1,-3,0,-1,0,0.929199,-0.0878906,0.274902,-30.75,5.75,-12.4375,-0.338614,-1.26682,-1.76888
948,-1,-1,-1,2,-1,0,0,-3,0.929199,-0.0878906,0.274902,-30.75,5.75,-12.4375,-0.338614,-1.26682,-1.76888
949,-1,-2,1,-1,-1,-2,0,-1,0.929199,-0.0878906,0.274902,-30.75,5.75,-12.4375,-0.338614,-1.26682,-1.76888
949,-3,0,0,-2,1,-1,-2,-1,0.929199,-0.0878906,0.274902,-30.75,5.75,-12.4375,-0.338614,-1.26682,-1.76888
963,0,-1,-2,-1,-1,-1,-1,0,0.943848,-0.0976562,0.280762,-23.4375,8.0625,-10.4375,-0.332691,-1.26539,-1.78367
963,-2,-2,-1,-2,-1,-1,-3,-1,0.943848,-0.0976562,0.280762,-23.4375,8.0625,-10.4375,-0.332691,-1.26539,-1.78367
971,-3,-2,-2,2,0,1,-2,-1,0.943848,-0.0976562,0.280762,-23.4375,8.0625,-10.4375,-0.332691,-1.26539,-1.78367
971,-1,0,-2,-2,-1,0,0,0,0.943848,-0.0976562,0.280762,-23.4375,8.0625,-10.4375,-0.332691,-1.26539,-1.78367
985,0,1,-1,-1,0,-1,-3,0,0.944824,-0.0830078,0.285645,-15.0625,10.9375,-8.8125,-0.323984,-1.26278,-1.79831
985,0,0,0,-3,0,-1,-1,-1,0.944824,-0.0830078,0.285645,-15.0625,10.9375,-8.8125,-0.323984,-1.26278,-1.79831
987,0,1,1,1,-1,-3,1,-1,0.944824,-0.0830078,0.285645,-15.0625,10.9375,-8.8125,-0.323984,-1.26278,-1.79831
987,0,-4,-3,-2,-2,-1,0,-1,0.944824,-0.0830078,0.285645,-15.0625,10.9375,-8.8125,-0.323984,-1.26278,-1.79831
1008,-1,-1,0,-4,0,-2,2,0,0.938477,-0.0678711,0.276855,-10.6875,13.75,-7.875,-0.313437,-1.25964,-1.81329
1008,-2,-1,-2,0,-1,1,1,-1,0.938477,-0.0678711,0.276855,-10.6875,13.75,-7.875,-0.313437,-1.25964,-1.81329
1009,-1,-1,0,0,-2,1,-1,-1,0.938477,-0.0678711,0.276855,-10.6875,13.75,-7.875,-0.313437,-1.25964,-1.81329
1009,-1,-1,2,0,-2,-2,-1,0,0.938477,-0.0678711,0.276855,-10.6875,13.75,-7.875,-0.313437,-1.25964,-1.81329
1023,-1,-1,0,0,0,1,0,-1,0.946777,-0.0610352,0.30127,-9.9375,14.75,-6.625,-0.30258,-1.25518,-1.82763
1023,0,-1,-4,-2,-3,0,0,-2,0.946777,-0.0610352,0.30127,-9.9375,14.75,-6.625,-0.30258,-1.25518,-1.82763
1030,-3,-1,-3,1,0,-1,-1,0,0.946777,-0.0610352,0.30127,-9.9375,14.75,-6.625,-0.30258,-1.25518,-1.82763
1030,0,-1,-3,-1,-1,2,0,1,0.946777,-0.0610352,0.30127,-9.9375,14.75,-6.625,-0.30258,-1.25518,-1.82763
1045,-1,0,-2,-4,-2,-3,-1,1,0.942383,-0.0683594,0.299805,-9.25,15.8125,-6.875,-0.29211,-1.25088,-1.84202
1045,1,-3,-1,2,-1,-2,-2,0,0.942383,-0.0683594,0.299805,-9.25,15.8125,-6.875,-0.29211,-1.25088,-1.84202
1046,0,1,-1,0,1,-2,-1,-1,0.942383,-0.0683594,0.299805,-9.25,15.8125,-6.875,-0.29211,-1.25088,-1.84202
1046,-1,-1,-1,-3,-1,-2,0,-2,0.942383,-0.0683594,0.299805,-9.25,15.8125,-6.875,-0.29211,-1.25088,-1.84202
1068,-2,-1,0,2,-1,0,-2,-1,0.920898,-0.0410156,0.293457,-9.875,18.625,-8.125,-0.27906,-1.24585,-1.85906
1068,-1,-1,-4,-3,-2,0,0,-1,0.920898,-0.0410156,0.293457,-9.875,18.625,-8.125,-0.27906,-1.24585,-1.85906
1069,-2,-1,-2,-1,-1,-1,-1,-1,0.920898,-0.0410156,0.293457,-9.875,18.625,-8.125,-0.27906,-1.24585,-1.85906
1069,-2,-1,1,-2,-2,-4,-2,0,0.920898,-0.0410156,0.293457,-9.875,18.625,-8.125,-0.27906,-1.24585,-1.85906
1082,0,0,-2,-2,-1,-1,1,-1,0.887695,-0.0258789,0.304199,-12,20.1875,-8.0625,-0.26547,-1.23997,-1.87757
1082,0,-2,2,0,-2,-2,0,0,0.887695,-0.0258789,0.304199,-12,20.1875,-8.0625,-0.26547,-1.23997,-1.87757
1098,0,-2,0,1,-2,-1,0,-1,0.887695,-0.0258789,0.304199,-12,20.1875,-8.0625,-0.26547,-1.23997,-1.87757
1098,-1,-2,-1,0,0,1,-2,-1,0.887695,-0.0258789,0.304199,-12,20.1875,-8.0625,-0.26547,-1.23997,-1.87757
1114,-1,-2,0,-2,-2,0,-2,-3,0.879883,-0.0317383,0.316895,-14.4375,19.8125,-8.5,-0.25352,-1.23389,-1.89512
1114,0,0,1,0,2,-2,-2,-1,0.879883,-0.0317383,0.316895,-14.4375,19.8125,-8.5,-0.25352,-1.23389,-1.89512
1115,-1,-3,-2,-6,-1,0,-1,-2,0.879883,-0.0317383,0.316895,-14.4375,19.8125,-8.5,-0.25352,-1.23389,-1.89512
1115,-1,0,-1,1,-1,0,-3,-2,0.879883,-0.0317383,0.316895,-14.4375,19.8125,-8.5,-0.25352,-1.23389,-1.89512
1136,0,-1,-2,-1,0,-1,-1,-3,0.87793,-0.0424805,0.334473,-15.9375,19.1875,-9.5625,-0.24215,-1.2275,-1.91238
1136,0,0,3,1,0,0,0,-3,0.87793,-0.0424805,0.334473,-15.9375,19.1875,-9.5625,-0.24215,-1.2275,-1.91238
1143,1,0,-2,-1,-1,-2,1,-2,0.87793,-0.0424805,0.334473,-15.9375,19.1875,-9.5625,-0.24215,-1.2275,-1.91238
1143,-2,-1,-1,0,0,-1,0,-1,0.87793,-0.0424805,0.334473,-15.9375,19.1875,-9.5625,-0.24215,-1.2275,-1.91238
1150,-2,-1,0,-1,0,0,-1,0,0.881836,-0.0439453,0.344238,-15.75,17.9375,-10.1875,-0.231325,-1.22188,-1.92958
1150,0,-1,-1,0,0,-1,0,1,0.881836,-0.0439453,0.344238,-15.75,17.9375,-10.1875,-0.231325,-1.22188,-1.92958
1151,1,-1,0,2,1,-1,0,0,0.881836,-0.0439453,0.344238,-15.75,17.9375,-10.1875,-0.231325,-1.22188,-1.92958
1151,0,-1,1,-1,-2,-3,0,0,0.881836,-0.0439453,0.344238,-15.75,17.9375,-10.1875,-0.231325,-1.22188,-1.92958
1173,-2,-2,-1,-1,-1,0,0,-1,0.88916,-0.0253906,0.362793,-15.6875,15.5625,-10.6875,-0.219803,-1.21666,-1.94708
1173,-2,-2,1,0,-1,-1,-1,1,0.88916,-0.0253906,0.362793,-15.6875,15.5625,-10.6875,-0.219803,-1.21666,-1.94708
1174,-2,-2,2,0,-1,1,-3,-1,0.88916,-0.0253906,0.362793,-15.6875,15.5625,-10.6875,-0.219803,-1.21666,-1.94708
1174,-1,1,-1,-2,-2,-1,-1,1,0.88916,-0.0253906,0.362793,-15.6875,15.5625,-10.6875,-0.219803,-1.21666,-1.94708
1188,1,-2,-2,-3,-2,0,-1,1,0.913086,-0.0224609,0.382324,-16.5,12,-10.5625,-0.209423,-1.21245,-1.96373
1188,0,0,-4,-2,-3,-1,0,-2,0.913086,-0.0224609,0.382324,-16.5,12,-10.5625,-0.209423,-1.21245,-1.96373
1189,0,-1,-1,-1,-2,-2,-1,1,0.913086,-0.0224609,0.382324,-16.5,12,-10.5625,-0.209423,-1.21245,-1.96373
1189,-2,0,-1,0,0,0,0,0,0.913086,-0.0224609,0.382324,-16.5,12,-10.5625,-0.209423,-1.21245,-1.96373
1210,-1,1,-1,-1,-1,-2,-2,1,0.939453,-0.0200195,0.378418,-17.125,8.1875,-9.5625,-0.201333,-1.20982,-1.97822
1210,-1,1,3,1,1,-2,-2,0,0.939453,-0.0200195,0.378418,-17.125,8.1875,-9.5625,-0.201333,-1.20982,-1.97822
1211,-1,-2,-7,-5,-2,0,-1,-2,0.939453,-0.0200195,0.378418,-17.125,8.1875,-9.5625,-0.201333,-1.20982,-1.97822
1211,-1,-3,1,1,0,0,1,-1,0.939453,-0.0200195,0.378418,-17.125,8.1875,-9.5625,-0.201333,-1.20982,-1.97822
1233,-1,-3,1,1,-2,-2,0,-1,0.940918,-0.0117188,0.388184,-14.625,4.4375,-8.4375,-0.193262,-1.20838,-1.99182
1233,-2,0,-3,-2,-1,-4,-3,-1,0.940918,-0.0117188,0.388184,-14.625,4.4375,-8.4375,-0.193262,-1.20838,-1.99182
1234,-1,0,1,0,-2,-1,1,-1,0.940918,-0.0117188,0.388184,-14.625,4.4375,-8.4375,-0.193262,-1.20838,-1.99182
1234,1,1,-2,-4,-3,-2,0,0,0.940918,-0.0117188,0.388184,-14.625,4.4375,-8.4375,-0.193262,-1.20838,-1.99182
1249,-2,1,-3,-1,-2,0,0,-1,0.92041,-0.00195312,0.390625,-11.25,0.8125,-7.375,-0.185585,-1.20774,-2.00348
1249,0,1,0,0,-1,-1,0,-1,0.92041,-0.00195312,0.390625,-11.25,0.8125,-7.375,-0.185585,-1.20774,-2.00348
1249,-3,-2,1,-2,-2,0,-1,-1,0.92041,-0.00195312,0.390625,-11.25,0.8125,-7.375,-0.185585,-1.20774,-2.00348
1249,-1,-3,-5,-1,0,-3,-2,-3,0.92041,-0.00195312,0.390625,-11.25,0.8125,-7.375,-0.185585,-1.20774,-2.00348
1270,0,-1,3,2,-1,0,-1,-2,0.897949,0.000976562,0.383301,-9.9375,-2,-5.6875,-0.179474,-1.20801,-2.01324
1270,0,-2,-3,-1,-3,0,-2,0,0.897949,0.000976562,0.383301,-9.9375,-2,-5.6875,-0.179474,-1.20801,-2.01324
1271,-1,0,2,1,1,-2,-1,0,0.897949,0.000976562,0.383301,-9.9375,-2,-5.6875,-0.179474,-1.20801,-2.01324
1271,-1,0,-2,-3,0,0,-2,-1,0.897949,0.000976562,0.383301,-9.9375,-2,-5.6875,-0.179474,-1.20801,-2.01324
1301,-1,0,-3,-5,0,-2,-1,-1,0.857422,-0.012207,0.388184,-6.4375,-5.375,-3.5,-0.175651,-1.20862,-2.01908
1301,-2,0,-2,-2,-2,-1,0,-3,0.857422,-0.012207,0.388184,-6.4375,-5.375,-3.5,-0.175651,-1.20862,-2.01908
1301,1,0,-2,-1,-2,-1,-1,-14,0.857422,-0.012207,0.388184,-6.4375,-5.375,-3.5,-0.175651,-1.20862,-2.01908
1301,0,0,-2,0,-2,0,-2,-21,0.857422,-0.012207,0.388184,-6.4375,-5.375,-3.5,-0.175651,-1.20862,-2.01908
1308,-1,0,-1,0,-1,0,0,-16,0.842285,-0.0209961,0.381348,1.1875,-8.875,-2,-0.171616,-1.21034,-2.02252
1308,-2,-3,-1,-1,-1,1,-1,-10,0.842285,-0.0209961,0.381348,1.1875,-8.875,-2,-0.171616,-1.21034,-2.02252
1309,0,1,4,2,1,-1,-3,-8,0.842285,-0.0209961,0.381348,1.1875,-8.875,-2,-0.171616,-1.21034,-2.02252
1309,-2,-1,-4,-4,-1,-2,-2,1,0.842285,-0.0209961,0.381348,1.1875,-8.875,-2,-0.171616,-1.21034,-2.02252
1331,-2,-1,-1,-2,1,-1,-1,12,0.836914,-0.0131836,0.395996,9,-10.6875,-0.3125,-0.166331,-1.21218,-2.0242
1331,-1,-1,0,-2,1,0,-2,15,0.836914,-0.0131836,0.395996,9,-10.6875,-0.3125,-0.166331,-1.21218,-2.0242
1332,-1,-2,-3,1,-1,-1,0,17,0.836914,-0.0131836,0.395996,9,-10.6875,-0.3125,-0.166331,-1.21218,-2.0242
1332,-1,-1,1,1,1,-1,-1,9,0.836914,-0.0131836,0.395996,9,-10.6875,-0.3125,-0.166331,-1.21218,-2.0242
1354,0,0,0,0,-1,0,-2,4,0.82666,-0.0146484,0.394043,16.5,-12.6875,1.5,-0.160409,-1.21454,-2.024
1354,0,-2,-1,-1,-3,-2,-1,3,0.82666,-0.0146484,0.394043,16.5,-12.6875,1.5,-0.160409,-1.21454,-2.024
1354,-1,-3,-2,0,-2,-2,-1,4,0.82666,-0.0146484,0.394043,16.5,-12.6875,1.5,-0.160409,-1.21454,-2.024
1354,-2,0,-1,-3,0,-1,-2,5,0.82666,-0.0146484,0.394043,16.5,-12.6875,1.5,-0.160409,-1.21454,-2.024
1368,0,-3,-7,-5,0,-3,-1,4,0.832031,-0.0195312,0.386719,21.625,-14.0625,2.875,-0.154858,-1.21736,-2.02149
1368,-3,1,-1,-1,-1,-2,3,9,0.832031,-0.0195312,0.386719,21.625,-14.0625,2.875,-0.154858,-1.21736,-2.02149
1376,0,1,-2,-2,-2,-1,1,19,0.832031,-0.0195312,0.386719,21.625,-14.0625,2.875,-0.154858,-1.21736,-2.02149
1376,1,0,2,2,-2,0,1,16,0.832031,-0.0195312,0.386719,21.625,-14.0625,2.875,-0.154858,-1.21736,-2.02149
1391,0,-1,-1,0,-4,-1,-2,8,0.835449,-0.015625,0.381836,24.625,-14.6875,3.875,-0.148963,-1.22067,-2.01835
1391,1,-1,-2,1,0,0,-4,-6,0.835449,-0.015625,0.381836,24.625,-14.6875,3.875,-0.148963,-1.22067,-2.01835
1391,-1,-1,-1,-1,0,-2,-3,-9,0.835449,-0.015625,0.381836,24.625,-14.6875,3.875,-0.148963,-1.22067,-2.01835
1391,1,-2,-3,-3,-2,-2,0,-9,0.835449,-0.015625,0.381836,24.625,-14.6875,3.875,-0.148963,-1.22067,-2.01835
1414,-1,1,0,1,-1,0,0,-11,0.842285,-0.00537109,0.374512,24.625,-14.1875,5,-0.143701,-1.22345,-2.01408
1414,-2,0,0,-3,-2,2,-1,-11,0.842285,-0.00537109,0.374512,24.625,-14.1875,5,-0.143701,-1.22345,-2.01408
1415,-1,0,0,0,0,1,-2,-9,0.842285,-0.00537109,0.374512,24.625,-14.1875,5,-0.143701,-1.22345,-2.01408
1415,0,-1,-1,0,1,1,-1,-7,0.842285,-0.00537109,0.374512,24.625,-14.1875,5,-0.143701,-1.22345,-2.01408
1428,0,-1,2,0,1,0,-1,-7,0.838379,0.00732422,0.361816,21.3125,-12.875,6.75,-0.140217,-1.22634,-2.00949
1428,-1,-1,-3,-5,-2,-4,1,-4,0.838379,0.00732422,0.361816,21.3125,-12.875,6.75,-0.140217,-1.22634,-2.00949
1429,0,-1,2,-1,-1,-1,0,-5,0.838379,0.00732422,0.361816,21.3125,-12.875,6.75,-0.140217,-1.22634,-2.00949
1429,-2,-2,0,-1,-1,-2,1,-4,0.838379,0.00732422,0.361816,21.3125,-12.875,6.75,-0.140217,-1.22634,-2.00949
1450,-1,-1,0,0,0,0,-1,-3,0.840332,0.00244141,0.365723,18.0625,-12.25,9.125,-0.140671,-1.22879,-2.00192
1450,-2,-1,1,0,1,0,-1,0,0.840332,0.00244141,0.365723,18.0625,-12.25,9.125,-0.140671,-1.22879,-2.00192
1451,0,-1,-5,-5,-2,-2,-1,-1,0.840332,0.00244141,0.365723,18.0625,-12.25,9.125,-0.140671,-1.22879,-2.00192
1451,-1,-2,-2,0,-1,0,0,-1,0.840332,0.00244141,0.365723,18.0625,-12.25,9.125,-0.140671,-1.22879,-2.00192
1474,0,-3,1,-1,-1,-1,-1,-1,0.868652,-0.0444336,0.382812,17.375,-12.9375,11,-0.146216,-1.23079,-1.9895
1474,0,-1,0,2,1,-1,-2,-2,0.868652,-0.0444336,0.382812,17.375,-12.9375,11,-0.146216,-1.23079,-1.9895
1474,0,0,-1,-1,0,0,0,-3,0.868652,-0.0444336,0.382812,17.375,-12.9375,11,-0.146216,-1.23079,-1.9895
1474,-1,0,0,-2,0,0,-2,-1,0.868652,-0.0444336,0.382812,17.375,-12.9375,11,-0.146216,-1.23079,-1.9895
1496,-2,2,-1,-1,0,-1,0,0,0.922363,-0.074707,0.369141,19.8125,-12.75,12.0625,-0.154534,-1.23346,-1.97358
1496,0,0,1,0,-2,-1,0,-2,0.922363,-0.074707,0.369141,19.8125,-12.75,12.0625,-0.154534,-1.23346,-1.97358
1497,-1,-1,-4,1,0,1,-2,-1,0.922363,-0.074707,0.369141,19.8125,-12.75,12.0625,-0.154534,-1.23346,-1.97358
1497,0,-1,2,-2,-2,-1,-1,0,0.922363,-0.074707,0.369141,19.8125,-12.75,12.0625,-0.154534,-1.23346,-1.97358
1511,0,-2,-2,-2,-1,0,1,-2,0.943359,-0.0688477,0.365723,23.875,-11.1875,13.5,-0.161832,-1.23543,-1.95691
1511,-1,-1,0,-1,1,-1,-2,-2,0.943359,-0.0688477,0.365723,23.875,-11.1875,13.5,-0.161832,-1.23543,-1.95691
1511,-1,0,3,0,-1,-1,-1,-2,0.943359,-0.0688477,0.365723,23.875,-11.1875,13.5,-0.161832,-1.23543,-1.95691
1511,-1,-2,-1,2,-1,1,-2,-1,0.943359,-0.0688477,0.365723,23.875,-11.1875,13.5,-0.161832,-1.23543,-1.95691
1534,-3,-1,-1,-1,-4,-1,0,-3,0.977539,-0.0825195,0.361328,26.625,-10.375,15.25,-0.170625,-1.23723,-1.93769
1534,-2,0,0,0,-1,-2,1,-21,0.977539,-0.0825195,0.361328,26.625,-10.375,15.25,-0.170625,-1.23723,-1.93769
1535,0,-2,0,0,0,-3,-1,-20,0.977539,-0.0825195,0.361328,26.625,-10.375,15.25,-0.170625,-1.23723,-1.93769
1535,-1,-1,-2,-3,-1,-1,0,-18,0.977539,-0.0825195,0.361328,26.625,-10.375,15.25,-0.170625,-1.23723,-1.93769
1547,-2,0,-3,1,-1,-3,0,-14,0.996094,-0.0737305,0.300293,24.6875,-6.875,15.1875,-0.179797,-1.23977,-1.91943
1547,-1,-2,-4,-2,0,0,-1,11,0.996094,-0.0737305,0.300293,24.6875,-6.875,15.1875,-0.179797,-1.23977,-1.91943
1555,-1,-1,-1,0,-1,0,0,17,0.996094,-0.0737305,0.300293,24.6875,-6.875,15.1875,-0.179797,-1.23977,-1.91943
1555,-1,2,2,2,1,-2,0,17,0.996094,-0.0737305,0.300293,24.6875,-6.875,15.1875,-0.179797,-1.23977,-1.91943
1571,-2,-1,-1,-3,0,-1,-3,15,0.955566,-0.0332031,0.259766,18.75,0.5625,14.625,-0.186744,-1.24013,-1.90499
1571,0,-1,0,0,0,-1,-2,7,0.955566,-0.0332031,0.259766,18.75,0.5625,14.625,-0.186744,-1.24013,-1.90499
1578,-1,-1,-4,-4,-3,-2,-2,2,0.955566,-0.0332031,0.259766,18.75,0.5625,14.625,-0.186744,-1.24013,-1.90499
1578,0,-2,-1,-1,-2,-1,-1,6,0.955566,-0.0332031,0.259766,18.75,0.5625,14.625,-0.186744,-1.24013,-1.90499
1594,-1,-2,0,2,1,-1,-1,3,0.880859,-0.0170898,0.249023,8.5625,6.875,15.8125,-0.195513,-1.23782,-1.89202
1594,0,-2,-2,-4,-2,-2,-1,3,0.880859,-0.0170898,0.249023,8.5625,6.875,15.8125,-0.195513,-1.23782,-1.89202
1594,0,0,-1,-3,-2,1,0,4,0.880859,-0.0170898,0.249023,8.5625,6.875,15.8125,-0.195513,-1.23782,-1.89202
1594,-1,-3,-1,1,1,-2,-1,4,0.880859,-0.0170898,0.249023,8.5625,6.875,15.8125,-0.195513,-1.23782,-1.89202
1608,-2,-1,-2,-1,-1,-1,-1,4,0.84082,-0.0527344,0.263184,-0.5,10,17.875,-0.211199,-1.23373,-1.87557
1608,0,0,-1,3,-1,-1,-1,10,0.84082,-0.0527344,0.263184,-0.5,10,17.875,-0.211199,-1.23373,-1.87557
1615,0,-2,-1,-2,-2,0,0,23,0.84082,-0.0527344,0.263184,-0.5,10,17.875,-0.211199,-1.23373,-1.87557
1615,-1,-1,0,-2,-2,-1,-1,14,0.84082,-0.0527344,0.263184,-0.5,10,17.875,-0.211199,-1.23373,-1.87557
1630,1,-2,0,0,-3,-1,-1,9,0.847656,-0.115723,0.286621,-0.4375,11.4375,19.1875,-0.230602,-1.22827,-1.8555
1630,-2,-1,0,-1,-1,-1,0,-5,0.847656,-0.115723,0.286621,-0.4375,11.4375,19.1875,-0.230602,-1.22827,-1.8555
1631,-2,-2,1,0,0,-1,-2,-14,0.847656,-0.115723,0.286621,-0.4375,11.4375,19.1875,-0.230602,-1.22827,-1.8555
1631,0,-2,-1,-2,-1,-1,0,-14,0.847656,-0.115723,0.286621,-0.4375,11.4375,19.1875,-0.230602,-1.22827,-1.8555
1653,0,-1,-2,-2,-2,-1,1,-12,0.86377,-0.133789,0.291504,5.4375,12.3125,19.125,-0.248139,-1.22268,-1.83568
1653,0,-1,-1,-1,-1,-1,0,-12,0.86377,-0.133789,0.291504,5.4375,12.3125,19.125,-0.248139,-1.22268,-1.83568
1654,-2,-1,-3,-1,0,-2,-3,-11,0.86377,-0.133789,0.291504,5.4375,12.3125,19.125,-0.248139,-1.22268,-1.83568
1654,-1,0,-2,-2,-3,0,-1,-8,0.86377,-0.133789,0.291504,5.4375,12.3125,19.125,-0.248139,-1.22268,-1.83568
1667,-1,1,1,2,1,-1,-1,-6,0.879883,-0.121582,0.310547,7.1875,11.5,19,-0.262999,-1.21683,-1.8172
1667,-1,-3,0,-3,0,0,-2,-4,0.879883,-0.121582,0.310547,7.1875,11.5,19,-0.262999,-1.21683,-1.8172
1676,0,0,-2,-1,-2,-2,1,-3,0.879883,-0.121582,0.310547,7.1875,11.5,19,-0.262999,-1.21683,-1.8172
1676,0,-2,-3,0,-3,-3,-1,-2,0.879883,-0.121582,0.310547,7.1875,11.5,19,-0.262999,-1.21683,-1.8172
1699,-1,0,0,-1,-1,-1,0,-1,0.90918,-0.12793,0.324707,4.0625,8,19.875,-0.280016,-1.21217,-1.79791
1699,-2,-1,-1,0,0,-2,-2,0,0.90918,-0.12793,0.324707,4.0625,8,19.875,-0.280016,-1.21217,-1.79791
1700,-1,-1,0,0,1,0,1,-3,0.90918,-0.12793,0.324707,4.0625,8,19.875,-0.280016,-1.21217,-1.79791
1700,-1,2,-1,-3,-2,1,-1,-2,0.90918,-0.12793,0.324707,4.0625,8,19.875,-0.280016,-1.21217,-1.79791
1714,-2,-1,0,-1,-2,2,1,-2,0.935059,-0.148438,0.334473,1.6875,3,20.1875,-0.299427,-1.20911,-1.7772
1714,0,-3,-3,-1,0,0,0,0,0.935059,-0.148438,0.334473,1.6875,3,20.1875,-0.299427,-1.20911,-1.7772
1714,-1,0,-1,0,0,-1,-1,-2,0.935059,-0.148438,0.334473,1.6875,3,20.1875,-0.299427,-1.20911,-1.7772
1714,1,-1,0,-1,0,-1,-1,-2,0.935059,-0.148438,0.334473,1.6875,3,20.1875,-0.299427,-1.20911,-1.7772
1728,0,-1,0,-2,-1,-2,-2,0,0.945801,-0.164551,0.31543,4.5625,-1.5,20,-0.319653,-1.20742,-1.75393
1728,-1,1,-2,-2,0,-1,-1,0,0.945801,-0.164551,0.31543,4.5625,-1.5,20,-0.319653,-1.20742,-1.75393
1735,0,-2,-1,-1,-1,1,0,0,0.945801,-0.164551,0.31543,4.5625,-1.5,20,-0.319653,-1.20742,-1.75393
1735,-3,0,2,1,-2,-1,-1,-1,0.945801,-0.164551,0.31543,4.5625,-1.5,20,-0.319653,-1.20742,-1.75393
1759,-1,-1,-7,-5,-1,-2,-1,-1,0.915527,-0.144531,0.312012,11.4375,-4.625,19.5625,-0.336248,-1.20674,-1.73209
1759,0,1,-1,-2,-2,-2,0,0,0.915527,-0.144531,0.312012,11.4375,-4.625,19.5625,-0.336248,-1.20674,-1.73209
1760,-1,-1,2,0,-2,-2,0,-1,0.915527,-0.144531,0.312012,11.4375,-4.625,19.5625,-0.336248,-1.20674,-1.73209
1760,-1,-2,1,0,0,-1,-1,0,0.915527,-0.144531,0.312012,11.4375,-4.625,19.5625,-0.336248,-1.20674,-1.73209
1773,-2,-2,-3,-1,0,-2,-1,-1,0.876953,-0.146484,0.3125,19,-7.9375,19.875,-0.351372,-1.20692,-1.70945
1773,-1,-1,2,1,-2,-2,0,-2,0.876953,-0.146484,0.3125,19,-7.9375,19.875,-0.351372,-1.20692,-1.70945
1775,0,-1,-2,-1,-1,0,0,-6,0.876953,-0.146484,0.3125,19,-7.9375,19.875,-0.351372,-1.20692,-1.70945
1775,-2,-1,-3,-3,-2,-1,1,-21,0.876953,-0.146484,0.3125,19,-7.9375,19.875,-0.351372,-1.20692,-1.70945
1796,0,-2,0,1,-3,0,-3,-22,0.879395,-0.181641,0.309082,27.1875,-11.9375,19.1875,-0.366287,-1.20813,-1.68383
1796,-1,0,-2,-1,-1,-1,0,-12,0.879395,-0.181641,0.309082,27.1875,-11.9375,19.1875,-0.366287,-1.20813,-1.68383
1797,0,-1,0,0,-2,-2,-1,-6,0.879395,-0.181641,0.309082,27.1875,-11.9375,19.1875,-0.366287,-1.20813,-1.68383
1797,-2,-1,-1,0,2,0,-1,2,0.879395,-0.181641,0.309082,27.1875,-11.9375,19.1875,-0.366287,-1.20813,-1.68383
1810,-1,-2,0,-2,0,1,-1,9,0.919434,-0.23291,0.304688,37,-15.5625,16.625,-0.380157,-1.21043,-1.656
1810,0,1,0,0,-2,-1,-1,14,0.919434,-0.23291,0.304688,37,-15.5625,16.625,-0.380157,-1.21043,-1.656
1811,0,-3,-6,-1,-1,1,-1,14,0.919434,-0.23291,0.304688,37,-15.5625,16.625,-0.380157,-1.21043,-1.656
1811,0,0,1,-1,-1,-1,-1,14,0.919434,-0.23291,0.304688,37,-15.5625,16.625,-0.380157,-1.21043,-1.656
1834,-1,1,-1,0,1,-1,-2,10,0.96582,-0.244629,0.291016,45.5625,-16.9375,12.75,-0.389282,-1.21416,-1.63037
1834,-2,-2,0,1,-2,0,0,6,0.96582,-0.244629,0.291016,45.5625,-16.9375,12.75,-0.389282,-1.21416,-1.63037
1834,-1,1,-1,-2,0,-4,0,17,0.96582,-0.244629,0.291016,45.5625,-16.9375,12.75,-0.389282,-1.21416,-1.63037
1834,-1,-1,-2,-1,-1,-1,0,25,0.96582,-0.244629,0.291016,45.5625,-16.9375,12.75,-0.389282,-1.21416,-1.63037
1856,-1,1,1,1,2,-2,-1,18,0.987305,-0.209961,0.271484,46.5625,-16.375,8.9375,-0.393082,-1.21916,-1.61
1856,1,-1,0,0,-3,0,1,6,0.987305,-0.209961,0.271484,46.5625,-16.375,8.9375,-0.393082,-1.21916,-1.61
1857,-2,0,-4,-4,-3,-2,-1,-9,0.987305,-0.209961,0.271484,46.5625,-16.375,8.9375,-0.393082,-1.21916,-1.61
1857,0,0,-4,-4,0,-1,-1,-12,0.987305,-0.209961,0.271484,46.5625,-16.375,8.9375,-0.393082,-1.21916,-1.61
1871,0,0,2,-4,-3,-2,1,-11,1.00781,-0.189941,0.257812,36.9375,-15.625,5.0625,-0.39574,-1.22461,-1.59392
1871,-2,0,-2,-3,-2,-1,-2,-13,1.00781,-0.189941,0.257812,36.9375,-15.625,5.0625,-0.39574,-1.22461,-1.59392
1871,-1,-1,-2,3,0,0,-2,-13,1.00781,-0.189941,0.257812,36.9375,-15.625,5.0625,-0.39574,-1.22461,-1.59392
1871,0,-3,-4,-4,-2,0,-1,-8,1.00781,-0.189941,0.257812,36.9375,-15.625,5.0625,-0.39574,-1.22461,-1.59392
1908,0,-3,-3,-1,-2,0,0,-8,1.02637,-0.183105,0.236328,21.4375,-13.3125,1.125,-0.399794,-1.23047,-1.58239
1908,0,0,1,-1,0,0,-1,-5,1.02637,-0.183105,0.236328,21.4375,-13.3125,1.125,-0.399794,-1.23047,-1.58239
1909,-1,0,-1,0,-3,-2,-1,-3,1.02637,-0.183105,0.236328,21.4375,-13.3125,1.125,-0.399794,-1.23047,-1.58239
1909,0,0,-2,-1,1,0,-1,-1,1.02637,-0.183105,0.236328,21.4375,-13.3125,1.125,-0.399794,-1.23047,-1.58239
1916,0,1,0,0,-1,0,-2,-2,1.021,-0.175781,0.216309,8.5625,-9.625,-2.125,-0.404452,-1.23614,-1.57521
1916,-2,-2,-4,0,-1,0,-1,-2,1.021,-0.175781,0.216309,8.5625,-9.625,-2.125,-0.404452,-1.23614,-1.57521
1916,-1,-1,-1,0,1,0,-1,-1,1.021,-0.175781,0.216309,8.5625,-9.625,-2.125,-0.404452,-1.23614,-1.57521
1916,0,-1,-2,1,0,-1,1,-3,1.021,-0.175781,0.216309,8.5625,-9.625,-2.125,-0.404452,-1.23614,-1.57521
1930,-1,-1,-2,0,-2,-1,-1,-1,1.01074,-0.166992,0.208008,-0.6875,-5.8125,-4.1875,-0.408324,-1.24042,-1.57161
1930,0,-2,-2,-1,0,0,-1,1,1.01074,-0.166992,0.208008,-0.6875,-5.8125,-4.1875,-0.408324,-1.24042,-1.57161
1931,1,-3,2,-3,0,1,0,-1,1.01074,-0.166992,0.208008,-0.6875,-5.8125,-4.1875,-0.408324,-1.24042,-1.57161
1931,-1,-2,-1,-1,-2,-1,-1,-4,1.01074,-0.166992,0.208008,-0.6875,-5.8125,-4.1875,-0.408324,-1.24042,-1.57161
1954,1,-1,0,0,-1,-3,-2,-1,0.990234,-0.15332,0.194336,-8.8125,-1.25,-5.375,-0.411671,-1.2438,-1.57189
1954,-1,-1,-2,0,-2,0,0,1,0.990234,-0.15332,0.194336,-8.8125,-1.25,-5.375,-0.411671,-1.2438,-1.57189
1954,0,-2,0,-2,-3,-2,-1,-1,0.990234,-0.15332,0.194336,-8.8125,-1.25,-5.375,-0.411671,-1.2438,-1.57189
1954,2,0,0,1,-1,1,-1,0,0.990234,-0.15332,0.194336,-8.8125,-1.25,-5.375,-0.411671,-1.2438,-1.57189
1976,-2,-2,-6,-5,-3,0,-1,0,0.956055,-0.15918,0.192871,-14.3125,2.8125,-5.375,-0.415586,-1.24556,-1.57369
1976,-1,-1,-3,-1,-1,-1,1,-2,0.956055,-0.15918,0.192871,-14.3125,2.8125,-5.375,-0.415586,-1.24556,-1.57369
1977,-1,-1,1,0,-1,0,-1,-1,0.956055,-0.15918,0.192871,-14.3125,2.8125,-5.375,-0.415586,-1.24556,-1.57369
1977,0,-2,1,1,0,-1,-1,-1,0.956055,-0.15918,0.192871,-14.3125,2.8125,-5.375,-0.415586,-1.24556,-1.57369
1991,0,-1,-1,-1,-1,-1,0,-2,0.933105,-0.172363,0.205566,-15.9375,5.75,-4.8125,-0.419797,-1.24571,-1.57562
1991,0,-1,-3,-1,-1,1,-2,1,0.933105,-0.172363,0.205566,-15.9375,5.75,-4.8125,-0.419797,-1.24571,-1.57562
1992,-1,-2,0,0,2,0,-2,-3,0.933105,-0.172363,0.205566,-15.9375,5.75,-4.8125,-0.419797,-1.24571,-1.57562
1992,-1,0,0,-1,-2,-2,1,0,0.933105,-0.172363,0.205566,-15.9375,5.75,-4.8125,-0.419797,-1.24571,-1.57562
2014,0,0,-1,1,-3,-2,0,0,0.907715,-0.189453,0.213867,-14.4375,7.8125,-4.3125,-0.423963,-1.24445,-1.577
2014,0,-1,1,-1,-1,-1,-2,-1,0.907715,-0.189453,0.213867,-14.4375,7.8125,-4.3125,-0.423963,-1.24445,-1.577
2015,-2,0,0,-1,-2,-1,-2,-1,0.907715,-0.189453,0.213867,-14.4375,7.8125,-4.3125,-0.423963,-1.24445,-1.577
2015,-2,-3,0,-1,0,-1,2,-2,0.907715,-0.189453,0.213867,-14.4375,7.8125,-4.3125,-0.423963,-1.24445,-1.577
2036,-1,0,-2,-2,-1,-1,0,-1,0.896973,-0.196289,0.218262,-12.375,9.125,-4.4375,-0.426993,-1.2428,-1.57914
2036,-1,-1,-1,1,0,-1,0,-2,0.896973,-0.196289,0.218262,-12.375,9.125,-4.4375,-0.426993,-1.2428,-1.57914
2037,-1,0,-3,-4,-2,-2,0,-3,0.896973,-0.196289,0.218262,-12.375,9.125,-4.4375,-0.426993,-1.2428,-1.57914
2037,-1,0,0,-1,-4,-1,-2,0,0.896973,-0.196289,0.218262,-12.375,9.125,-4.4375,-0.426993,-1.2428,-1.57914
2050,-1,0,1,-2,-1,-2,0,-1,0.903809,-0.197754,0.22168,-13.125,9.625,-5.3125,-0.429023,-1.24106,-1.58259
2050,-1,-1,-3,-2,-3,-2,0,1,0.903809,-0.197754,0.22168,-13.125,9.625,-5.3125,-0.429023,-1.24106,-1.58259
2059,1,0,-1,-1,-1,-1,0,2,0.912598,-0.207031,0.224609,-15.125,9.75,-6.6875,-0.431427,-1.23973,-1.58666
2059,-1,-3,-2,-3,-1,1,-1,1,0.912598,-0.207031,0.224609,-15.125,9.75,-6.6875,-0.431427,-1.23973,-1.58666
2074,-1,-1,-1,0,-3,0,-1,2,0.912598,-0.207031,0.224609,-15.125,9.75,-6.6875,-0.431427,-1.23973,-1.58666
2074,-1,0,4,2,-2,-1,-1,-1,0.912598,-0.207031,0.224609,-15.125,9.75,-6.6875,-0.431427,-1.23973,-1.58666
2074,-1,-3,-7,-4,-1,-2,0,-5,0.912598,-0.207031,0.224609,-15.125,9.75,-6.6875,-0.431427,-1.23973,-1.58666
2074,0,0,-6,-3,0,0,1,-22,0.912598,-0.207031,0.224609,-15.125,9.75,-6.6875,-0.431427,-1.23973,-1.58666
2104,-1,-1,0,1,0,-2,-3,-21,0.910645,-0.214355,0.246582,-14.3125,9.375,-8,-0.431831,-1.238,-1.59245
2104,-1,-1,-2,0,-1,-1,-1,-15,0.910645,-0.214355,0.246582,-14.3125,9.375,-8,-0.431831,-1.238,-1.59245
2104,0,-1,0,-1,-1,0,0,-1,0.910645,-0.214355,0.246582,-14.3125,9.375,-8,-0.431831,-1.238,-1.59245
2104,-2,-1,1,1,-1,-2,-2,5,0.910645,-0.214355,0.246582,-14.3125,9.375,-8,-0.431831,-1.238,-1.59245
2110,0,-2,0,0,0,-2,1,3,0.92334,-0.256836,0.287598,-9.1875,6.25,-10.6875,-0.431057,-1.2361,-1.59715
2110,-1,-1,-3,-3,0,-2,-1,6,0.92334,-0.256836,0.287598,-9.1875,6.25,-10.6875,-0.431057,-1.2361,-1.59715
2111,-1,-2,-2,1,0,-1,0,13,0.92334,-0.256836,0.287598,-9.1875,6.25,-10.6875,-0.431057,-1.2361,-1.59715
2111,0,-2,-1,-2,-1,0,-2,15,0.92334,-0.256836,0.287598,-9.1875,6.25,-10.6875,-0.431057,-1.2361,-1.59715
2133,-1,-2,-1,-2,1,-1,-2,11,0.987793,-0.275879,0.294922,-3,2.625,-16.0625,-0.426037,-1.23698,-1.60512
2133,1,0,5,3,-1,-1,-1,11,0.987793,-0.275879,0.294922,-3,2.625,-16.0625,-0.426037,-1.23698,-1.60512
2135,-1,-2,-5,-3,2,-1,0,25,0.987793,-0.275879,0.294922,-3,2.625,-16.0625,-0.426037,-1.23698,-1.60512
2135,0,-2,-2,0,-2,0,-1,24,0.987793,-0.275879,0.294922,-3,2.625,-16.0625,-0.426037,-1.23698,-1.60512
2156,0,-1,-2,-2,-3,-2,-1,14,1.05469,-0.256348,0.300293,-0.1875,0.3125,-21.6875,-0.414645,-1.2396,-1.61813
2156,-2,0,-2,-2,-3,-2,-1,1,1.05469,-0.256348,0.300293,-0.1875,0.3125,-21.6875,-0.414645,-1.2396,-1.61813
2157,-1,0,2,3,-2,2,-2,-14,1.05469,-0.256348,0.300293,-0.1875,0.3125,-21.6875,-0.414645,-1.2396,-1.61813
2157,-1,-1,-1,0,0,-2,-1,-13,1.05469,-0.256348,0.300293,-0.1875,0.3125,-21.6875,-0.414645,-1.2396,-1.61813
2170,0,-1,-3,-1,1,0,-1,-10,1.07812,-0.191895,0.299316,-4.8125,-1.8125,-25.8125,-0.397333,-1.24373,-1.63839
2170,1,-1,-1,-2,0,-1,0,-11,1.07812,-0.191895,0.299316,-4.8125,-1.8125,-25.8125,-0.397333,-1.24373,-1.63839
2172,-1,1,0,0,-2,-1,0,-12,1.07812,-0.191895,0.299316,-4.8125,-1.8125,-25.8125,-0.397333,-1.24373,-1.63839
2172,0,1,-1,-3,0,0,-1,-7,1.07812,-0.191895,0.299316,-4.8125,-1.8125,-25.8125,-0.397333,-1.24373,-1.63839
2193,-1,-1,0,0,4,1,-1,-6,1.04297,-0.102051,0.276367,-13.75,-3.25,-26.25,-0.377506,-1.24954,-1.66437
2193,0,-1,-4,-5,7,-1,0,-4,1.04297,-0.102051,0.276367,-13.75,-3.25,-26.25,-0.377506,-1.24954,-1.66437
2194,-2,-2,1,2,0,-1,-1,-3,1.04297,-0.102051,0.276367,-13.75,-3.25,-26.25,-0.377506,-1.24954,-1.66437
2194,-1,-1,-2,1,0,0,2,-3,1.04297,-0.102051,0.276367,-13.75,-3.25,-26.25,-0.377506,-1.24954,-1.66437
2216,0,1,2,0,-5,0,0,-1,0.969238,-0.0283203,0.276367,-23.625,-3.6875,-24.75,-0.357611,-1.25521,-1.69381
2216,0,-2,1,0,-7,0,0,0,0.969238,-0.0283203,0.276367,-23.625,-3.6875,-24.75,-0.357611,-1.25521,-1.69381
2217,-1,0,-1,-3,-6,0,-2,-4,0.969238,-0.0283203,0.276367,-23.625,-3.6875,-24.75,-0.357611,-1.25521,-1.69381
2217,-1,-2,-2,0,-3,-3,-2,-3,0.969238,-0.0283203,0.276367,-23.625,-3.6875,-24.75,-0.357611,-1.25521,-1.69381
2231,-1,-2,-1,-2,-3,0,-2,-1,0.905762,-0.0234375,0.271973,-30.4375,-2.375,-22.9375,-0.340388,-1.25945,-1.72242
2231,-2,-3,-4,-4,-3,-1,-2,2,0.905762,-0.0234375,0.271973,-30.4375,-2.375,-22.9375,-0.340388,-1.25945,-1.72242
2232,0,-1,1,-2,-2,-3,-1,-3,0.905762,-0.0234375,0.271973,-30.4375,-2.375,-22.9375,-0.340388,-1.25945,-1.72242
2232,0,-1,-1,-1,-2,0,-3,-3,0.905762,-0.0234375,0.271973,-30.4375,-2.375,-22.9375,-0.340388,-1.25945,-1.72242
2253,-1,0,0,-2,-2,-1,-1,0,0.883789,-0.0527344,0.274902,-29.4375,-0.25,-20.4375,-0.326609,-1.2618,-1.74728
2253,-2,-2,0,1,-2,0,-1,-2,0.883789,-0.0527344,0.274902,-29.4375,-0.25,-20.4375,-0.326609,-1.2618,-1.74728
2255,-1,-1,-3,-1,-1,-2,-1,-1,0.883789,-0.0849609,0.294922,-19.4375,2.4375,-18.25,-0.312635,-1.26231,-1.76875
2255,-2,-2,-3,-1,1,-1,0,0,0.883789,-0.0849609,0.294922,-19.4375,2.4375,-18.25,-0.312635,-1.26231,-1.76875
2276,-1,-2,-1,1,1,-1,0,-1,0.883789,-0.0849609,0.294922,-19.4375,2.4375,-18.25,-0.312635,-1.26231,-1.76875
2276,0,-2,0,-3,-1,0,-1,-2,0.883789,-0.0849609,0.294922,-19.4375,2.4375,-18.25,-0.312635,-1.26231,-1.76875
2277,1,0,2,1,-2,-1,0,-1,0.889648,-0.103516,0.307129,-6.5,3.4375,-17,-0.296789,-1.26206,-1.78805
2277,-1,1,0,-1,-1,-2,0,-1,0.889648,-0.103516,0.307129,-6.5,3.4375,-17,-0.296789,-1.26206,-1.78805
2290,-2,-1,-1,0,-1,0,-1,1,0.889648,-0.103516,0.307129,-6.5,3.4375,-17,-0.296789,-1.26206,-1.78805
2290,-2,2,-3,-3,0,-1,-1,1,0.889648,-0.103516,0.307129,-6.5,3.4375,-17,-0.296789,-1.26206,-1.78805
2299,-2,-2,0,-2,0,1,1,1,0.926758,-0.0737305,0.309082,2.5,3.5,-17.0625,-0.27575,-1.26209,-1.80904
2299,-1,0,0,1,1,-1,-2,-2,0.926758,-0.0737305,0.309082,2.5,3.5,-17.0625,-0.27575,-1.26209,-1.80904
2313,0,-1,3,1,0,-1,1,0,0.926758,-0.0737305,0.309082,2.5,3.5,-17.0625,-0.27575,-1.26209,-1.80904
2313,0,1,-1,1,-1,-2,-3,-1,0.926758,-0.0737305,0.309082,2.5,3.5,-17.0625,-0.27575,-1.26209,-1.80904
2315,0,0,-3,0,0,-1,-2,-3,0.941895,-0.0332031,0.313965,1.6875,3.9375,-17.25,-0.252246,-1.26199,-1.83276
2315,-1,0,-1,-3,-2,-1,-2,-1,0.941895,-0.0332031,0.313965,1.6875,3.9375,-17.25,-0.252246,-1.26199,-1.83276
2336,-1,-1,-4,-3,0,1,-2,-2,0.941895,-0.0332031,0.313965,1.6875,3.9375,-17.25,-0.252246,-1.26199,-1.83276
2336,1,1,0,0,-2,-1,-1,0,0.941895,-0.0332031,0.313965,1.6875,3.9375,-17.25,-0.252246,-1.26199,-1.83276
2338,-1,-1,-2,1,3,1,-1,-1,0.923828,0.00439453,0.319336,-6.3125,3.8125,-16.8125,-0.229275,-1.26195,-1.85865
2338,-1,-2,0,0,-1,0,0,-2,0.923828,0.00439453,0.319336,-6.3125,3.8125,-16.8125,-0.229275,-1.26195,-1.85865
2350,0,0,0,-1,-2,2,-1,-1,0.923828,0.00439453,0.319336,-6.3125,3.8125,-16.8125,-0.229275,-1.26195,-1.85865
2350,-1,-2,-2,1,-1,0,0,-1,0.923828,0.00439453,0.319336,-6.3125,3.8125,-16.8125,-0.229275,-1.26195,-1.85865
2359,-1,0,-1,-2,-3,-2,-3,-1,0.904297,0.0166016,0.336914,-15.625,2,-14.1875,-0.212171,-1.2612,-1.88123
2359,-2,-2,-5,-3,-1,-2,-2,-1,0.904297,0.0166016,0.336914,-15.625,2,-14.1875,-0.212171,-1.2612,-1.88123
2374,-1,1,0,0,0,0,1,-1,0.904297,0.0166016,0.336914,-15.625,2,-14.1875,-0.212171,-1.2612,-1.88123
2374,-2,-2,-1,1,0,0,0,0,0.904297,0.0166016,0.336914,-15.625,2,-14.1875,-0.212171,-1.2612,-1.88123
2375,0,-1,1,2,-2,-1,-1,-1,0.914062,0.0185547,0.316406,-21.3125,0.125,-12.3125,-0.199956,-1.26187,-1.90145
2375,0,-1,2,0,-1,-2,-3,-1,0.914062,0.0185547,0.316406,-21.3125,0.125,-12.3125,-0.199956,-1.26187,-1.90145
2396,-1,1,-1,-3,-1,-3,-1,-1,0.914062,0.0185547,0.316406,-21.3125,0.125,-12.3125,-0.199956,-1.26187,-1.90145
2396,-2,1,1,3,2,2,0,-2,0.914062,0.0185547,0.316406,-21.3125,0.125,-12.3125,-0.199956,-1.26187,-1.90145
2397,0,-1,-1,-3,0,-1,-2,-1,0.908203,0.0126953,0.326172,-20.4375,-1.3125,-8.75,-0.19199,-1.26227,-1.91675
2397,0,-1,-2,-2,-1,0,-1,1,0.908203,0.0126953,0.326172,-20.4375,-1.3125,-8.75,-0.19199,-1.26227,-1.91675
2410,-2,-2,-3,0,-5,-1,-1,-2,0.908203,0.0126953,0.326172,-20.4375,-1.3125,-8.75,-0.19199,-1.26227,-1.91675
2410,0,1,0,-3,-1,-1,-1,0,0.908203,0.0126953,0.326172,-20.4375,-1.3125,-8.75,-0.19199,-1.26227,-1.91675
2419,-1,1,0,1,-4,1,0,0,0.914062,-0.00146484,0.325195,-15.375,-3.5625,-5.5625,-0.187101,-1.26319,-1.9271
2419,-1,0,-3,-4,-3,-1,2,0,0.914062,-0.00146484,0.325195,-15.375,-3.5625,-5.5625,-0.187101,-1.26319,-1.9271
2434,-1,-3,-1,-2,-2,-2,0,-2,0.914062,-0.00146484,0.325195,-15.375,-3.5625,-5.5625,-0.187101,-1.26319,-1.9271
2434,-1,-3,-2,-1,-1,-3,0,-3,0.914062,-0.00146484,0.325195,-15.375,-3.5625,-5.5625,-0.187101,-1.26319,-1.9271
2435,-2,-4,-6,-2,-1,-2,-1,-1,0.913086,0.0102539,0.317871,-9.5625,-4.9375,-2.0625,-0.183611,-1.26442,-1.93347
2435,-1,1,-1,-1,-2,0,-2,-1,0.913086,0.0102539,0.317871,-9.5625,-4.9375,-2.0625,-0.183611,-1.26442,-1.93347
2456,0,-1,-1,-3,-2,-1,-3,-1,0.913086,0.0102539,0.317871,-9.5625,-4.9375,-2.0625,-0.183611,-1.26442,-1.93347
2456,-2,0,1,1,0,-2,-1,-1,0.913086,0.0102539,0.317871,-9.5625,-4.9375,-2.0625,-0.183611,-1.26442,-1.93347
2457,-1,-1,-2,-2,-2,0,0,-1,0.86377,0.034668,0.316895,-2.1875,-5.1875,1.5,-0.179888,-1.26518,-1.93742
2457,-1,-2,2,2,-1,1,1,0,0.86377,0.034668,0.316895,-2.1875,-5.1875,1.5,-0.179888,-1.26518,-1.93742
2470,0,-2,-4,0,-1,-2,-2,1,0.86377,0.034668,0.316895,-2.1875,-5.1875,1.5,-0.179888,-1.26518,-1.93742
2470,0,-3,-1,-3,-1,-3,-2,-2,0.86377,0.034668,0.316895,-2.1875,-5.1875,1.5,-0.179888,-1.26518,-1.93742
2479,-1,-1,-1,-1,1,-3,0,-1,0.815918,0.0283203,0.338379,5.125,-7.125,6.0625,-0.178771,-1.26574,-1.93628
2479,-1,0,0,0,-1,-2,0,-2,0.815918,0.0283203,0.338379,5.125,-7.125,6.0625,-0.178771,-1.26574,-1.93628
2494,-2,0,1,-2,-1,-2,0,-1,0.815918,0.0283203,0.338379,5.125,-7.125,6.0625,-0.178771,-1.26574,-1.93628
2494,-1,0,1,1,-2,0,1,0,0.815918,0.0283203,0.338379,5.125,-7.125,6.0625,-0.178771,-1.26574,-1.93628
2495,-1,0,-4,-4,-2,1,-2,-1,0.857422,-0.0273438,0.366699,12.9375,-12.3125,9.0625,-0.1834,-1.26703,-1.92631
2495,0,0,-2,1,-1,-2,-2,-3,0.857422,-0.0273438,0.366699,12.9375,-12.3125,9.0625,-0.1834,-1.26703,-1.92631
2523,-2,0,-7,-4,-1,-2,-1,-1,0.857422,-0.0273438,0.366699,12.9375,-12.3125,9.0625,-0.1834,-1.26703,-1.92631
2523,1,-1,1,-2,-2,1,-2,-1,0.857422,-0.0273438,0.366699,12.9375,-12.3125,9.0625,-0.1834,-1.26703,-1.92631
2531,-1,-1,5,0,0,-2,-1,-1,0.942383,-0.0419922,0.323242,15.5,-15.1875,8.6875,-0.188856,-1.27082,-1.91467
2531,0,-1,2,-1,-1,-1,-2,1,0.942383,-0.0419922,0.323242,15.5,-15.1875,8.6875,-0.188856,-1.27082,-1.91467
2532,-1,-2,0,2,-2,1,-1,0,0.942383,-0.0419922,0.323242,15.5,-15.1875,8.6875,-0.188856,-1.27082,-1.91467
2532,-2,-1,-4,-2,-2,0,-2,1,0.942383,-0.0419922,0.323242,15.5,-15.1875,8.6875,-0.188856,-1.27082,-1.91467
2547,-1,-1,-1,1,-1,1,-1,0,0.958496,-0.0166016,0.330566,13.875,-15.6875,9.3125,-0.194165,-1.27489,-1.90389
2547,0,-2,-1,-1,1,-2,0,-1,0.958496,-0.0166016,0.330566,13.875,-15.6875,9.3125,-0.194165,-1.27489,-1.90389
2553,-1,1,2,2,1,-2,-1,-2,0.958496,-0.0166016,0.330566,13.875,-15.6875,9.3125,-0.194165,-1.27489,-1.90389
2553,-2,-1,0,0,-2,-2,0,0,0.958496,-0.0166016,0.330566,13.875,-15.6875,9.3125,-0.194165,-1.27489,-1.90389
2560,-2,0,-2,-1,-1,-2,0,-1,0.945312,-0.0136719,0.300293,6.6875,-15.125,8.125,-0.200222,-1.2793,-1.89477
2560,-3,-2,-1,-2,-2,-2,-1,0,0.945312,-0.0136719,0.300293,6.6875,-15.125,8.125,-0.200222,-1.2793,-1.89477
2576,1,0,-2,-3,-2,-2,-3,-1,0.945312,-0.0136719,0.300293,6.6875,-15.125,8.125,-0.200222,-1.2793,-1.89477
2576,1,-1,-4,-1,1,0,-3,-3,0.945312,-0.0136719,0.300293,6.6875,-15.125,8.125,-0.200222,-1.2793,-1.89477
2578,-1,1,0,0,-2,-2,-1,-3,0.902832,-0.0341797,0.280273,-0.6875,-12.875,7.4375,-0.210087,-1.28258,-1.88429
2578,0,1,1,0,0,0,-3,-1,0.902832,-0.0341797,0.280273,-0.6875,-12.875,7.4375,-0.210087,-1.28258,-1.88429
2589,-2,-2,1,1,-2,0,0,-3,0.902832,-0.0341797,0.280273,-0.6875,-12.875,7.4375,-0.210087,-1.28258,-1.88429
2589,-2,-1,0,-1,0,-1,0,-20,0.902832,-0.0341797,0.280273,-0.6875,-12.875,7.4375,-0.210087,-1.28258,-1.88429
2598,-2,-2,-1,-1,0,0,0,-18,0.881348,-0.0566406,0.260742,1.5,-10.0625,5.6875,-0.218156,-1.2854,-1.87533
2598,0,-1,-1,2,-3,-2,-1,-12,0.881348,-0.0566406,0.260742,1.5,-10.0625,5.6875,-0.218156,-1.2854,-1.87533
2613,0,0,0,-1,-2,0,1,-4,0.881348,-0.0566406,0.260742,1.5,-10.0625,5.6875,-0.218156,-1.2854,-1.87533
2613,-2,0,-2,-2,-1,-2,0,-6,0.881348,-0.0566406,0.260742,1.5,-10.0625,5.6875,-0.218156,-1.2854,-1.87533
2619,0,-3,-1,-2,0,0,-1,0,0.883301,-0.0634766,0.240234,5.0625,-7.0625,4,-0.223871,-1.28757,-1.86734
2619,-2,0,-2,-2,-1,-1,-2,13,0.883301,-0.0634766,0.240234,5.0625,-7.0625,4,-0.223871,-1.28757,-1.86734
2636,-2,0,-3,1,-2,0,-1,19,0.883301,-0.0634766,0.240234,5.0625,-7.0625,4,-0.223871,-1.28757,-1.86734
2636,-1,-1,-2,0,0,0,-1,21,0.883301,-0.0634766,0.240234,5.0625,-7.0625,4,-0.223871,-1.28757,-1.86734
2638,-1,-2,0,-1,-2,-1,-2,7,0.905762,-0.0576172,0.231445,6.125,-4.6875,3.5,-0.227545,-1.28968,-1.86167
2638,-1,0,-1,-1,-1,-1,-1,3,0.905762,-0.0576172,0.231445,6.125,-4.6875,3.5,-0.227545,-1.28968,-1.86167
2650,-1,-2,-2,-3,1,0,-1,0,0.905762,-0.0576172,0.231445,6.125,-4.6875,3.5,-0.227545,-1.28968,-1.86167
2650,0,-2,0,0,-2,-1,0,3,0.905762,-0.0576172,0.231445,6.125,-4.6875,3.5,-0.227545,-1.28968,-1.86167
2659,-1,-1,-2,1,-1,0,-2,4,0.935059,-0.0356445,0.230469,0.3125,-2.5,3.0625,-0.230054,-1.29118,-1.85885
2659,-1,-3,-7,-3,-1,0,0,2,0.935059,-0.0356445,0.230469,0.3125,-2.5,3.0625,-0.230054,-1.29118,-1.85885
2673,-2,1,-1,-2,-2,-2,-2,-1,0.935059,-0.0356445,0.230469,0.3125,-2.5,3.0625,-0.230054,-1.29118,-1.85885
2673,-1,-1,0,-3,-3,-2,-2,7,0.935059,-0.0356445,0.230469,0.3125,-2.5,3.0625,-0.230054,-1.29118,-1.85885
2675,0,-2,-1,-1,-2,-1,-2,26,0.956055,-0.0336914,0.246094,-7.625,-2.4375,3.75,-0.235728,-1.29232,-1.85556
2675,-1,-2,0,1,0,-2,0,17,0.956055,-0.0336914,0.246094,-7.625,-2.4375,3.75,-0.235728,-1.29232,-1.85556
2696,-2,-3,0,0,1,0,-1,7,0.956055,-0.0336914,0.246094,-7.625,-2.4375,3.75,-0.235728,-1.29232,-1.85556
2696,-3,-1,-2,-3,0,0,-1,-3,0.956055,-0.0336914,0.246094,-7.625,-2.4375,3.75,-0.235728,-1.29232,-1.85556
2697,-1,0,1,0,-2,-2,-2,-13,0.973633,-0.0546875,0.236816,-12.9375,-3.125,4.6875,-0.246387,-1.29378,-1.84926
2697,0,0,0,-2,-2,-1,-1,-15,0.973633,-0.0546875,0.236816,-12.9375,-3.125,4.6875,-0.246387,-1.29378,-1.84926
2718,0,0,0,0,-2,-1,0,-15,0.973633,-0.0546875,0.236816,-12.9375,-3.125,4.6875,-0.246387,-1.29378,-1.84926
2718,0,-1,-1,0,-2,0,-1,-8,0.973633,-0.0546875,0.236816,-12.9375,-3.125,4.6875,-0.246387,-1.29378,-1.84926
2720,0,-1,0,-1,-1,-1,-1,-10,0.977051,-0.0722656,0.241211,-13.625,-3.6875,5.0625,-0.259152,-1.29509,-1.84082
2720,-1,-2,2,1,-2,-1,-1,-10,0.977051,-0.0722656,0.241211,-13.625,-3.6875,5.0625,-0.259152,-1.29509,-1.84082
2734,0,-1,0,-3,-1,-3,-2,-7,0.977051,-0.0722656,0.241211,-13.625,-3.6875,5.0625,-0.259152,-1.29509,-1.84082
2734,-1,-1,-3,0,-1,-2,-3,-2,0.977051,-0.0722656,0.241211,-13.625,-3.6875,5.0625,-0.259152,-1.29509,-1.84082
2735,-1,-2,-1,-5,-1,-1,-1,-4,0.980469,-0.0952148,0.244141,-9.9375,-4.75,5.625,-0.272958,-1.29647,-1.83004
2735,-1,1,3,3,0,0,-2,-4,0.980469,-0.0952148,0.244141,-9.9375,-4.75,5.625,-0.272958,-1.29647,-1.83004
2756,1,0,-3,-5,0,1,0,-3,0.980469,-0.0952148,0.244141,-9.9375,-4.75,5.625,-0.272958,-1.29647,-1.83004
2756,-2,-1,-6,-6,0,-1,0,0,0.980469,-0.0952148,0.244141,-9.9375,-4.75,5.625,-0.272958,-1.29647,-1.83004
2758,-1,-1,-2,1,-1,-1,1,-1,0.977051,-0.117188,0.240723,-3.25,-6.3125,6,-0.28733,-1.29814,-1.81649
2758,-1,-2,-2,-2,-3,-2,-1,-3,0.977051,-0.117188,0.240723,-3.25,-6.3125,6,-0.28733,-1.29814,-1.81649
2778,0,0,3,2,-2,-1,-1,-2,0.977051,-0.117188,0.240723,-3.25,-6.3125,6,-0.28733,-1.29814,-1.81649
2778,0,-2,-2,-1,-1,-1,0,-1,0.977051,-0.117188,0.240723,-3.25,-6.3125,6,-0.28733,-1.29814,-1.81649
2780,-2,-1,-4,-2,0,-1,-1,-1,0.975098,-0.136719,0.235352,4.6875,-6.8125,5.4375,-0.300211,-1.30008,-1.80212
2780,-3,-1,2,0,0,-2,0,-2,0.975098,-0.136719,0.235352,4.6875,-6.8125,5.4375,-0.300211,-1.30008,-1.80212
2801,-2,-2,-2,-1,-1,-1,0,1,0.975098,-0.136719,0.235352,4.6875,-6.8125,5.4375,-0.300211,-1.30008,-1.80212
2801,0,-2,2,-1,-2,0,1,-1,0.975098,-0.136719,0.235352,4.6875,-6.8125,5.4375,-0.300211,-1.30008,-1.80212
2803,-2,1,-2,-1,-2,-1,-1,-1,0.975098,-0.12793,0.227051,10.5,-6.4375,4.4375,-0.309042,-1.30207,-1.78938
2803,0,1,-1,-1,-1,0,0,-2,0.975098,-0.12793,0.227051,10.5,-6.4375,4.4375,-0.309042,-1.30207,-1.78938
2816,-2,-1,-2,-2,-1,-2,-2,-1,0.975098,-0.12793,0.227051,10.5,-6.4375,4.4375,-0.309042,-1.30207,-1.78938
2816,-1,0,2,0,0,0,-4,-1,0.975098,-0.12793,0.227051,10.5,-6.4375,4.4375,-0.309042,-1.30207,-1.78938
2818,-1,-1,-4,-4,0,1,-1,1,0.974121,-0.104492,0.225586,11.75,-5.75,3.25,-0.314112,-1.30401,-1.77996
2818,0,-1,-1,-2,-3,-1,-1,0,0.974121,-0.104492,0.225586,11.75,-5.75,3.25,-0.314112,-1.30401,-1.77996
2839,-2,-3,-2,0,-1,-1,-2,-1,0.974121,-0.104492,0.225586,11.75,-5.75,3.25,-0.314112,-1.30401,-1.77996
2839,-1,-2,0,0,-2,1,-1,-1,0.974121,-0.104492,0.225586,11.75,-5.75,3.25,-0.314112,-1.30401,-1.77996
2840,-2,-1,1,-1,1,-1,-1,-3,0.976562,-0.0981445,0.228027,7.6875,-5.1875,2,-0.318235,-1.30602,-1.77324
2840,-1,0,0,-2,0,2,-1,-2,0.976562,-0.0981445,0.228027,7.6875,-5.1875,2,-0.318235,-1.30602,-1.77324
2853,0,-2,-10,-6,-2,-3,-2,-1,0.976562,-0.0981445,0.228027,7.6875,-5.1875,2,-0.318235,-1.30602,-1.77324
2853,-2,-2,0,0,-1,-3,0,0,0.976562,-0.0981445,0.228027,7.6875,-5.1875,2,-0.318235,-1.30602,-1.77324
2855,-1,-1,0,-1,-3,-3,-1,-1,0.972656,-0.0942383,0.236328,0.875,-5,1.375,-0.322837,-1.3077,-1.76822
2855,-1,-1,-2,0,-2,-1,0,-1,0.972656,-0.0942383,0.236328,0.875,-5,1.375,-0.322837,-1.3077,-1.76822
2884,-3,1,6,4,-1,-2,-1,-1,0.972656,-0.0942383,0.236328,0.875,-5,1.375,-0.322837,-1.3077,-1.76822
2884,-2,0,-1,-1,-2,-2,-1,0,0.972656,-0.0942383,0.236328,0.875,-5,1.375,-0.322837,-1.3077,-1.76822
2886,-1,-2,-1,1,1,-2,-1,0,0.951172,-0.0927734,0.235352,-3.3125,-4.6875,1.1875,-0.328172,-1.30923,-1.764
2886,0,-2,-2,-3,-2,-3,-2,0,0.951172,-0.0927734,0.235352,-3.3125,-4.6875,1.1875,-0.328172,-1.30923,-1.764
2899,-1,-1,0,0,-1,0,-1,-1,0.951172,-0.0927734,0.235352,-3.3125,-4.6875,1.1875,-0.328172,-1.30923,-1.764
2899,-1,0,-1,-3,-2,-2,-3,-1,0.951172,-0.0927734,0.235352,-3.3125,-4.6875,1.1875,-0.328172,-1.30923,-1.764
2900,0,-1,1,1,1,1,-1,-2,0.89502,-0.0947266,0.241211,-3.6875,-4.875,1.9375,-0.334994,-1.30985,-1.75798
2900,0,-1,-4,-1,0,0,-2,-2,0.89502,-0.0947266,0.241211,-3.6875,-4.875,1.9375,-0.334994,-1.30985,-1.75798
2913,-1,-1,-1,-1,0,1,-2,-1,0.89502,-0.0947266,0.241211,-3.6875,-4.875,1.9375,-0.334994,-1.30985,-1.75798
2913,1,-1,0,-1,-2,-1,-1,-1,0.89502,-0.0947266,0.241211,-3.6875,-4.875,1.9375,-0.334994,-1.30985,-1.75798
2919,0,-1,-2,1,-2,-1,-1,1,0.841309,-0.104492,0.246582,-0.1875,-6.375,3,-0.343129,-1.31053,-1.74968
2919,-1,0,0,-4,-1,-2,0,2,0.841309,-0.104492,0.246582,-0.1875,-6.375,3,-0.343129,-1.31053,-1.74968
2936,-1,-1,-1,-3,1,-1,-4,0,0.841309,-0.104492,0.246582,-0.1875,-6.375,3,-0.343129,-1.31053,-1.74968
2936,-1,-2,1,1,0,0,0,2,0.841309,-0.104492,0.246582,-0.1875,-6.375,3,-0.343129,-1.31053,-1.74968
2937,-2,-2,-4,-5,-2,-2,0,-1,0.805176,-0.116211,0.25,6.5,-8.1875,3.5,-0.350953,-1.31154,-1.73956
2937,-1,-2,-3,-1,0,-3,-1,-3,0.805176,-0.116211,0.25,6.5,-8.1875,3.5,-0.350953,-1.31154,-1.73956
2958,0,-4,0,-2,0,-1,-1,-18,0.805176,-0.116211,0.25,6.5,-8.1875,3.5,-0.350953,-1.31154,-1.73956
2958,0,0,-3,1,0,-2,0,-21,0.805176,-0.116211,0.25,6.5,-8.1875,3.5,-0.350953,-1.31154,-1.73956
2960,0,1,1,2,0,0,-1,-17,0.791504,-0.125,0.250977,14.6875,-10,3.625,-0.358027,-1.31284,-1.72731
2960,-1,-2,-4,-4,0,-1,-1,-11,0.791504,-0.125,0.250977,14.6875,-10,3.625,-0.358027,-1.31284,-1.72731
2973,0,-2,-4,1,-2,-1,0,-7,0.791504,-0.125,0.250977,14.6875,-10,3.625,-0.358027,-1.31284,-1.72731
2973,-2,-4,1,-1,-3,-1,-2,6,0.791504,-0.125,0.250977,14.6875,-10,3.625,-0.358027,-1.31284,-1.72731
2981,-2,0,0,-2,-3,-1,0,15,0.796387,-0.144531,0.246582,20.8125,-11.8125,3.25,-0.364807,-1.3144,-1.71292
2981,-2,0,3,3,0,-1,-1,19,0.796387,-0.144531,0.246582,20.8125,-11.8125,3.25,-0.364807,-1.3144,-1.71292
2995,0,2,3,0,-2,0,0,19,0.796387,-0.144531,0.246582,20.8125,-11.8125,3.25,-0.364807,-1.3144,-1.71292
2995,1,1,-1,-1,-1,1,0,9,0.796387,-0.144531,0.246582,20.8125,-11.8125,3.25,-0.364807,-1.3144,-1.71292
3002,-1,1,-2,-3,-3,0,-1,5,0.813477,-0.144531,0.232422,25.9375,-12.125,2.1875,-0.369225,-1.31689,-1.69949
3002,-1,0,-1,1,0,-1,-2,1,0.813477,-0.144531,0.232422,25.9375,-12.125,2.1875,-0.369225,-1.31689,-1.69949
3018,0,-1,0,0,-1,-1,-1,4,0.813477,-0.144531,0.232422,25.9375,-12.125,2.1875,-0.369225,-1.31689,-1.69949
3018,-3,-2,-1,-1,0,-2,-1,5,0.813477,-0.144531,0.232422,25.9375,-12.125,2.1875,-0.369225,-1.31689,-1.69949
3020,0,-1,0,-1,-2,-3,-1,25,0.836426,-0.118652,0.227539,27.6875,-11.125,1.0625,-0.369145,-1.31922,-1.68955
3020,0,-1,-1,1,-1,1,0,21,0.836426,-0.118652,0.227539,27.6875,-11.125,1.0625,-0.369145,-1.31922,-1.68955
3033,-2,-2,2,-1,-1,0,-1,14,0.836426,-0.118652,0.227539,27.6875,-11.125,1.0625,-0.369145,-1.31922,-1.68955
3033,0,-2,-6,-4,-1,0,1,4,0.836426,-0.118652,0.227539,27.6875,-11.125,1.0625,-0.369145,-1.31922,-1.68955
3041,0,-3,-2,-1,-1,0,-1,-12,0.855469,-0.109863,0.240723,25.125,-10.125,0,-0.366573,-1.32146,-1.68325
3041,0,-3,-3,-3,-3,-3,0,-15,0.855469,-0.109863,0.240723,25.125,-10.125,0,-0.366573,-1.32146,-1.68325
3056,0,1,3,3,-2,0,-2,-11,0.855469,-0.109863,0.240723,25.125,-10.125,0,-0.366573,-1.32146,-1.68325
3056,-1,-2,-4,-1,0,-1,-2,-11,0.855469,-0.109863,0.240723,25.125,-10.125,0,-0.366573,-1.32146,-1.68325
3058,1,-2,1,-1,0,-1,-1,-12,0.903809,-0.125,0.24707,19.4375,-10,-1.1875,-0.366071,-1.32378,-1.67707
3058,-1,-3,-3,-1,0,-2,-2,-12,0.903809,-0.125,0.24707,19.4375,-10,-1.1875,-0.366071,-1.32378,-1.67707
3087,-1,-2,-1,-2,-1,-2,-4,-5,0.903809,-0.125,0.24707,19.4375,-10,-1.1875,-0.366071,-1.32378,-1.67707
3087,1,2,2,0,-1,-3,-2,-3,0.903809,-0.125,0.24707,19.4375,-10,-1.1875,-0.366071,-1.32378,-1.67707
3088,-2,1,1,1,-1,1,-3,-5,0.95459,-0.127441,0.251465,12.9375,-8.5625,-3.25,-0.364791,-1.326,-1.67386
3088,-3,-1,-4,-5,-2,0,0,-4,0.95459,-0.127441,0.251465,12.9375,-8.5625,-3.25,-0.364791,-1.326,-1.67386
3092,-2,-2,-2,-2,0,0,-1,-2,0.95459,-0.127441,0.251465,12.9375,-8.5625,-3.25,-0.364791,-1.326,-1.67386
3092,-2,-1,-1,-2,-1,1,-2,-2,0.95459,-0.127441,0.251465,12.9375,-8.5625,-3.25,-0.364791,-1.326,-1.67386
3101,-1,1,1,2,-1,-2,1,-1,0.95459,-0.101074,0.247559,7.8125,-6.4375,-4.5,-0.359987,-1.32803,-1.67631
3101,-1,-2,1,-1,0,-1,0,-2,0.95459,-0.101074,0.247559,7.8125,-6.4375,-4.5,-0.359987,-1.32803,-1.67631
3116,-1,-1,-2,-1,1,0,1,-2,0.95459,-0.101074,0.247559,7.8125,-6.4375,-4.5,-0.359987,-1.32803,-1.67631
3116,0,-1,-1,1,2,-2,0,0,0.95459,-0.101074,0.247559,7.8125,-6.4375,-4.5,-0.359987,-1.32803,-1.67631
3118,-1,-1,-4,-5,-2,-1,-1,-2,0.897461,-0.0600586,0.230469,2.875,-4.125,-4.375,-0.352914,-1.32963,-1.68252
3118,-1,0,1,3,-2,0,-1,-2,0.897461,-0.0600586,0.230469,2.875,-4.125,-4.375,-0.352914,-1.32963,-1.68252
3139,1,-2,-5,0,-1,-2,1,0,0.897461,-0.0600586,0.230469,2.875,-4.125,-4.375,-0.352914,-1.32963,-1.68252
3139,-3,0,-2,-3,0,0,1,1,0.897461,-0.0600586,0.230469,2.875,-4.125,-4.375,-0.352914,-1.32963,-1.68252
3141,1,0,-2,-2,0,-1,0,-1,0.822754,-0.0317383,0.219727,-2.6875,-1.5,-3.3125,-0.345647,-1.32997,-1.69063
3141,-2,1,-1,-1,-1,0,0,-2,0.822754,-0.0317383,0.219727,-2.6875,-1.5,-3.3125,-0.345647,-1.32997,-1.69063
3153,-2,0,-3,0,-3,-1,-1,0,0.822754,-0.0317383,0.219727,-2.6875,-1.5,-3.3125,-0.345647,-1.32997,-1.69063
3153,-1,-1,4,1,-3,-1,-1,0,0.822754,-0.0317383,0.219727,-2.6875,-1.5,-3.3125,-0.345647,-1.32997,-1.69063
3160,-2,-3,-1,-2,2,-1,-3,-2,0.759766,-0.0463867,0.21582,-4.875,-0.375,-0.4375,-0.343917,-1.32946,-1.69393
3160,0,1,0,-2,-2,-1,-2,-1,0.759766,-0.0463867,0.21582,-4.875,-0.375,-0.4375,-0.343917,-1.32946,-1.69393
3177,-1,-2,-1,-1,-1,-1,-3,-2,0.759766,-0.0463867,0.21582,-4.875,-0.375,-0.4375,-0.343917,-1.32946,-1.69393
3177,-1,-4,0,-4,-2,-2,-4,0,0.759766,-0.0463867,0.21582,-4.875,-0.375,-0.4375,-0.343917,-1.32946,-1.69393
3178,-2,-1,0,-1,1,0,0,-1,0.727051,-0.0698242,0.212891,-2.9375,1.4375,0.9375,-0.344556,-1.3275,-1.69379
3178,0,-3,1,0,0,2,-1,-1,0.727051,-0.0698242,0.212891,-2.9375,1.4375,0.9375,-0.344556,-1.3275,-1.69379
3199,-2,0,0,-1,-2,0,0,-1,0.727051,-0.0698242,0.212891,-2.9375,1.4375,0.9375,-0.344556,-1.3275,-1.69379
3199,-1,0,-6,-6,-1,0,-1,0,0.727051,-0.0698242,0.212891,-2.9375,1.4375,0.9375,-0.344556,-1.3275,-1.69379
3200,-2,-1,-1,0,-1,-2,-1,-1,0.702148,-0.0800781,0.220703,1.3125,2.8125,2.4375,-0.346409,-1.32495,-1.6915
3200,-1,-2,-1,-3,-1,-2,-2,-1,0.702148,-0.0800781,0.220703,1.3125,2.8125,2.4375,-0.346409,-1.32495,-1.6915
3213,1,-1,-1,-2,0,-4,-1,0,0.702148,-0.0800781,0.220703,1.3125,2.8125,2.4375,-0.346409,-1.32495,-1.6915
3213,-3,-4,0,1,-1,-3,0,-1,0.702148,-0.0800781,0.220703,1.3125,2.8125,2.4375,-0.346409,-1.32495,-1.6915
3220,-2,-4,-2,-1,-1,-1,-2,-2,0.683105,-0.0986328,0.237305,9.1875,1,4.0625,-0.348984,-1.32237,-1.68593
3220,-2,-1,0,-1,-2,-2,-3,-1,0.683105,-0.0986328,0.237305,9.1875,1,4.0625,-0.348984,-1.32237,-1.68593
3236,-2,1,-2,-2,-2,0,0,-1,0.683105,-0.0986328,0.237305,9.1875,1,4.0625,-0.348984,-1.32237,-1.68593
3236,-1,-1,-1,-1,2,-2,1,-1,0.683105,-0.0986328,0.237305,9.1875,1,4.0625,-0.348984,-1.32237,-1.68593
3244,1,-1,-6,-1,-2,-1,-1,1,0.688477,-0.103027,0.222656,16.0625,-0.625,3.6875,-0.350279,-1.32026,-1.67858
3244,-1,-2,-2,1,-2,-2,-2,-1,0.688477,-0.103027,0.222656,16.0625,-0.625,3.6875,-0.350279,-1.32026,-1.67858
3259,0,0,1,-2,1,-2,0,0,0.688477,-0.103027,0.222656,16.0625,-0.625,3.6875,-0.350279,-1.32026,-1.67858
3259,-1,-1,-1,-2,0,-1,1,0,0.688477,-0.103027,0.222656,16.0625,-0.625,3.6875,-0.350279,-1.32026,-1.67858
3260,-1,-1,-3,1,0,-1,1,-1,0.687012,-0.0859375,0.213379,18.875,-0.9375,1.8125,-0.347471,-1.31921,-1.67496
3260,0,0,-2,-1,-1,-1,1,-1,0.687012,-0.0859375,0.213379,18.875,-0.9375,1.8125,-0.347471,-1.31921,-1.67496
3272,-1,1,0,2,-2,-3,-1,0,0.687012,-0.0859375,0.213379,18.875,-0.9375,1.8125,-0.347471,-1.31921,-1.67496
3272,-1,-4,-1,0,0,0,-3,-1,0.687012,-0.0859375,0.213379,18.875,-0.9375,1.8125,-0.347471,-1.31921,-1.67496
3280,0,-1,0,0,-2,0,-1,-1,0.682617,-0.0693359,0.20166,16.4375,-0.625,0.1875,-0.341951,-1.31833,-1.67443
3280,1,1,-6,-5,-1,0,-1,-1,0.682617,-0.0693359,0.20166,16.4375,-0.625,0.1875,-0.341951,-1.31833,-1.67443
3297,0,-3,-3,-2,-1,-1,-1,0,0.682617,-0.0693359,0.20166,16.4375,-0.625,0.1875,-0.341951,-1.31833,-1.67443
3297,-1,2,1,1,-3,-1,-2,0,0.682617,-0.0693359,0.20166,16.4375,-0.625,0.1875,-0.341951,-1.31833,-1.67443
3298,-1,-2,4,4,1,-1,-3,-1,0.691895,-0.0712891,0.188965,14.25,-0.8125,-0.0625,-0.337583,-1.31795,-1.67383
3298,0,-1,-3,-5,0,-1,-1,-1,0.691895,-0.0712891,0.188965,14.25,-0.8125,-0.0625,-0.337583,-1.31795,-1.67383
3319,-3,0,0,-2,-1,1,-2,-2,0.691895,-0.0712891,0.188965,14.25,-0.8125,-0.0625,-0.337583,-1.31795,-1.67383
3319,-1,3,5,4,-1,1,1,0,0.691895,-0.0712891,0.188965,14.25,-0.8125,-0.0625,-0.337583,-1.31795,-1.67383
3320,-1,-2,-23,-16,-3,-1,-1,1,0.723633,-0.078125,0.178711,10.75,-2.0625,-1.4375,-0.334563,-1.31853,-1.67308
3320,0,6,4,1,0,-2,-1,2,0.723633,-0.078125,0.178711,10.75,-2.0625,-1.4375,-0.334563,-1.31853,-1.67308
3341,0,2,-51,-6,0,0,-1,0,0.723633,-0.078125,0.178711,10.75,-2.0625,-1.4375,-0.334563,-1.31853,-1.67308
3341,-6,-20,43,3,-5,-5,-5,-4,0.723633,-0.078125,0.178711,10.75,-2.0625,-1.4375,-0.334563,-1.31853,-1.67308
3342,-3,-4,33,-5,2,0,1,-2,0.721191,-0.0668945,0.166504,10.375,-6.625,-6.5,-0.326651,-1.32175,-1.67789
3342,6,23,28,67,1,-1,2,0,0.721191,-0.0668945,0.166504,10.375,-6.625,-6.5,-0.326651,-1.32175,-1.67789
3356,-8,-43,15,-79,4,4,0,-5,0.721191,-0.0668945,0.166504,10.375,-6.625,-6.5,-0.326651,-1.32175,-1.67789
3356,-1,24,78,5,1,0,0,-3,0.721191,-0.0668945,0.166504,10.375,-6.625,-6.5,-0.326651,-1.32175,-1.67789
3357,-15,-54,-99,-30,-11,-6,-4,-11,0.710449,-0.0820312,0.112305,12.8125,-18.3125,-9.8125,-0.321425,-1.33005,-1.67907
3357,-7,-2,-16,-10,-4,-3,-3,-22,0.710449,-0.0820312,0.112305,12.8125,-18.3125,-9.8125,-0.321425,-1.33005,-1.67907
3379,13,37,50,35,-2,-1,-1,-13,0.710449,-0.0820312,0.112305,12.8125,-18.3125,-9.8125,-0.321425,-1.33005,-1.67907
3379,-5,-5,-24,7,2,2,-2,-11,0.710449,-0.0820312,0.112305,12.8125,-18.3125,-9.8125,-0.321425,-1.33005,-1.67907
3380,2,15,23,-3,-2,-3,-3,-8,0.76123,-0.102051,0.0751953,18,-17.5,-1.4375,-0.328706,-1.33779,-1.66552
3380,2,2,15,-4,3,1,-1,-4,0.76123,-0.102051,0.0751953,18,-17.5,-1.4375,-0.328706,-1.33779,-1.66552
3392,-5,-2,-31,10,-7,-4,-2,2,0.76123,-0.102051,0.0751953,18,-17.5,-1.4375,-0.328706,-1.33779,-1.66552
3392,0,-7,-27,-9,-1,-3,0,16,0.76123,-0.102051,0.0751953,18,-17.5,-1.4375,-0.328706,-1.33779,-1.66552
3401,9,28,23,20,1,-1,-1,21,0.885742,-0.15332,0.115234,45.875,-15.75,0.9375,-0.333071,-1.34375,-1.64487
3401,-5,-24,-24,-13,1,1,0,17,0.885742,-0.15332,0.115234,45.875,-15.75,0.9375,-0.333071,-1.34375,-1.64487
3416,3,9,19,3,1,2,0,10,0.885742,-0.15332,0.115234,45.875,-15.75,0.9375,-0.333071,-1.34375,-1.64487
3416,-3,-4,-24,-5,-3,-1,-2,4,0.885742,-0.15332,0.115234,45.875,-15.75,0.9375,-0.333071,-1.34375,-1.64487
3417,2,10,72,13,-2,1,1,3,0.987793,0.0336914,0.169922,56.375,2,-0.625,-0.302497,-1.34488,-1.65543
3417,-5,-3,2,-19,-3,-2,0,1,0.987793,0.0336914,0.169922,56.375,2,-0.625,-0.302497,-1.34488,-1.65543
3438,0,2,-23,9,1,-1,1,3,0.987793,0.0336914,0.169922,56.375,2,-0.625,-0.302497,-1.34488,-1.65543
3438,0,0,21,-1,1,1,-1,1,0.987793,0.0336914,0.169922,56.375,2,-0.625,-0.302497,-1.34488,-1.65543
3440,0,8,12,4,-1,0,-2,-2,1.00293,0.185547,0.205566,13.375,18.125,3.75,-0.270171,-1.34096,-1.68291
3440,2,3,-28,-1,3,0,0,4,1.00293,0.185547,0.205566,13.375,18.125,3.75,-0.270171,-1.34096,-1.68291
3452,-5,-13,-27,-5,-4,-2,-1,11,1.00293,0.185547,0.205566,13.375,18.125,3.75,-0.270171,-1.34096,-1.68291
3452,4,2,13,9,-3,-1,1,23,1.00293,0.185547,0.205566,13.375,18.125,3.75,-0.270171,-1.34096,-1.68291
3461,4,-1,-75,-22,2,2,4,17,1.01221,0.200684,0.224121,-45.6875,27.1875,5.0625,-0.256657,-1.33294,-1.71133
3461,-1,5,29,-2,-2,-1,-3,9,1.01221,0.200684,0.224121,-45.6875,27.1875,5.0625,-0.256657,-1.33294,-1.71133
3475,0,2,11,9,3,-1,-1,-4,1.01221,0.200684,0.224121,-45.6875,27.1875,5.0625,-0.256657,-1.33294,-1.71133
3475,-2,-2,-29,-5,-1,-1,-1,-15,1.01221,0.200684,0.224121,-45.6875,27.1875,5.0625,-0.256657,-1.33294,-1.71133
3482,2,9,19,4,0,-1,-2,-11,1.03271,0.0625,0.214355,-91,36.4375,2.6875,-0.266579,-1.32231,-1.73325
3482,-2,-14,-16,-2,-1,-1,-2,-10,1.03271,0.0625,0.214355,-91,36.4375,2.6875,-0.266579,-1.32231,-1.73325
3499,0,2,1,4,-1,-2,-1,-10,1.03271,0.0625,0.214355,-91,36.4375,2.6875,-0.266579,-1.32231,-1.73325
3499,3,4,-3,-7,-5,-1,-1,-10,1.03271,0.0625,0.214355,-91,36.4375,2.6875,-0.266579,-1.32231,-1.73325
3500,-1,-2,-2,6,-2,1,0,-9,1.10156,-0.141113,0.245117,-101.875,42.9375,2.5,-0.29146,-1.3076,-1.74416
3500,0,7,4,-8,-3,0,0,-5,1.10156,-0.141113,0.245117,-101.875,42.9375,2.5,-0.29146,-1.3076,-1.74416
3512,-4,6,22,6,-1,1,-1,-4,1.10156,-0.141113,0.245117,-101.875,42.9375,2.5,-0.29146,-1.3076,-1.74416
3512,-2,-1,-7,-4,-2,-4,-1,-5,1.10156,-0.141113,0.245117,-101.875,42.9375,2.5,-0.29146,-1.3076,-1.74416
3521,-2,-3,1,1,0,-2,-1,-4,1.14795,-0.1875,0.269043,-74.4375,49.0625,0.625,-0.308998,-1.29151,-1.75357
3521,1,-5,-8,0,3,-1,0,-2,1.14795,-0.1875,0.269043,-74.4375,49.0625,0.625,-0.308998,-1.29151,-1.75357
3535,1,4,5,-3,-2,-1,1,2,1.14795,-0.1875,0.269043,-74.4375,49.0625,0.625,-0.308998,-1.29151,-1.75357
3535,5,5,-9,0,4,5,1,-1,1.14795,-0.1875,0.269043,-74.4375,49.0625,0.625,-0.308998,-1.29151,-1.75357
3543,-5,-12,-9,2,-4,-2,-1,-5,1.16162,-0.0810547,0.305664,-42.5625,52.375,-2.625,-0.300972,-1.27531,-1.7773
3543,2,6,12,-6,-2,0,-3,0,1.16162,-0.0810547,0.305664,-42.5625,52.375,-2.625,-0.300972,-1.27531,-1.7773
3558,6,-10,-16,-1,2,-1,-1,1,1.16162,-0.0810547,0.305664,-42.5625,52.375,-2.625,-0.300972,-1.27531,-1.7773
3558,-4,2,-7,2,1,0,-1,-2,1.16162,-0.0810547,0.305664,-42.5625,52.375,-2.625,-0.300972,-1.27531,-1.7773
3560,-4,-1,14,3,-1,-2,-1,-3,1.19141,0.019043,0.328125,-35.875,55,-6.75,-0.279867,-1.25931,-1.81187
3560,8,1,2,-1,-5,-3,0,0,1.19141,0.019043,0.328125,-35.875,55,-6.75,-0.279867,-1.25931,-1.81187
3572,-15,-2,9,5,-6,-3,-3,-6,1.19141,0.019043,0.328125,-35.875,55,-6.75,-0.279867,-1.25931,-1.81187
3572,-4,-3,-11,-16,-3,-2,-2,-2,1.19141,0.019043,0.328125,-35.875,55,-6.75,-0.279867,-1.25931,-1.81187
3581,1,2,5,-1,2,1,-2,1,1.2207,0.00146484,0.327637,-57.5625,54.875,-4.625,-0.272646,-1.24376,-1.83985
3581,-3,-7,-7,-8,2,0,1,1,1.2207,0.00146484,0.327637,-57.5625,54.875,-4.625,-0.272646,-1.24376,-1.83985
3596,4,-2,1,15,4,2,2,2,1.2207,0.00146484,0.327637,-57.5625,54.875,-4.625,-0.272646,-1.24376,-1.83985
3596,4,-3,-5,2,-4,-3,-1,1,1.2207,0.00146484,0.327637,-57.5625,54.875,-4.625,-0.272646,-1.24376,-1.83985
3602,13,-1,-4,-2,-11,-3,-4,3,1.25049,-0.0932617,0.362793,-65.625,51.5,0.3125,-0.280804,-1.22798,-1.85529
3602,-26,-5,-12,-20,0,1,-4,-12,1.25049,-0.0932617,0.362793,-65.625,51.5,0.3125,-0.280804,-1.22798,-1.85529
3618,8,1,11,2,3,2,2,2,1.25049,-0.0932617,0.362793,-65.625,51.5,0.3125,-0.280804,-1.22798,-1.85529
3618,2,0,-2,8,6,3,1,2,1.25049,-0.0932617,0.362793,-65.625,51.5,0.3125,-0.280804,-1.22798,-1.85529
3620,6,-2,-4,-2,0,-2,0,-4,1.29443,-0.110352,0.345703,-55.5,52.75,2.3125,-0.288807,-1.21306,-1.8677
3620,-13,-9,-1,-2,-7,-5,-2,-1,1.29443,-0.110352,0.345703,-55.5,52.75,2.3125,-0.288807,-1.21306,-1.8677
3641,-2,0,-2,-8,-6,-5,-4,-2,1.29443,-0.110352,0.345703,-55.5,52.75,2.3125,-0.288807,-1.21306,-1.8677
3641,-2,-6,-8,-5,-1,1,0,-3,1.29443,-0.110352,0.345703,-55.5,52.75,2.3125,-0.288807,-1.21306,-1.8677
3642,3,4,4,3,4,0,0,1,1.32227,-0.118652,0.381836,-49.0625,60.4375,3.9375,-0.293835,-1.19501,-1.88037
3642,-7,-8,1,4,-1,-1,0,0,1.32227,-0.118652,0.381836,-49.0625,60.4375,3.9375,-0.293835,-1.19501,-1.88037
3655,13,-15,-12,-10,-5,-5,-2,4,1.32227,-0.118652,0.381836,-49.0625,60.4375,3.9375,-0.293835,-1.19501,-1.88037
3655,-7,-2,0,2,-2,-3,-1,-3,1.32227,-0.118652,0.381836,-49.0625,60.4375,3.9375,-0.293835,-1.19501,-1.88037
3662,-6,-5,1,0,-1,1,0,1,1.26807,-0.162109,0.427246,-36.75,62.375,10.625,-0.301429,-1.17486,-1.88628
3662,17,3,3,3,3,1,0,-2,1.26807,-0.162109,0.427246,-36.75,62.375,10.625,-0.301429,-1.17486,-1.88628
3677,-8,6,1,-3,-1,1,-1,-3,1.26807,-0.162109,0.427246,-36.75,62.375,10.625,-0.301429,-1.17486,-1.88628
3677,4,-1,-2,5,-2,-3,-2,-2,1.26807,-0.162109,0.427246,-36.75,62.375,10.625,-0.301429,-1.17486,-1.88628
3687,1,-7,-4,0,1,1,0,-2,1.21484,-0.158691,0.458496,-12.0625,60.8125,17.875,-0.305635,-1.15405,-1.8866
3687,-8,1,-1,4,0,-1,-1,3,1.21484,-0.158691,0.458496,-12.0625,60.8125,17.875,-0.305635,-1.15405,-1.8866
3702,4,6,1,-3,-2,0,2,1,1.21484,-0.158691,0.458496,-12.0625,60.8125,17.875,-0.305635,-1.15405,-1.8866
3702,-10,-13,-6,-8,-5,0,-2,-5,1.21484,-0.158691,0.458496,-12.0625,60.8125,17.875,-0.305635,-1.15405,-1.8866
3703,-1,1,0,4,2,-1,-1,-4,1.17969,-0.149902,0.506836,-5.75,57.875,20.875,-0.308696,-1.13304,-1.88523
3703,11,0,2,3,-1,1,1,5,1.17969,-0.149902,0.506836,-5.75,57.875,20.875,-0.308696,-1.13304,-1.88523
3716,-2,-2,1,1,-1,1,-4,-6,1.17969,-0.149902,0.506836,-5.75,57.875,20.875,-0.308696,-1.13304,-1.88523
3716,-6,-2,0,-2,-3,1,4,6,1.17969,-0.149902,0.506836,-5.75,57.875,20.875,-0.308696,-1.13304,-1.88523
3723,-10,1,1,-3,0,-3,2,28,1.14502,-0.15332,0.516113,-10.1875,53.4375,22.8125,-0.315404,-1.11323,-1.88138
3723,9,-3,2,3,-2,3,12,-31,1.14502,-0.15332,0.516113,-10.1875,53.4375,22.8125,-0.315404,-1.11323,-1.88138
3739,-4,-3,0,3,5,10,-61,11,1.14502,-0.15332,0.516113,-10.1875,53.4375,22.8125,-0.315404,-1.11323,-1.88138
3739,15,7,-2,-3,-5,-6,42,-11,1.14502,-0.15332,0.516113,-10.1875,53.4375,22.8125,-0.315404,-1.11323,-1.88138
3740,-23,-7,-2,-3,-2,-2,-5,-14,1.08984,-0.195801,0.53125,-17.75,47.5,23.75,-0.327468,-1.09481,-1.87502
3740,-31,-4,-2,-4,-4,-7,-6,6,1.08984,-0.195801,0.53125,-17.75,47.5,23.75,-0.327468,-1.09481,-1.87502
3761,-5,-4,2,1,0,-1,3,-4,1.08984,-0.195801,0.53125,-17.75,47.5,23.75,-0.327468,-1.09481,-1.87502
3761,11,5,0,0,1,1,-15,0,1.08984,-0.195801,0.53125,-17.75,47.5,23.75,-0.327468,-1.09481,-1.87502
3763,20,5,-1,-1,-1,7,25,16,1.05273,-0.250977,0.584473,-10.125,43.4375,22.4375,-0.337949,-1.07635,-1.86759
3763,-8,-9,-6,-8,-4,-3,-2,-11,1.05273,-0.250977,0.584473,-10.125,43.4375,22.4375,-0.337949,-1.07635,-1.86759
3775,-4,0,-2,-2,-5,-5,6,-10,1.05273,-0.250977,0.584473,-10.125,43.4375,22.4375,-0.337949,-1.07635,-1.86759
3775,0,-3,-3,-1,3,-1,-11,-2,1.05273,-0.250977,0.584473,-10.125,43.4375,22.4375,-0.337949,-1.07635,-1.86759
3800,-1,2,0,-1,-2,-2,-2,-1,1.0249,-0.236328,0.562012,-8.5,39.75,12.9375,-0.341945,-1.06117,-1.86713
3800,12,5,2,3,1,-2,-11,8,1.0249,-0.236328,0.562012,-8.5,39.75,12.9375,-0.341945,-1.06117,-1.86713
3800,-3,-4,-4,-4,-3,-3,18,2,1.0249,-0.236328,0.562012,-8.5,39.75,12.9375,-0.341945,-1.06117,-1.86713
3800,-4,-2,-1,-1,-3,-3,-14,4,1.0249,-0.236328,0.562012,-8.5,39.75,12.9375,-0.341945,-1.06117,-1.86713
3802,-2,2,7,0,1,0,-6,-7,0.996582,-0.168945,0.526855,-23.625,39,8.9375,-0.346317,-1.04773,-1.8712
3802,12,9,-1,0,0,1,-3,0,0.996582,-0.168945,0.526855,-23.625,39,8.9375,-0.346317,-1.04773,-1.8712
3821,-2,33,-1,-3,-1,-3,-15,-14,0.996582,-0.168945,0.526855,-23.625,39,8.9375,-0.346317,-1.04773,-1.8712
3821,1,-28,-2,-1,-1,-2,2,21,0.996582,-0.168945,0.526855,-23.625,39,8.9375,-0.346317,-1.04773,-1.8712
3823,0,-8,-3,-3,-2,-3,-8,-11,0.932129,-0.236328,0.532715,-33.75,35.0625,10.3125,-0.358382,-1.03444,-1.87153
3823,3,12,4,5,-2,-4,6,0,0.932129,-0.236328,0.532715,-33.75,35.0625,10.3125,-0.358382,-1.03444,-1.87153
3834,-17,-20,7,-3,0,-1,7,4,0.932129,-0.236328,0.532715,-33.75,35.0625,10.3125,-0.358382,-1.03444,-1.87153
3834,-27,6,-8,-7,1,1,-7,-11,0.932129,-0.236328,0.532715,-33.75,35.0625,10.3125,-0.358382,-1.03444,-1.87153
3844,6,37,6,3,-1,-2,1,-2,0.906738,-0.387207,0.515625,-26.25,28.9375,17.8125,-0.379157,-1.0212,-1.86019
3844,8,-51,-6,-1,0,-3,-11,-23,0.906738,-0.387207,0.515625,-26.25,28.9375,17.8125,-0.379157,-1.0212,-1.86019
3859,14,11,1,2,-3,-2,13,67,0.906738,-0.387207,0.515625,-26.25,28.9375,17.8125,-0.379157,-1.0212,-1.86019
3859,-6,0,3,0,-2,-2,-2,-43,0.906738,-0.387207,0.515625,-26.25,28.9375,17.8125,-0.379157,-1.0212,-1.86019
3861,-5,-12,-7,-3,0,-3,-13,-12,0.917969,-0.425781,0.517578,-0.625,27.4375,18.25,-0.39222,-1.00871,-1.84821
3861,5,18,5,3,-1,1,9,14,0.917969,-0.425781,0.517578,-0.625,27.4375,18.25,-0.39222,-1.00871,-1.84821
3881,-3,-9,-6,-2,-2,-3,5,-17,0.917969,-0.425781,0.517578,-0.625,27.4375,18.25,-0.39222,-1.00871,-1.84821
3881,1,4,-5,-3,-2,1,11,5,0.917969,-0.425781,0.517578,-0.625,27.4375,18.25,-0.39222,-1.00871,-1.84821
3883,0,-8,-6,-2,-3,-4,-13,0,0.90332,-0.334961,0.558594,23.5625,27.375,21.5,-0.393428,-0.995713,-1.83827
3883,44,13,4,6,5,9,5,13,0.90332,-0.334961,0.558594,23.5625,27.375,21.5,-0.393428,-0.995713,-1.83827
3894,44,9,-1,-2,1,2,12,11,0.90332,-0.334961,0.558594,23.5625,27.375,21.5,-0.393428,-0.995713,-1.83827
3894,-91,-29,-12,-11,-14,-13,-24,-34,0.90332,-0.334961,0.558594,23.5625,27.375,21.5,-0.393428,-0.995713,-1.83827
3911,11,-9,2,4,1,2,3,-10,0.817871,-0.246094,0.54834,23.3125,28.3125,22.6875,-0.3915,-0.982497,-1.83137
3911,-14,-3,0,-1,1,3,0,7,0.817871,-0.246094,0.54834,23.3125,28.3125,22.6875,-0.3915,-0.982497,-1.83137
3919,58,-7,1,0,-1,-5,5,15,0.817871,-0.246094,0.54834,23.3125,28.3125,22.6875,-0.3915,-0.982497,-1.83137
3919,29,-3,4,4,3,3,1,14,0.817871,-0.246094,0.54834,23.3125,28.3125,22.6875,-0.3915,-0.982497,-1.83137
3920,-13,-20,-5,-1,-2,-4,-3,-6,0.711914,-0.265625,0.448242,10.25,24.8125,24.25,-0.397566,-0.970504,-1.82059
3920,-12,0,11,2,-3,-1,-1,2,0.711914,-0.265625,0.448242,10.25,24.8125,24.25,-0.397566,-0.970504,-1.82059
3941,-18,-9,-9,-2,2,1,5,-12,0.711914,-0.265625,0.448242,10.25,24.8125,24.25,-0.397566,-0.970504,-1.82059
3941,30,3,-7,-4,1,-2,-3,7,0.711914,-0.265625,0.448242,10.25,24.8125,24.25,-0.397566,-0.970504,-1.82059
3942,-6,5,-7,-12,-2,0,-5,-24,0.75,-0.0869141,0.467773,-2,17,12.0625,-0.396294,-0.964493,-1.82138
3942,6,-13,-6,2,5,8,23,73,0.75,-0.0869141,0.467773,-2,17,12.0625,-0.396294,-0.964493,-1.82138
3954,-9,-18,-16,-5,-5,-4,-15,-63,0.75,-0.0869141,0.467773,-2,17,12.0625,-0.396294,-0.964493,-1.82138
3954,5,109,64,12,1,-3,-4,-1,0.75,-0.0869141,0.467773,-2,17,12.0625,-0.396294,-0.964493,-1.82138
3964,-29,-81,-89,-21,-12,-8,12,36,0.722168,-0.177246,0.491699,-9.25,7.25,-2.125,-0.395934,-0.962175,-1.82525
3964,-11,28,-14,-1,-6,-9,-12,-29,0.722168,-0.177246,0.491699,-9.25,7.25,-2.125,-0.395934,-0.962175,-1.82525
3979,-22,4,48,5,-2,-2,-10,-8,0.722168,-0.177246,0.491699,-9.25,7.25,-2.125,-0.395934,-0.962175,-1.82525
3979,4,-55,-93,-6,0,0,-3,7,0.722168,-0.177246,0.491699,-9.25,7.25,-2.125,-0.395934,-0.962175,-1.82525
3980,14,33,127,5,3,3,7,-12,0.694336,-0.334473,0.549316,-16.875,2.6875,6.4375,-0.407972,-0.957452,-1.81934
3980,-11,-13,-86,-20,-5,-3,-9,-2,0.694336,-0.334473,0.549316,-16.875,2.6875,6.4375,-0.407972,-0.957452,-1.81934
4001,-28,-22,43,-2,-5,-11,-3,1,0.694336,-0.334473,0.549316,-16.875,2.6875,6.4375,-0.407972,-0.957452,-1.81934
4001,31,28,-9,17,8,5,7,-4,0.694336,-0.334473,0.549316,-16.875,2.6875,6.4375,-0.407972,-0.957452,-1.81934
4002,47,32,39,9,5,3,-1,13,0.852539,-0.410645,0.460449,11.125,-6.5625,0.125,-0.413725,-0.959773,-1.81092
4002,-49,-31,-14,-7,-5,-5,-3,19,0.852539,-0.410645,0.460449,11.125,-6.5625,0.125,-0.413725,-0.959773,-1.81092
4015,-6,29,-89,0,1,5,7,-12,0.852539,-0.410645,0.460449,11.125,-6.5625,0.125,-0.413725,-0.959773,-1.81092
4015,14,7,99,-11,-2,1,-2,48,0.852539,-0.410645,0.460449,11.125,-6.5625,0.125,-0.413725,-0.959773,-1.81092
4024,87,16,-1,-1,-2,-3,-9,-11,0.812012,-0.260742,0.581055,38.5625,-3.25,7.625,-0.404861,-0.958277,-1.80542
4024,-11,-6,-60,2,3,-13,-25,-48,0.812012,-0.260742,0.581055,38.5625,-3.25,7.625,-0.404861,-0.958277,-1.80542
4039,-70,-14,85,2,0,19,-15,-97,0.812012,-0.260742,0.581055,38.5625,-3.25,7.625,-0.404861,-0.958277,-1.80542
4039,-11,22,0,-2,-10,-13,16,-12,0.812012,-0.260742,0.581055,38.5625,-3.25,7.625,-0.404861,-0.958277,-1.80542
4045,30,3,89,2,-7,-31,5,41,0.750977,-0.134277,0.609375,25.5,-3,20.0625,-0.40085,-0.954988,-1.79758
4045,65,-11,-42,-10,-1,25,14,66,0.750977,-0.134277,0.609375,25.5,-3,20.0625,-0.40085,-0.954988,-1.79758
4061,127,8,42,2,4,1,17,84,0.750977,-0.134277,0.609375,25.5,-3,20.0625,-0.40085,-0.954988,-1.79758
4061,-69,-47,-4,-3,-3,18,-4,-39,0.750977,-0.134277,0.609375,25.5,-3,20.0625,-0.40085,-0.954988,-1.79758
4062,-128,-57,-13,3,-6,-68,-92,-108,0.699707,-0.235352,0.508301,-19.4375,-0.875,17.4375,-0.416156,-0.951485,-1.78715
4062,114,69,56,5,-7,33,63,-7,0.699707,-0.235352,0.508301,-19.4375,-0.875,17.4375,-0.416156,-0.951485,-1.78715
4075,69,23,-77,-19,-9,-22,29,83,0.699707,-0.235352,0.508301,-19.4375,-0.875,17.4375,-0.416156,-0.951485,-1.78715
4075,-8,0,10,19,12,10,4,43,0.699707,-0.235352,0.508301,-19.4375,-0.875,17.4375,-0.416156,-0.951485,-1.78715
4084,44,-45,-73,7,4,10,25,26,0.592285,-0.198242,0.574219,-8.75,-16.875,-9,-0.416277,-0.954412,-1.78986
4084,70,44,39,12,12,0,14,57,0.592285,-0.198242,0.574219,-8.75,-16.875,-9,-0.416277,-0.954412,-1.78986
4099,-91,15,-11,-3,-3,9,-5,-5,0.592285,-0.198242,0.574219,-8.75,-16.875,-9,-0.416277,-0.954412,-1.78986
4099,-2,-64,1,-26,-19,-31,-79,-78,0.592285,-0.198242,0.574219,-8.75,-16.875,-9,-0.416277,-0.954412,-1.78986
4100,67,97,3,16,17,32,46,83,0.634766,-0.385254,0.540039,15.5625,-39.25,-25.5,-0.412878,-0.966251,-1.78963
4100,-26,-51,-7,-11,-10,-17,-27,-56,0.634766,-0.385254,0.540039,15.5625,-39.25,-25.5,-0.412878,-0.966251,-1.78963
4121,-7,41,28,-1,-1,1,15,-5,0.634766,-0.385254,0.540039,15.5625,-39.25,-25.5,-0.412878,-0.966251,-1.78963
4121,-8,-6,-8,3,6,-18,-55,19,0.634766,-0.385254,0.540039,15.5625,-39.25,-25.5,-0.412878,-0.966251,-1.78963
4122,-31,-24,-43,-3,2,25,24,-16,0.793945,-0.576172,0.379883,15.125,-57.1875,11.625,-0.440832,-0.981801,-1.75555
4122,105,82,58,10,3,12,60,92,0.793945,-0.576172,0.379883,15.125,-57.1875,11.625,-0.440832,-0.981801,-1.75555
4134,-7,-16,-17,0,-4,-15,-24,23,0.793945,-0.576172,0.379883,15.125,-57.1875,11.625,-0.440832,-0.981801,-1.75555
4134,-88,-62,-32,-12,-8,-1,19,-26,0.793945,-0.576172,0.379883,15.125,-57.1875,11.625,-0.440832,-0.981801,-1.75555
4144,24,15,-14,-4,-7,-3,-98,-57,0.813965,-0.487305,0.612305,19.6875,-52.0625,-18.6875,-0.444984,-0.996146,-1.74521
4144,44,-4,39,9,-7,-12,9,-20,0.813965,-0.487305,0.612305,19.6875,-52.0625,-18.6875,-0.444984,-0.996146,-1.74521
4159,17,-34,-7,-16,-21,-15,13,-11,0.813965,-0.487305,0.612305,19.6875,-52.0625,-18.6875,-0.444984,-0.996146,-1.74521
4159,42,63,-28,-7,21,21,31,8,0.813965,-0.487305,0.612305,19.6875,-52.0625,-18.6875,-0.444984,-0.996146,-1.74521
4160,-9,-8,23,22,14,29,50,13,0.783691,-0.301758,0.634277,82.4375,-49.75,-34,-0.411368,-1.01239,-1.75114
4160,-84,19,99,77,-3,-5,-9,-21,0.783691,-0.301758,0.634277,82.4375,-49.75,-34,-0.411368,-1.01239,-1.75114
4197,-30,0,-94,-82,-16,-28,-29,-21,0.783691,-0.301758,0.634277,82.4375,-49.75,-34,-0.411368,-1.01239,-1.75114
4197,50,2,0,6,-5,6,12,23,0.783691,-0.301758,0.634277,82.4375,-49.75,-34,-0.411368,-1.01239,-1.75114
4198,-2,26,-4,59,6,-2,22,25,0.880859,-0.0942383,0.692383,48.6875,-55.25,-36.1875,-0.379522,-1.03182,-1.76608
4198,-52,-27,-11,17,29,7,-32,-26,0.880859,-0.0942383,0.692383,48.6875,-55.25,-36.1875,-0.379522,-1.03182,-1.76608
4199,-42,-26,3,-3,6,1,-4,-20,0.880859,-0.0942383,0.692383,48.6875,-55.25,-36.1875,-0.379522,-1.03182,-1.76608
4199,72,58,30,56,7,16,25,16,0.880859,-0.0942383,0.692383,48.6875,-55.25,-36.1875,-0.379522,-1.03182,-1.76608
4204,-37,-25,-111,-72,-43,-27,-25,-21,1.14062,0.0952148,0.310059,-14.5625,-60.25,-5.75,-0.384805,-1.06041,-1.763
4204,-72,-59,-9,-53,-18,-24,-34,-36,1.14062,0.0952148,0.310059,-14.5625,-60.25,-5.75,-0.384805,-1.06041,-1.763
4218,10,5,40,-9,31,24,12,1,1.14062,0.0952148,0.310059,-14.5625,-60.25,-5.75,-0.384805,-1.06041,-1.763
4218,23,3,22,75,38,15,22,21,1.14062,0.0952148,0.310059,-14.5625,-60.25,-5.75,-0.384805,-1.06041,-1.763
4221,3,-13,60,38,12,16,8,4,1.65625,0.0444336,0.26709,-6.6875,-43.3125,16.75,-0.399743,-1.08635,-1.74657
4221,-24,9,-70,-65,-25,-17,-19,-16,1.65625,0.0444336,0.26709,-6.6875,-43.3125,16.75,-0.399743,-1.08635,-1.74657
4241,22,-6,-81,-35,-13,10,36,22,1.65625,0.0444336,0.26709,-6.6875,-43.3125,16.75,-0.399743,-1.08635,-1.74657
4241,10,-10,57,-45,-45,-34,-44,-19,1.65625,0.0444336,0.26709,-6.6875,-43.3125,16.75,-0.399743,-1.08635,-1.74657
4243,-16,13,-84,-53,-27,-14,-5,-2,1.25,0.118164,0.0834961,-11.1875,-30.5,6.375,-0.408201,-1.1084,-1.73965
4243,-5,2,59,-2,-17,-6,-1,-2,1.25,0.118164,0.0834961,-11.1875,-30.5,6.375,-0.408201,-1.1084,-1.73965
4254,8,18,4,18,10,9,30,0,1.25,0.118164,0.0834961,-11.1875,-30.5,6.375,-0.408201,-1.1084,-1.73965
4254,6,16,22,71,38,19,7,-14,1.25,0.118164,0.0834961,-11.1875,-30.5,6.375,-0.408201,-1.1084,-1.73965
4263,-2,0,-27,16,5,3,-9,26,1.12695,0.0703125,0.276855,-32.8125,-32.8125,-3.75,-0.41669,-1.12639,-1.74096
4263,-7,-9,-42,-89,-8,0,9,4,1.12695,0.0703125,0.276855,-32.8125,-32.8125,-3.75,-0.41669,-1.12639,-1.74096
4279,4,12,45,91,11,-6,-29,-27,1.12695,0.0703125,0.276855,-32.8125,-32.8125,-3.75,-0.41669,-1.12639,-1.74096
4279,9,-8,58,57,16,21,97,39,1.12695,0.0703125,0.276855,-32.8125,-32.8125,-3.75,-0.41669,-1.12639,-1.74096
4280,16,-16,-58,-104,7,-9,-44,-15,1.09766,0.0566406,0.351562,-38.25,-20.625,4.6875,-0.428121,-1.13682,-1.74058
4280,-28,-4,16,92,34,0,-54,-31,1.09766,0.0566406,0.351562,-38.25,-20.625,4.6875,-0.428121,-1.13682,-1.74058
4301,25,1,27,15,-35,-6,-10,-5,1.09766,0.0566406,0.351562,-38.25,-20.625,4.6875,-0.428121,-1.13682,-1.74058
4301,3,8,-7,-103,-34,-17,6,22,1.09766,0.0566406,0.351562,-38.25,-20.625,4.6875,-0.428121,-1.13682,-1.74058
4302,-48,-49,16,13,36,12,-5,-36,1.10596,0.0761719,0.265137,-26.4375,-7.6875,12.4375,-0.43759,-1.14397,-1.73813
4302,-22,-10,-5,48,41,14,34,18,1.10596,0.0761719,0.265137,-26.4375,-7.6875,12.4375,-0.43759,-1.14397,-1.73813
4315,-11,-21,30,56,18,11,-18,-43,1.10596,0.0761719,0.265137,-26.4375,-7.6875,12.4375,-0.43759,-1.14397,-1.73813
4315,14,-5,-56,-59,-54,-20,-1,-25,1.10596,0.0761719,0.265137,-26.4375,-7.6875,12.4375,-0.43759,-1.14397,-1.73813
4331,2,10,19,-100,-110,-35,13,-9,1.19873,0.0302734,0.132324,-28.375,1.8125,22.5625,-0.457255,-1.14982,-1.72649
4331,1,32,-2,-122,-25,-21,-50,-21,1.19873,0.0302734,0.132324,-28.375,1.8125,22.5625,-0.457255,-1.14982,-1.72649
4338,-40,-4,-23,106,21,1,12,0,1.19873,0.0302734,0.132324,-28.375,1.8125,22.5625,-0.457255,-1.14982,-1.72649
4338,7,-1,15,-18,88,27,5,8,1.19873,0.0302734,0.132324,-28.375,1.8125,22.5625,-0.457255,-1.14982,-1.72649
4339,2,11,42,127,70,24,4,39,1.49805,0.0571289,0.17627,-11.5625,14.3125,36.5625,-0.473566,-1.15187,-1.71172
4339,7,-17,-5,11,-35,-17,10,23,1.49805,0.0571289,0.17627,-11.5625,14.3125,36.5625,-0.473566,-1.15187,-1.71172
4361,3,-4,-13,-125,-50,-6,-18,-1,1.49805,0.0571289,0.17627,-11.5625,14.3125,36.5625,-0.473566,-1.15187,-1.71172
4361,-26,-13,-27,-77,-42,-8,-23,5,1.49805,0.0571289,0.17627,-11.5625,14.3125,36.5625,-0.473566,-1.15187,-1.71172
4363,49,-7,40,54,27,15,23,22,1.35938,0.00488281,0.375488,-15,23.25,32.875,-0.482481,-1.1457,-1.70563
4363,-8,6,-1,58,26,17,22,38,1.35938,0.00488281,0.375488,-15,23.25,32.875,-0.482481,-1.1457,-1.70563
4375,30,-25,2,55,1,-3,-13,39,1.35938,0.00488281,0.375488,-15,23.25,32.875,-0.482481,-1.1457,-1.70563
4375,-27,-30,-96,-94,-71,-42,-23,0,1.35938,0.00488281,0.375488,-15,23.25,32.875,-0.482481,-1.1457,-1.70563
4383,17,0,45,-33,18,0,14,9,1.146,-0.173828,0.455078,-15.1875,25.4375,35.75,-0.498646,-1.13317,-1.69293
4383,7,-5,40,95,69,37,32,17,1.146,-0.173828,0.455078,-15.1875,25.4375,35.75,-0.498646,-1.13317,-1.69293
4398,-1,-4,34,34,35,-4,-54,-39,1.146,-0.173828,0.455078,-15.1875,25.4375,35.75,-0.498646,-1.13317,-1.69293
4398,-15,-26,-16,-21,-34,-17,-5,-9,1.146,-0.173828,0.455078,-15.1875,25.4375,35.75,-0.498646,-1.13317,-1.69293
4405,28,41,36,-5,-45,-12,2,-3,1.12451,-0.296387,0.422852,-12.0625,23.6875,35.375,-0.519865,-1.12067,-1.67477
4405,97,-51,-61,-108,-59,-11,29,20,1.12451,-0.296387,0.422852,-12.0625,23.6875,35.375,-0.519865,-1.12067,-1.67477
4428,-67,-43,41,8,2,-2,23,-41,1.12451,-0.296387,0.422852,-12.0625,23.6875,35.375,-0.519865,-1.12067,-1.67477
4428,17,-2,8,13,30,11,-48,-19,1.12451,-0.296387,0.422852,-12.0625,23.6875,35.375,-0.519865,-1.12067,-1.67477
4430,-77,-12,-11,-28,24,11,0,-14,1.08545,-0.454102,0.411621,-18.625,24,36.8125,-0.549557,-1.10584,-1.65066
4430,67,20,0,85,22,4,-23,-37,1.08545,-0.454102,0.411621,-18.625,24,36.8125,-0.549557,-1.10584,-1.65066
4434,-27,14,0,-22,11,4,15,29,1.08545,-0.454102,0.411621,-18.625,24,36.8125,-0.549557,-1.10584,-1.65066
4434,57,4,27,36,-14,-14,1,25,1.08545,-0.454102,0.411621,-18.625,24,36.8125,-0.549557,-1.10584,-1.65066
4443,-64,-20,-90,-36,-43,-14,-13,-17,0.935547,-0.529785,0.447266,-12.75,22.5625,38,-0.578726,-1.08839,-1.62554
4443,-40,-29,-40,-70,-21,-11,2,-14,0.935547,-0.529785,0.447266,-12.75,22.5625,38,-0.578726,-1.08839,-1.62554
4458,17,-3,8,15,18,5,2,23,0.935547,-0.529785,0.447266,-12.75,22.5625,38,-0.578726,-1.08839,-1.62554
4458,25,16,10,43,24,1,13,-2,0.935547,-0.529785,0.447266,-12.75,22.5625,38,-0.578726,-1.08839,-1.62554
4466,5,14,46,34,21,25,8,9,0.878906,-0.414551,0.456055,4.5625,23.625,32.25,-0.590683,-1.07235,-1.61113
4466,-6,8,-4,7,-28,-5,2,-17,0.878906,-0.414551,0.456055,4.5625,23.625,32.25,-0.590683,-1.07235,-1.61113
4481,-65,-19,-69,-77,-53,-31,-25,-12,0.878906,-0.414551,0.456055,4.5625,23.625,32.25,-0.590683,-1.07235,-1.61113
4481,11,8,29,-21,29,22,6,2,0.878906,-0.414551,0.456055,4.5625,23.625,32.25,-0.590683,-1.07235,-1.61113
4482,54,11,38,44,19,-1,13,16,0.834473,-0.304688,0.45752,-7.8125,28.6875,25.8125,-0.596625,-1.0572,-1.60738
4482,-72,-13,19,6,-23,-18,-18,-24,0.834473,-0.304688,0.45752,-7.8125,28.6875,25.8125,-0.596625,-1.0572,-1.60738
4494,44,-61,6,-33,23,23,16,13,0.834473,-0.304688,0.45752,-7.8125,28.6875,25.8125,-0.596625,-1.0572,-1.60738
4494,-14,-57,-54,27,16,2,7,1,0.834473,-0.304688,0.45752,-7.8125,28.6875,25.8125,-0.596625,-1.0572,-1.60738
4503,13,-26,6,16,11,8,1,4,0.830566,-0.367676,0.462402,-28.625,30.75,26.4375,-0.610881,-1.04097,-1.6029
4503,-4,7,26,-2,-15,-12,-5,-18,0.830566,-0.367676,0.462402,-28.625,30.75,26.4375,-0.610881,-1.04097,-1.6029
4526,16,0,-64,-83,-31,-10,-8,-3,0.830566,-0.367676,0.462402,-28.625,30.75,26.4375,-0.610881,-1.04097,-1.6029
4526,-13,21,56,58,20,-4,-19,-5,0.830566,-0.367676,0.462402,-28.625,30.75,26.4375,-0.610881,-1.04097,-1.6029
4528,23,11,8,22,20,14,11,24,0.787109,-0.352539,0.519043,-28.9375,34.5,28.1875,-0.622217,-1.02255,-1.60162
4528,-13,-19,47,9,-6,-3,0,2,0.787109,-0.352539,0.519043,-28.9375,34.5,28.1875,-0.622217,-1.02255,-1.60162
4541,18,8,-89,34,5,-3,16,3,0.787109,-0.352539,0.519043,-28.9375,34.5,28.1875,-0.622217,-1.02255,-1.60162
4541,-1,36,105,-58,-21,-13,-2,-2,0.787109,-0.352539,0.519043,-28.9375,34.5,28.1875,-0.622217,-1.02255,-1.60162
4543,5,42,-57,0,-20,7,0,-3,0.668945,-0.345703,0.48584,-16.1875,39.25,26.5,-0.626589,-1.00235,-1.60277
4543,-40,-27,-6,-104,-27,-11,-25,-28,0.668945,-0.345703,0.48584,-16.1875,39.25,26.5,-0.626589,-1.00235,-1.60277
4555,40,113,-12,29,33,22,24,41,0.668945,-0.345703,0.48584,-16.1875,39.25,26.5,-0.626589,-1.00235,-1.60277
4555,-33,-54,-128,123,27,3,-20,-17,0.668945,-0.345703,0.48584,-16.1875,39.25,26.5,-0.626589,-1.00235,-1.60277
4563,-5,49,117,-13,21,5,3,-32,0.728516,-0.401855,0.490234,-15.125,41.25,24.625,-0.631196,-0.982718,-1.60421
4563,0,-3,-58,-56,-34,-21,-9,18,0.728516,-0.401855,0.490234,-15.125,41.25,24.625,-0.631196,-0.982718,-1.60421
4578,16,-5,-30,15,7,15,-1,6,0.728516,-0.401855,0.490234,-15.125,41.25,24.625,-0.631196,-0.982718,-1.60421
4578,-6,20,56,15,4,-5,-51,13,0.728516,-0.401855,0.490234,-15.125,41.25,24.625,-0.631196,-0.982718,-1.60421
4584,-5,12,-52,-9,-30,-30,52,-35,0.781738,-0.473633,0.447754,-25.8125,46.4375,35.6875,-0.645497,-0.960318,-1.59969
4584,-7,-10,7,-16,26,3,-17,-69,0.781738,-0.473633,0.447754,-25.8125,46.4375,35.6875,-0.645497,-0.960318,-1.59969
4601,9,-7,67,-51,-26,14,17,37,0.781738,-0.473633,0.447754,-25.8125,46.4375,35.6875,-0.645497,-0.960318,-1.59969
4601,-10,30,44,3,-21,-23,31,-22,0.781738,-0.473633,0.447754,-25.8125,46.4375,35.6875,-0.645497,-0.960318,-1.59969
4603,-12,-16,-66,49,13,8,-24,-8,0.637207,-0.42334,0.436523,-34.3125,50.4375,35.375,-0.659116,-0.936267,-1.59898
4603,57,116,40,88,49,20,-16,16,0.637207,-0.42334,0.436523,-34.3125,50.4375,35.375,-0.659116,-0.936267,-1.59898
4631,-35,-15,35,-16,-24,-32,-5,17,0.637207,-0.42334,0.436523,-34.3125,50.4375,35.375,-0.659116,-0.936267,-1.59898
4631,3,4,35,-37,-16,8,98,-37,0.637207,-0.42334,0.436523,-34.3125,50.4375,35.375,-0.659116,-0.936267,-1.59898
4632,-11,-27,-60,-100,-60,-13,-27,103,0.552734,-0.361328,0.458496,-26.5,52.5625,25.6875,-0.662842,-0.913227,-1.60586
4632,8,40,-4,18,28,-1,23,1,0.552734,-0.361328,0.458496,-26.5,52.5625,25.6875,-0.662842,-0.913227,-1.60586
4637,26,19,17,68,37,32,-12,22,0.552734,-0.361328,0.458496,-26.5,52.5625,25.6875,-0.662842,-0.913227,-1.60586
4637,-17,-20,-114,-13,13,6,-22,9,0.552734,-0.361328,0.458496,-26.5,52.5625,25.6875,-0.662842,-0.913227,-1.60586
4646,-12,-32,-101,27,30,-4,12,22,0.650879,-0.303711,0.466797,-11.125,53.875,14.3125,-0.655359,-0.894636,-1.61937
4646,16,11,-128,-1,-27,7,30,63,0.650879,-0.303711,0.466797,-11.125,53.875,14.3125,-0.655359,-0.894636,-1.61937
4661,17,-34,-16,-57,-47,-43,-57,-15,0.650879,-0.303711,0.466797,-11.125,53.875,14.3125,-0.655359,-0.894636,-1.61937
4661,-41,4,-72,3,12,6,-13,-8,0.650879,-0.303711,0.466797,-11.125,53.875,14.3125,-0.655359,-0.894636,-1.61937
4662,-8,12,91,13,12,4,-22,-60,0.638184,-0.226074,0.489258,-20.6875,57.1875,16.125,-0.648659,-0.875365,-1.63476
4662,-25,-35,-18,6,2,-4,17,30,0.638184,-0.226074,0.489258,-20.6875,57.1875,16.125,-0.648659,-0.875365,-1.63476
4683,7,11,31,-15,-23,6,36,-13,0.638184,-0.226074,0.489258,-20.6875,57.1875,16.125,-0.648659,-0.875365,-1.63476
4683,31,9,38,-11,-4,-9,-43,-67,0.638184,-0.226074,0.489258,-20.6875,57.1875,16.125,-0.648659,-0.875365,-1.63476
4684,-2,-4,96,-19,0,-14,-24,-14,0.445312,-0.425293,0.504395,-30.6875,55,19.5625,-0.653258,-0.850994,-1.64362
4684,-16,-7,94,22,-8,8,4,-21,0.445312,-0.425293,0.504395,-30.6875,55,19.5625,-0.653258,-0.850994,-1.64362
4697,-21,-42,42,40,29,6,13,36,0.445312,-0.425293,0.504395,-30.6875,55,19.5625,-0.653258,-0.850994,-1.64362
4697,7,-3,-39,-28,3,19,51,23,0.445312,-0.425293,0.504395,-30.6875,55,19.5625,-0.653258,-0.850994,-1.64362
4707,35,-16,59,29,-35,5,69,8,0.507812,-0.377441,0.494629,-9.8125,50.4375,18.3125,-0.650387,-0.830268,-1.65198
4707,11,-42,58,-60,-21,-11,-44,12,0.507812,-0.377441,0.494629,-9.8125,50.4375,18.3125,-0.650387,-0.830268,-1.65198
4721,-1,16,5,60,39,-14,-55,-60,0.507812,-0.377441,0.494629,-9.8125,50.4375,18.3125,-0.650387,-0.830268,-1.65198
4721,-1,19,100,26,2,11,59,29,0.507812,-0.377441,0.494629,-9.8125,50.4375,18.3125,-0.650387,-0.830268,-1.65198
4723,4,3,-18,-25,17,10,42,33,0.526367,-0.280273,0.487305,2.375,51.875,8.9375,-0.638261,-0.812716,-1.66586
4723,55,25,5,42,-10,-7,-14,-35,0.526367,-0.280273,0.487305,2.375,51.875,8.9375,-0.638261,-0.812716,-1.66586
4743,30,-4,-81,-99,-47,-6,45,19,0.526367,-0.280273,0.487305,2.375,51.875,8.9375,-0.638261,-0.812716,-1.66586
4743,39,21,-75,15,-9,1,-83,-6,0.526367,-0.280273,0.487305,2.375,51.875,8.9375,-0.638261,-0.812716,-1.66586
4746,-79,-18,97,86,62,26,27,-31,0.45752,-0.366699,0.516602,-6.0625,49.625,7.375,-0.631542,-0.794175,-1.67801
4746,59,-11,-73,-66,-2,-5,-15,4,0.45752,-0.366699,0.516602,-6.0625,49.625,7.375,-0.631542,-0.794175,-1.67801
4757,-3,-34,-21,9,58,12,-13,-30,0.45752,-0.366699,0.516602,-6.0625,49.625,7.375,-0.631542,-0.794175,-1.67801
4757,-32,2,119,-32,-68,-8,28,12,0.45752,-0.366699,0.516602,-6.0625,49.625,7.375,-0.631542,-0.794175,-1.67801
4766,36,25,33,13,-2,-1,-41,-2,0.424805,-0.489746,0.509277,-14.9375,42.875,12.375,-0.634632,-0.774927,-1.68337
4766,17,-7,33,53,16,3,20,30,0.424805,-0.489746,0.509277,-14.9375,42.875,12.375,-0.634632,-0.774927,-1.68337
4781,-26,-7,-57,33,19,1,5,-21,0.424805,-0.489746,0.509277,-14.9375,42.875,12.375,-0.634632,-0.774927,-1.68337
4781,13,-32,50,-44,-40,-26,6,50,0.424805,-0.489746,0.509277,-14.9375,42.875,12.375,-0.634632,-0.774927,-1.68337
4783,72,5,-16,-77,-36,-5,-9,21,0.451172,-0.576172,0.472168,-0.5,43,26.8125,-0.639527,-0.753241,-1.68112
4783,25,30,127,65,47,14,-36,-56,0.451172,-0.576172,0.472168,-0.5,43,26.8125,-0.639527,-0.753241,-1.68112
4804,-24,-3,16,-2,-29,-15,19,-47,0.451172,-0.576172,0.472168,-0.5,43,26.8125,-0.639527,-0.753241,-1.68112
4804,56,-1,-120,-19,20,21,3,11,0.451172,-0.576172,0.472168,-0.5,43,26.8125,-0.639527,-0.753241,-1.68112
4805,-52,21,-18,-22,-22,-23,-16,-32,0.498047,-0.482422,0.473145,8.9375,57,27.5,-0.636121,-0.729723,-1.68414
4805,15,-21,-65,-25,-14,-3,27,6,0.498047,-0.482422,0.473145,8.9375,57,27.5,-0.636121,-0.729723,-1.68414
4817,-21,38,42,61,40,25,23,22,0.498047,-0.482422,0.473145,8.9375,57,27.5,-0.636121,-0.729723,-1.68414
4817,-23,40,72,52,12,-5,-23,22,0.498047,-0.482422,0.473145,8.9375,57,27.5,-0.636121,-0.729723,-1.68414
4827,16,-26,-124,-110,-21,-9,-16,-37,0.397461,-0.474121,0.477539,-0.125,64.5625,16,-0.631686,-0.70511,-1.69393
4827,28,48,24,60,59,34,45,67,0.397461,-0.474121,0.477539,-0.125,64.5625,16,-0.631686,-0.70511,-1.69393
4840,-89,-31,-24,67,13,-4,-43,-58,0.397461,-0.474121,0.477539,-0.125,64.5625,16,-0.631686,-0.70511,-1.69393
4840,-29,29,-11,-29,-33,-6,1,-26,0.397461,-0.474121,0.477539,-0.125,64.5625,16,-0.631686,-0.70511,-1.69393
4855,-39,-46,-105,22,20,-29,-14,-13,0.433105,-0.537109,0.505371,-12.875,60,22.6875,-0.635272,-0.680549,-1.69906
4855,49,1,66,-50,-37,19,-4,27,0.433105,-0.537109,0.505371,-12.875,60,22.6875,-0.635272,-0.680549,-1.69906
4863,86,2,-37,-37,-6,7,1,11,0.433105,-0.537109,0.505371,-12.875,60,22.6875,-0.635272,-0.680549,-1.69906
4863,48,12,23,-2,-2,-9,18,13,0.433105,-0.537109,0.505371,-12.875,60,22.6875,-0.635272,-0.680549,-1.69906
4865,-51,-16,-19,-33,-63,-23,0,-16,0.446777,-0.446777,0.529297,-8.1875,59,25.5625,-0.635642,-0.657088,-1.70459
4865,-19,11,-29,7,32,22,-13,-14,0.446777,-0.446777,0.529297,-8.1875,59,25.5625,-0.635642,-0.657088,-1.70459
4877,59,54,111,99,94,29,7,29,0.446777,-0.446777,0.529297,-8.1875,59,25.5625,-0.635642,-0.657088,-1.70459
4877,-58,-70,-87,-8,5,3,-10,8,0.446777,-0.446777,0.529297,-8.1875,59,25.5625,-0.635642,-0.657088,-1.70459
4886,61,10,21,-61,-63,-30,-16,9,0.433105,-0.418457,0.559082,-3.125,59.5,15.75,-0.630994,-0.635346,-1.71429
4886,-66,-20,-12,-45,-70,-23,5,46,0.433105,-0.418457,0.559082,-3.125,59.5,15.75,-0.630994,-0.635346,-1.71429
4910,99,29,39,-65,14,9,-2,20,0.433105,-0.418457,0.559082,-3.125,59.5,15.75,-0.630994,-0.635346,-1.71429
4910,62,-42,-81,118,94,7,3,14,0.433105,-0.418457,0.559082,-3.125,59.5,15.75,-0.630994,-0.635346,-1.71429
4912,-41,22,43,28,0,43,5,-1,0.443359,-0.399902,0.569336,-2.9375,55.3125,18.6875,-0.627269,-0.614912,-1.72186
4912,-103,-36,-19,23,-28,-42,-25,-50,0.443359,-0.399902,0.569336,-2.9375,55.3125,18.6875,-0.627269,-0.614912,-1.72186
4925,120,40,25,-27,-9,2,14,45,0.443359,-0.399902,0.569336,-2.9375,55.3125,18.6875,-0.627269,-0.614912,-1.72186
4925,77,10,-24,-28,-9,7,36,2,0.443359,-0.399902,0.569336,-2.9375,55.3125,18.6875,-0.627269,-0.614912,-1.72186
4930,-17,10,43,-10,35,2,-14,17,0.433105,-0.423828,0.567871,-4.6875,50.1875,17.0625,-0.625446,-0.596296,-1.72835
4930,-26,-15,-44,-18,-30,-15,-30,-78,0.433105,-0.423828,0.567871,-4.6875,50.1875,17.0625,-0.625446,-0.596296,-1.72835
4938,-59,-63,-35,-25,-48,-45,-6,2,0.433105,-0.423828,0.567871,-4.6875,50.1875,17.0625,-0.625446,-0.596296,-1.72835
4938,-111,-19,25,-59,-14,-9,-36,-19,0.433105,-0.423828,0.567871,-4.6875,50.1875,17.0625,-0.625446,-0.596296,-1.72835
4946,79,52,2,66,48,34,47,38,0.457031,-0.390625,0.634277,3.25,47.25,17.75,-0.619695,-0.578604,-1.73468
4946,60,18,2,41,9,18,47,41,0.457031,-0.390625,0.634277,3.25,47.25,17.75,-0.619695,-0.578604,-1.73468
4961,13,24,30,9,4,-6,-69,-10,0.457031,-0.390625,0.634277,3.25,47.25,17.75,-0.619695,-0.578604,-1.73468
4961,50,-17,-37,-45,-17,-13,7,1,0.457031,-0.390625,0.634277,3.25,47.25,17.75,-0.619695,-0.578604,-1.73468
4967,77,20,48,48,-34,-4,4,-11,0.417969,-0.44043,0.639648,-4.0625,45.25,16.0625,-0.617797,-0.561005,-1.74027
4967,-8,-33,-52,-39,13,-12,-38,-7,0.417969,-0.44043,0.639648,-4.0625,45.25,16.0625,-0.617797,-0.561005,-1.74027
4983,103,35,-56,-44,-26,-2,38,37,0.417969,-0.44043,0.639648,-4.0625,45.25,16.0625,-0.617797,-0.561005,-1.74027
4983,-79,-21,11,13,-8,8,22,-18,0.417969,-0.44043,0.639648,-4.0625,45.25,16.0625,-0.617797,-0.561005,-1.74027
4986,-6,-3,-46,41,24,-7,-36,-27,0.40918,-0.499023,0.646484,-5.375,40.6875,19.0625,-0.618926,-0.543817,-1.74326
4986,-69,-33,20,-13,18,-6,3,-30,0.40918,-0.499023,0.646484,-5.375,40.6875,19.0625,-0.618926,-0.543817,-1.74326
4998,75,16,5,-4,-72,1,39,32,0.40918,-0.499023,0.646484,-5.375,40.6875,19.0625,-0.618926,-0.543817,-1.74326
4998,-78,-7,33,-26,-22,-17,-45,-51,0.40918,-0.499023,0.646484,-5.375,40.6875,19.0625,-0.618926,-0.543817,-1.74326
5006,10,-24,-35,4,29,3,4,3,0.383301,-0.45166,0.655762,0,36,17.375,-0.61724,-0.528413,-1.74615
5006,42,18,19,-11,26,13,28,28,0.383301,-0.45166,0.655762,0,36,17.375,-0.61724,-0.528413,-1.74615
5020,-128,-16,-1,-30,-23,-13,-20,-22,0.383301,-0.45166,0.655762,0,36,17.375,-0.61724,-0.528413,-1.74615
5020,18,9,17,13,28,19,34,-6,0.383301,-0.45166,0.655762,0,36,17.375,-0.61724,-0.528413,-1.74615
5029,-27,-27,-17,-20,-52,-29,-45,23,0.374512,-0.414062,0.647949,-2.125,33.25,15.3125,-0.615476,-0.514534,-1.74937
5029,17,23,17,15,20,-3,-3,2,0.374512,-0.414062,0.647949,-2.125,33.25,15.3125,-0.615476,-0.514534,-1.74937
5044,-78,-30,-9,-3,-13,2,2,-62,0.374512,-0.414062,0.647949,-2.125,33.25,15.3125,-0.615476,-0.514534,-1.74937
5044,123,34,0,1,7,15,57,66,0.374512,-0.414062,0.647949,-2.125,33.25,15.3125,-0.615476,-0.514534,-1.74937
5046,62,15,22,37,58,5,-42,-6,0.391113,-0.460938,0.644531,-10.9375,30.25,16.75,-0.618615,-0.501584,-1.75084
5046,-13,-27,-18,-26,-37,-14,-11,-28,0.391113,-0.460938,0.644531,-10.9375,30.25,16.75,-0.618615,-0.501584,-1.75084
5058,-57,15,33,-16,-11,-9,11,-9,0.391113,-0.460938,0.644531,-10.9375,30.25,16.75,-0.618615,-0.501584,-1.75084
5058,45,-5,-20,44,18,9,-22,12,0.391113,-0.460938,0.644531,-10.9375,30.25,16.75,-0.618615,-0.501584,-1.75084
5066,110,28,9,-22,-23,3,24,32,0.368164,-0.496582,0.637207,-14.3125,28.375,15.375,-0.623776,-0.489078,-1.75206
5066,-104,-23,-28,-50,4,-33,-38,-45,0.368164,-0.496582,0.637207,-14.3125,28.375,15.375,-0.623776,-0.489078,-1.75206
5080,20,-5,10,27,-12,16,1,-1,0.368164,-0.496582,0.637207,-14.3125,28.375,15.375,-0.623776,-0.489078,-1.75206
5080,-28,1,-14,11,11,1,-21,-1,0.368164,-0.496582,0.637207,-14.3125,28.375,15.375,-0.623776,-0.489078,-1.75206
5087,-39,-14,26,-8,16,4,40,-10,0.358887,-0.474121,0.652832,-5.125,27.6875,12.9375,-0.624559,-0.477274,-1.75415
5087,94,14,-47,42,47,27,3,15,0.358887,-0.474121,0.652832,-5.125,27.6875,12.9375,-0.624559,-0.477274,-1.75415
5103,-89,-15,-3,-7,-8,-21,-11,-5,0.358887,-0.474121,0.652832,-5.125,27.6875,12.9375,-0.624559,-0.477274,-1.75415
5103,40,9,1,-81,-70,-39,-38,-33,0.358887,-0.474121,0.652832,-5.125,27.6875,12.9375,-0.624559,-0.477274,-1.75415
5111,-64,-2,-9,-30,-14,-19,5,-36,0.362305,-0.463867,0.66748,-2.75,26.3125,7.5625,-0.623472,-0.467309,-1.75795
5111,108,18,-1,44,51,31,22,-7,0.362305,-0.463867,0.66748,-2.75,26.3125,7.5625,-0.623472,-0.467309,-1.75795
5126,-56,-33,0,70,76,24,11,12,0.362305,-0.463867,0.66748,-2.75,26.3125,7.5625,-0.623472,-0.467309,-1.75795
5126,-5,-5,15,16,57,15,-12,9,0.362305,-0.463867,0.66748,-2.75,26.3125,7.5625,-0.623472,-0.467309,-1.75795
5128,-21,-17,-20,-6,-46,-6,-6,2,0.37207,-0.466309,0.69043,-8.25,24.3125,6.0625,-0.624046,-0.458247,-1.76185
5128,45,14,46,-75,-92,-29,8,18,0.37207,-0.466309,0.69043,-8.25,24.3125,6.0625,-0.624046,-0.458247,-1.76185
5141,-36,-22,-36,-16,-9,-3,-17,13,0.37207,-0.466309,0.69043,-8.25,24.3125,6.0625,-0.624046,-0.458247,-1.76185
5141,-23,0,-8,25,16,1,20,44,0.37207,-0.466309,0.69043,-8.25,24.3125,6.0625,-0.624046,-0.458247,-1.76185
5147,-32,-12,7,3,39,9,3,14,0.341797,-0.536133,0.70166,-9.125,23.75,5.3125,-0.626091,-0.448577,-1.7654
5147,21,8,5,17,45,21,-16,19,0.341797,-0.536133,0.70166,-9.125,23.75,5.3125,-0.626091,-0.448577,-1.7654
5164,-4,4,27,43,-12,-1,10,5,0.341797,-0.536133,0.70166,-9.125,23.75,5.3125,-0.626091,-0.448577,-1.7654
5164,-36,-11,-24,-107,-76,-30,-13,-5,0.341797,-0.536133,0.70166,-9.125,23.75,5.3125,-0.626091,-0.448577,-1.7654
5166,-12,-1,-12,-33,-23,-15,-27,-30,0.368652,-0.51709,0.723145,-3.8125,22.25,3.125,-0.625585,-0.440501,-1.7694
5166,-10,-9,4,58,8,16,24,14,0.368652,-0.51709,0.723145,-3.8125,22.25,3.125,-0.625585,-0.440501,-1.7694
5186,53,12,-40,-54,-11,-13,0,-3,0.368652,-0.51709,0.723145,-3.8125,22.25,3.125,-0.625585,-0.440501,-1.7694
5186,-25,1,55,61,64,14,-2,-20,0.368652,-0.51709,0.723145,-3.8125,22.25,3.125,-0.625585,-0.440501,-1.7694
5188,-29,-18,-25,31,54,34,-7,-19,0.384277,-0.532715,0.733398,-1.625,23,3.1875,-0.62448,-0.432678,-1.77369
5188,-23,1,-14,-33,-73,-30,-8,-14,0.384277,-0.532715,0.733398,-1.625,23,3.1875,-0.62448,-0.432678,-1.77369
5201,89,6,19,-61,-17,-8,20,14,0.384277,-0.532715,0.733398,-1.625,23,3.1875,-0.62448,-0.432678,-1.77369
5201,16,7,-15,61,10,8,-32,-15,0.384277,-0.532715,0.733398,-1.625,23,3.1875,-0.62448,-0.432678,-1.77369
5207,-3,-5,16,-25,-53,-36,-12,-2,0.393555,-0.527344,0.730957,-5.375,20.875,5.125,-0.625092,-0.425308,-1.77675
5207,-48,-13,-12,-35,-1,-6,-3,-7,0.393555,-0.527344,0.730957,-5.375,20.875,5.125,-0.625092,-0.425308,-1.77675
5224,23,13,38,53,77,36,7,-3,0.393555,-0.527344,0.730957,-5.375,20.875,5.125,-0.625092,-0.425308,-1.77675
5224,76,21,41,90,33,42,49,33,0.393555,-0.527344,0.730957,-5.375,20.875,5.125,-0.625092,-0.425308,-1.77675
5225,-88,-39,-32,-30,-9,-43,-21,-44,0.371094,-0.539062,0.730957,-5.5625,21.125,4.625,-0.625898,-0.417653,-1.77993
5225,-20,-10,-21,-34,-18,15,-4,3,0.371094,-0.539062,0.730957,-5.5625,21.125,4.625,-0.625898,-0.417653,-1.77993
5246,23,12,44,46,22,-3,9,-2,0.371094,-0.539062,0.730957,-5.5625,21.125,4.625,-0.625898,-0.417653,-1.77993
5246,0,2,3,-13,-8,-1,31,5,0.371094,-0.539062,0.730957,-5.5625,21.125,4.625,-0.625898,-0.417653,-1.77993
5248,-21,-11,-18,-26,-44,-2,-20,5,0.378418,-0.54248,0.736328,-4.0625,20.5,4.8125,-0.626176,-0.410383,-1.78282
5248,4,6,13,27,-3,-14,-6,-4,0.378418,-0.54248,0.736328,-4.0625,20.5,4.8125,-0.626176,-0.410383,-1.78282
5261,-79,-14,-17,-35,-3,-24,-21,-26,0.378418,-0.54248,0.736328,-4.0625,20.5,4.8125,-0.626176,-0.410383,-1.78282
5261,34,11,14,-7,16,24,-19,-15,0.378418,-0.54248,0.736328,-4.0625,20.5,4.8125,-0.626176,-0.410383,-1.78282
5267,33,9,0,-6,4,27,42,36,0.366699,-0.536133,0.750977,-2.5625,18.9375,6.75,-0.626105,-0.403015,-1.78514
5267,10,0,-12,11,-46,-24,-18,1,0.366699,-0.536133,0.750977,-2.5625,18.9375,6.75,-0.626105,-0.403015,-1.78514
5283,-9,7,0,1,-8,-7,-17,-6,0.366699,-0.536133,0.750977,-2.5625,18.9375,6.75,-0.626105,-0.403015,-1.78514
5283,-18,-2,3,-13,13,-8,-8,-2,0.366699,-0.536133,0.750977,-2.5625,18.9375,6.75,-0.626105,-0.403015,-1.78514
5285,13,23,20,55,67,38,38,30,0.353027,-0.540039,0.758789,-1.125,17.75,7.5625,-0.625665,-0.395645,-1.78677
5285,-14,3,3,-31,-43,-41,-12,-1,0.353027,-0.540039,0.758789,-1.125,17.75,7.5625,-0.625665,-0.395645,-1.78677
5297,-13,-10,-11,-22,1,29,9,-9,0.353027,-0.540039,0.758789,-1.125,17.75,7.5625,-0.625665,-0.395645,-1.78677
5297,-26,0,-12,31,-18,-8,-10,-5,0.353027,-0.540039,0.758789,-1.125,17.75,7.5625,-0.625665,-0.395645,-1.78677
5313,50,8,22,-3,-8,-11,1,4,0.353516,-0.542969,0.748535,-2.5,15.4375,8,-0.626186,-0.38902,-1.78767
5313,-7,2,-16,-5,-37,-11,8,13,0.353516,-0.542969,0.748535,-2.5,15.4375,8,-0.626186,-0.38902,-1.78767
5320,42,5,16,-6,24,-6,-15,5,0.353516,-0.542969,0.748535,-2.5,15.4375,8,-0.626186,-0.38902,-1.78767
5320,0,-5,-39,-13,7,10,-6,-4,0.353516,-0.542969,0.748535,-2.5,15.4375,8,-0.626186,-0.38902,-1.78767
5327,19,8,-2,-17,-22,-4,-5,5,0.353516,-0.542969,0.761719,1.125,13.5625,9.375,-0.625591,-0.3828,-1.78786
5327,-38,-6,27,78,64,24,9,-10,0.353516,-0.542969,0.761719,1.125,13.5625,9.375,-0.625591,-0.3828,-1.78786
5343,63,10,-35,-59,-63,-16,33,17,0.353516,-0.542969,0.761719,1.125,13.5625,9.375,-0.625591,-0.3828,-1.78786
5343,25,-11,12,-70,-38,-15,-48,-50,0.353516,-0.542969,0.761719,1.125,13.5625,9.375,-0.625591,-0.3828,-1.78786
5345,24,-4,14,88,37,13,-20,-23,0.340332,-0.518555,0.753418,3.6875,12.125,9.1875,-0.6238,-0.376991,-1.78797
5345,-70,-11,-75,-43,-40,-6,14,0,0.340332,-0.518555,0.753418,3.6875,12.125,9.1875,-0.6238,-0.376991,-1.78797
5366,-14,-15,4,-4,40,2,-2,-17,0.340332,-0.518555,0.753418,3.6875,12.125,9.1875,-0.6238,-0.376991,-1.78797
5366,37,10,11,41,56,-4,11,14,0.340332,-0.518555,0.753418,3.6875,12.125,9.1875,-0.6238,-0.376991,-1.78797
5367,9,4,-6,-9,-31,4,-3,15,0.351074,-0.535156,0.744629,1,10,7.9375,-0.623511,-0.372232,-1.78767
5367,-17,-8,53,-12,-4,3,10,-15,0.351074,-0.535156,0.744629,1,10,7.9375,-0.623511,-0.372232,-1.78767
5380,-7,-4,-12,71,22,-7,-32,6,0.351074,-0.535156,0.744629,1,10,7.9375,-0.623511,-0.372232,-1.78767
5380,-29,0,-45,-53,-57,-4,8,16,0.351074,-0.535156,0.744629,1,10,7.9375,-0.623511,-0.372232,-1.78767
5383,32,3,7,-37,-5,-5,0,14,0.359863,-0.55127,0.736816,1.5,7.8125,10.4375,-0.623977,-0.368082,-1.78613
5383,-10,-4,-23,13,42,8,2,19,0.359863,-0.55127,0.736816,1.5,7.8125,10.4375,-0.623977,-0.368082,-1.78613
5403,21,4,5,-25,-47,-11,-3,30,0.359863,-0.55127,0.736816,1.5,7.8125,10.4375,-0.623977,-0.368082,-1.78613
5403,-42,0,12,5,0,-19,-4,1,0.359863,-0.55127,0.736816,1.5,7.8125,10.4375,-0.623977,-0.368082,-1.78613
5405,-26,-7,3,5,13,-4,-5,10,0.346191,-0.543945,0.731445,7.4375,6.5,9.875,-0.622265,-0.364163,-1.78435
5405,18,-8,-45,13,56,30,14,14,0.346191,-0.543945,0.731445,7.4375,6.5,9.875,-0.622265,-0.364163,-1.78435
5417,0,-2,-28,-41,-53,-21,-11,-17,0.346191,-0.543945,0.731445,7.4375,6.5,9.875,-0.622265,-0.364163,-1.78435
5417,-17,3,24,-2,14,-3,-3,-21,0.346191,-0.543945,0.731445,7.4375,6.5,9.875,-0.622265,-0.364163,-1.78435
5426,55,20,-6,61,62,27,9,19,0.347656,-0.523926,0.726074,3.5625,5.4375,8.1875,-0.621571,-0.36115,-1.78314
5426,-72,-17,17,-39,-65,-37,-19,-13,0.347656,-0.523926,0.726074,3.5625,5.4375,8.1875,-0.621571,-0.36115,-1.78314
5448,-25,-11,-14,-40,-5,3,-9,-16,0.347656,-0.523926,0.726074,3.5625,5.4375,8.1875,-0.621571,-0.36115,-1.78314
5448,-3,5,13,70,17,9,10,0,0.347656,-0.523926,0.726074,3.5625,5.4375,8.1875,-0.621571,-0.36115,-1.78314
5450,34,7,-17,-34,2,8,15,1,0.344727,-0.544922,0.737793,-2.125,4.1875,7.6875,-0.623136,-0.358394,-1.78157
5450,-36,7,49,24,21,3,-5,-24,0.344727,-0.544922,0.737793,-2.125,4.1875,7.6875,-0.623136,-0.358394,-1.78157
5463,-36,-12,-35,-12,-38,-5,-2,2,0.344727,-0.544922,0.737793,-2.125,4.1875,7.6875,-0.623136,-0.358394,-1.78157
5463,-10,-11,-44,-38,5,5,6,1,0.344727,-0.544922,0.737793,-2.125,4.1875,7.6875,-0.623136,-0.358394,-1.78157
5465,-19,-6,27,38,-44,-17,21,-9,0.325684,-0.5625,0.739258,0.875,3.8125,6.4375,-0.623866,-0.355647,-1.78022
5465,47,9,-1,-26,18,19,-11,-7,0.325684,-0.5625,0.739258,0.875,3.8125,6.4375,-0.623866,-0.355647,-1.78022
5477,-19,2,18,41,9,-5,-20,-15,0.325684,-0.5625,0.739258,0.875,3.8125,6.4375,-0.623866,-0.355647,-1.78022
5477,-28,-11,-38,-57,-98,-24,0,-1,0.325684,-0.5625,0.739258,0.875,3.8125,6.4375,-0.623866,-0.355647,-1.78022
5486,-18,-7,40,7,13,-13,7,-6,0.317871,-0.520996,0.731934,5.0625,2.5625,5.625,-0.622355,-0.353439,-1.77902
5486,15,-5,-33,27,68,29,-15,-3,0.317871,-0.520996,0.731934,5.0625,2.5625,5.625,-0.622355,-0.353439,-1.77902
5501,32,8,38,3,-42,-22,12,9,0.317871,-0.520996,0.731934,5.0625,2.5625,5.625,-0.622355,-0.353439,-1.77902
5501,1,-2,-7,-9,15,7,-15,-11,0.317871,-0.520996,0.731934,5.0625,2.5625,5.625,-0.622355,-0.353439,-1.77902
5502,-12,0,1,2,49,23,16,11,0.32959,-0.51123,0.739258,3.125,2.375,4.375,-0.621143,-0.351839,-1.77844
5502,5,2,-4,5,-13,-31,-17,-8,0.32959,-0.51123,0.739258,3.125,2.375,4.375,-0.621143,-0.351839,-1.77844
5523,-41,2,15,-10,22,24,32,-8,0.32959,-0.51123,0.739258,3.125,2.375,4.375,-0.621143,-0.351839,-1.77844
5523,52,7,17,50,3,3,-27,-9,0.32959,-0.51123,0.739258,3.125,2.375,4.375,-0.621143,-0.351839,-1.77844
5537,27,-12,-30,-74,-42,-19,5,23,0.32666,-0.547363,0.747559,-2,1.1875,3.75,-0.622443,-0.350421,-1.77738
5537,-60,-18,-15,-21,7,-2,-8,-26,0.32666,-0.547363,0.747559,-2,1.1875,3.75,-0.622443,-0.350421,-1.77738
5538,1,1,-5,10,-7,-12,7,12,0.32666,-0.547363,0.747559,-2,1.1875,3.75,-0.622443,-0.350421,-1.77738
5538,11,4,38,46,25,12,9,-2,0.32666,-0.547363,0.747559,-2,1.1875,3.75,-0.622443,-0.350421,-1.77738
5546,-8,2,8,-14,17,26,-14,-15,0.336426,-0.567383,0.736328,1.75,0.5625,4.1875,-0.623005,-0.349391,-1.77604
5546,39,10,-18,45,7,7,3,13,0.336426,-0.567383,0.736328,1.75,0.5625,4.1875,-0.623005,-0.349391,-1.77604
5560,32,4,-7,-48,-37,-19,6,15,0.336426,-0.567383,0.736328,1.75,0.5625,4.1875,-0.623005,-0.349391,-1.77604
5560,30,-2,12,-19,21,-10,-8,4,0.336426,-0.567383,0.736328,1.75,0.5625,4.1875,-0.623005,-0.349391,-1.77604
5584,-58,3,25,15,-27,-18,-22,-12,0.354492,-0.533203,0.737793,4.3125,0.75,2.125,-0.621789,-0.349211,-1.77554
5584,33,-14,-15,-23,-14,5,13,21,0.354492,-0.533203,0.737793,4.3125,0.75,2.125,-0.621789,-0.349211,-1.77554
5585,10,2,-20,29,65,16,-11,-18,0.354492,-0.533203,0.737793,4.3125,0.75,2.125,-0.621789,-0.349211,-1.77554
5585,-23,-5,0,18,-22,-4,6,-8,0.354492,-0.533203,0.737793,4.3125,0.75,2.125,-0.621789,-0.349211,-1.77554
5586,7,9,-12,-38,-31,-7,22,7,0.364258,-0.530762,0.744629,2.625,0.5625,2.6875,-0.620946,-0.349232,-1.7749
5586,21,-5,-2,12,29,3,-26,-23,0.364258,-0.530762,0.744629,2.625,0.5625,2.6875,-0.620946,-0.349232,-1.7749
5606,43,3,5,12,3,-10,-5,22,0.364258,-0.530762,0.744629,2.625,0.5625,2.6875,-0.620946,-0.349232,-1.7749
5606,-1,-1,-3,-28,-7,1,-8,-6,0.364258,-0.530762,0.744629,2.625,0.5625,2.6875,-0.620946,-0.349232,-1.7749
5608,-12,-5,-5,11,1,5,0,-14,0.34668,-0.546387,0.744629,0.3125,1,3.5625,-0.621372,-0.348539,-1.77399
5608,0,5,10,-27,-69,-23,18,18,0.34668,-0.546387,0.744629,0.3125,1,3.5625,-0.621372,-0.348539,-1.77399
5621,6,8,27,25,52,18,-13,1,0.34668,-0.546387,0.744629,0.3125,1,3.5625,-0.621372,-0.348539,-1.77399
5621,-84,-14,-27,18,29,2,-7,-16,0.34668,-0.546387,0.744629,0.3125,1,3.5625,-0.621372,-0.348539,-1.77399
5623,-6,2,-6,-10,22,9,12,-9,0.335938,-0.554688,0.750977,-0.5,2.25,3.25,-0.622078,-0.347121,-1.77323
5623,18,4,43,46,-34,4,10,2,0.335938,-0.554688,0.750977,-0.5,2.25,3.25,-0.622078,-0.347121,-1.77323
5651,-8,-17,-97,-60,3,2,-11,-30,0.335938,-0.554688,0.750977,-0.5,2.25,3.25,-0.622078,-0.347121,-1.77323
5651,55,13,11,-61,-57,-30,9,16,0.335938,-0.554688,0.750977,-0.5,2.25,3.25,-0.622078,-0.347121,-1.77323
5652,-55,-23,2,28,25,0,-18,-42,0.328613,-0.546387,0.757812,-0.3125,2.9375,3.875,-0.622453,-0.345357,-1.77281
5652,24,4,15,9,21,11,19,20,0.328613,-0.546387,0.757812,-0.3125,2.9375,3.875,-0.622453,-0.345357,-1.77281
5666,21,14,1,17,15,0,20,10,0.328613,-0.546387,0.757812,-0.3125,2.9375,3.875,-0.622453,-0.345357,-1.77281
5666,-9,-5,21,0,-43,5,-21,-3,0.328613,-0.546387,0.757812,-0.3125,2.9375,3.875,-0.622453,-0.345357,-1.77281
5668,46,-21,-59,-9,15,-28,-12,7,0.305176,-0.555176,0.765625,0.25,3.3125,4.875,-0.622682,-0.342525,-1.7719
5668,24,20,-1,1,45,46,-12,21,0.305176,-0.555176,0.765625,0.25,3.3125,4.875,-0.622682,-0.342525,-1.7719
5688,22,1,74,42,-75,-14,-1,20,0.305176,-0.555176,0.765625,0.25,3.3125,4.875,-0.622682,-0.342525,-1.7719
5688,-61,-19,-28,-52,66,1,8,25,0.305176,-0.555176,0.765625,0.25,3.3125,4.875,-0.622682,-0.342525,-1.7719
5690,-1,1,-13,25,-31,-9,-19,14,0.302734,-0.565918,0.756348,-1.25,2.75,4.8125,-0.623872,-0.340161,-1.77091
5690,-9,0,32,-11,-44,-26,10,3,0.302734,-0.565918,0.756348,-1.25,2.75,4.8125,-0.623872,-0.340161,-1.77091
5704,18,6,-15,-14,34,13,-1,0,0.302734,-0.565918,0.756348,-1.25,2.75,4.8125,-0.623872,-0.340161,-1.77091
5704,-65,-18,5,-16,-23,7,3,-15,0.302734,-0.565918,0.756348,-1.25,2.75,4.8125,-0.623872,-0.340161,-1.77091
5705,-16,7,7,3,-29,-16,4,-5,0.313965,-0.536133,0.754883,3.8125,2.125,5.4375,-0.622705,-0.338056,-1.7698
5705,-19,-11,-19,8,49,13,31,-8,0.313965,-0.536133,0.754883,3.8125,2.125,5.4375,-0.622705,-0.338056,-1.7698
5726,7,-3,-23,-54,-81,-26,-46,-25,0.313965,-0.536133,0.754883,3.8125,2.125,5.4375,-0.622705,-0.338056,-1.7698
5726,39,9,20,83,56,-4,22,15,0.313965,-0.536133,0.754883,3.8125,2.125,5.4375,-0.622705,-0.338056,-1.7698
5732,7,5,1,21,63,44,-13,-24,0.325684,-0.524414,0.751953,2.4375,3.0625,4.8125,-0.621752,-0.336398,-1.76913
5732,71,14,-4,-20,-3,-11,4,-5,0.325684,-0.524414,0.751953,2.4375,3.0625,4.8125,-0.621752,-0.336398,-1.76913
5741,-1,-16,0,-36,-36,-9,-3,-3,0.325684,-0.524414,0.751953,2.4375,3.0625,4.8125,-0.621752,-0.336398,-1.76913
5741,1,-2,-1,-18,-9,-26,-10,-13,0.325684,-0.524414,0.751953,2.4375,3.0625,4.8125,-0.621752,-0.336398,-1.76913
5748,14,-6,-16,37,9,19,3,14,0.325684,-0.535645,0.745605,-1.0625,3.4375,4.5625,-0.622303,-0.334582,-1.76839
5748,5,3,3,-27,-51,-25,-15,2,0.325684,-0.535645,0.745605,-1.0625,3.4375,4.5625,-0.622303,-0.334582,-1.76839
5764,-34,-9,-18,26,44,18,0,-16,0.325684,-0.535645,0.745605,-1.0625,3.4375,4.5625,-0.622303,-0.334582,-1.76839
5764,24,9,-1,-8,-5,13,6,19,0.325684,-0.535645,0.745605,-1.0625,3.4375,4.5625,-0.622303,-0.334582,-1.76839
