0,-1,-2,1,1,-2,-1,0,-1,0.99707,-0.134277,-0.219727,-4.625,10,3.6875,-2.55115,-1.35425,0.543628
0,-1,0,-2,0,2,0,-2,-1,0.99707,-0.134277,-0.219727,-4.625,10,3.6875,-2.55115,-1.35425,0.543628
0,-1,-1,-1,1,-1,-1,-3,-2,0.99707,-0.134277,-0.219727,-4.625,10,3.6875,-2.55115,-1.35425,0.543628
0,-2,-2,0,-2,1,0,-1,-1,0.99707,-0.134277,-0.219727,-4.625,10,3.6875,-2.55115,-1.35425,0.543628
1,-1,-1,-2,-3,-1,0,0,-2,0.99707,-0.134277,-0.219727,-4.625,10,3.6875,-2.55115,-1.35425,0.543628
1,-1,-3,-1,-2,-1,-1,-1,-1,0.99707,-0.134277,-0.219727,-4.625,10,3.6875,-2.55115,-1.35425,0.543628
2,-2,-1,1,-1,0,-2,-1,-1,0.99707,-0.134277,-0.219727,-4.625,10,3.6875,-2.55115,-1.35425,0.543628
2,-1,-1,1,0,-1,-2,-2,-1,0.99707,-0.134277,-0.219727,-4.625,10,3.6875,-2.55115,-1.35425,0.543628
9,-1,0,-1,0,0,-1,1,0,0.991699,-0.141113,-0.222656,-2.3125,9,2.625,-2.5417,-1.35551,0.533122
9,-2,-1,-2,0,-2,0,-2,0,0.991699,-0.141113,-0.222656,-2.3125,9,2.625,-2.5417,-1.35551,0.533122
16,-1,0,-1,-1,-1,0,-2,1,0.991699,-0.141113,-0.222656,-2.3125,9,2.625,-2.5417,-1.35551,0.533122
16,0,0,0,1,-1,-1,-2,0,0.991699,-0.141113,-0.222656,-2.3125,9,2.625,-2.5417,-1.35551,0.533122
31,-1,0,-1,-2,0,0,0,-2,0.985352,-0.13916,-0.212891,0.4375,7.75,1.75,-2.53316,-1.35646,0.524413
31,-2,0,-1,-1,-2,-2,0,-1,0.985352,-0.13916,-0.212891,0.4375,7.75,1.75,-2.53316,-1.35646,0.524413
39,-2,-1,-3,-2,1,-3,1,1,0.985352,-0.13916,-0.212891,0.4375,7.75,1.75,-2.53316,-1.35646,0.524413
39,-3,-1,-2,-2,-1,-1,-1,-1,0.985352,-0.13916,-0.212891,0.4375,7.75,1.75,-2.53316,-1.35646,0.524413
48,0,1,-2,-1,1,1,-3,1,0.98291,-0.125977,-0.216797,2.625,6.5,0.6875,-2.52774,-1.35724,0.519763
48,0,1,-2,0,-2,-1,0,-3,0.98291,-0.125977,-0.216797,2.625,6.5,0.6875,-2.52774,-1.35724,0.519763
69,0,-2,0,0,-1,0,0,-2,0.98291,-0.125977,-0.216797,2.625,6.5,0.6875,-2.52774,-1.35724,0.519763
69,0,0,-2,-2,-2,-1,0,-2,0.98291,-0.125977,-0.216797,2.625,6.5,0.6875,-2.52774,-1.35724,0.519763
109,2,-2,-2,0,-2,-1,-1,0,0.987793,-0.125488,-0.208008,0,2.8125,-1.75,-2.52556,-1.35926,0.518388
109,-1,-2,0,1,-1,-2,1,-1,0.987793,-0.125488,-0.208008,0,2.8125,-1.75,-2.52556,-1.35926,0.518388
110,-1,-1,-1,1,-1,-2,0,-1,0.987793,-0.125488,-0.208008,0,2.8125,-1.75,-2.52556,-1.35926,0.518388
110,-2,0,0,-1,-1,-2,-1,-3,0.987793,-0.125488,-0.208008,0,2.8125,-1.75,-2.52556,-1.35926,0.518388
110,0,0,0,1,-1,-1,-1,-2,0.987793,-0.125488,-0.208008,0,2.8125,-1.75,-2.52556,-1.35926,0.518388
110,1,-1,-1,0,-1,0,-1,0,0.987793,-0.125488,-0.208008,0,2.8125,-1.75,-2.52556,-1.35926,0.518388
122,0,0,0,0,0,-1,-3,-1,0.987793,-0.125488,-0.208008,0,2.8125,-1.75,-2.52556,-1.35926,0.518388
122,0,-1,-3,0,0,-1,-2,0,0.987793,-0.125488,-0.208008,0,2.8125,-1.75,-2.52556,-1.35926,0.518388
123,-3,0,-2,-1,1,-2,-3,-1,0.987793,-0.125488,-0.208008,0,2.8125,-1.75,-2.52556,-1.35926,0.518388
123,-3,-2,-1,1,1,-2,-3,-2,0.987793,-0.125488,-0.208008,0,2.8125,-1.75,-2.52556,-1.35926,0.518388
127,-1,-1,-1,-1,-2,-1,-1,0,0.985352,-0.129395,-0.197754,-0.8125,1.875,-2.0625,-2.52759,-1.35947,0.520118
127,1,-1,-1,1,-2,0,0,-1,0.985352,-0.129395,-0.197754,-0.8125,1.875,-2.0625,-2.52759,-1.35947,0.520118
136,0,-1,-2,0,-2,-1,-1,0,0.985352,-0.129395,-0.197754,-0.8125,1.875,-2.0625,-2.52759,-1.35947,0.520118
136,-2,-1,-2,0,-1,1,0,0,0.985352,-0.129395,-0.197754,-0.8125,1.875,-2.0625,-2.52759,-1.35947,0.520118
151,1,-1,-2,0,-1,0,0,-2,0.980957,-0.141113,-0.195312,0.875,1.1875,-2.875,-2.52986,-1.35976,0.522771
151,0,-1,-1,-1,-1,0,2,-1,0.980957,-0.141113,-0.195312,0.875,1.1875,-2.875,-2.52986,-1.35976,0.522771
159,-1,-2,0,0,-2,-1,0,-1,0.980957,-0.141113,-0.195312,0.875,1.1875,-2.875,-2.52986,-1.35976,0.522771
159,2,-1,1,-2,-2,-3,-2,-1,0.980957,-0.141113,-0.195312,0.875,1.1875,-2.875,-2.52986,-1.35976,0.522771
182,0,0,-1,-2,-2,0,-2,-1,0.983398,-0.128418,-0.202148,0.125,0.1875,-4.1875,-2.53599,-1.3601,0.528966
182,-1,-2,-1,0,-2,-1,-2,-3,0.983398,-0.128418,-0.202148,0.125,0.1875,-4.1875,-2.53599,-1.3601,0.528966
182,-1,-1,-2,-1,-1,1,-1,-1,0.983398,-0.128418,-0.202148,0.125,0.1875,-4.1875,-2.53599,-1.3601,0.528966
182,-1,-2,-1,-1,-2,0,0,0,0.983398,-0.128418,-0.202148,0.125,0.1875,-4.1875,-2.53599,-1.3601,0.528966
196,0,0,-2,0,-1,1,1,-1,1.00049,-0.129395,-0.199219,-1.875,-0.3125,-4.875,-2.54435,-1.36041,0.536903
196,0,0,-1,0,-1,-1,-2,0,1.00049,-0.129395,-0.199219,-1.875,-0.3125,-4.875,-2.54435,-1.36041,0.536903
197,0,0,-2,-2,-1,-1,-1,-1,1.00049,-0.129395,-0.199219,-1.875,-0.3125,-4.875,-2.54435,-1.36041,0.536903
197,-2,0,-1,0,-1,-1,-1,-2,1.00049,-0.129395,-0.199219,-1.875,-0.3125,-4.875,-2.54435,-1.36041,0.536903
219,-1,0,-1,-1,-2,-2,-1,-2,1.00049,-0.134277,-0.196777,-2,-0.5,-5,-2.55168,-1.3608,0.543675
219,-2,0,0,-1,-1,0,1,-1,1.00049,-0.134277,-0.196777,-2,-0.5,-5,-2.55168,-1.3608,0.543675
219,-2,1,0,-1,-2,-1,2,1,1.00049,-0.134277,-0.196777,-2,-0.5,-5,-2.55168,-1.3608,0.543675
219,-1,0,-1,-2,0,-1,1,-2,1.00049,-0.134277,-0.196777,-2,-0.5,-5,-2.55168,-1.3608,0.543675
241,-1,-2,-1,-1,-2,-3,-1,-2,1.00439,-0.139648,-0.204102,-2.375,-0.5625,-4.5,-2.55859,-1.36088,0.549962
241,-2,-2,-2,0,-1,-1,-3,0,1.00439,-0.139648,-0.204102,-2.375,-0.5625,-4.5,-2.55859,-1.36088,0.549962
242,0,-2,-1,-1,0,-2,-1,0,1.00439,-0.139648,-0.204102,-2.375,-0.5625,-4.5,-2.55859,-1.36088,0.549962
242,-1,-1,0,-1,-1,-1,-2,-1,1.00439,-0.139648,-0.204102,-2.375,-0.5625,-4.5,-2.55859,-1.36088,0.549962
255,0,-1,0,-2,1,0,0,-1,1.0083,-0.131348,-0.205078,-2.75,-0.6875,-4.625,-2.56639,-1.36082,0.556955
255,0,0,0,-2,1,1,0,0,1.0083,-0.131348,-0.205078,-2.75,-0.6875,-4.625,-2.56639,-1.36082,0.556955
256,0,-1,0,-1,-1,0,1,-2,1.0083,-0.131348,-0.205078,-2.75,-0.6875,-4.625,-2.56639,-1.36082,0.556955
256,1,0,0,-2,-1,-2,1,-1,1.0083,-0.131348,-0.205078,-2.75,-0.6875,-4.625,-2.56639,-1.36082,0.556955
278,0,1,0,-1,-2,-1,-1,-1,0.992188,-0.13916,-0.193848,-2,-0.5625,-3.5,-2.57115,-1.36072,0.561212
278,0,-1,-2,-1,-1,0,-1,1,0.992188,-0.13916,-0.193848,-2,-0.5625,-3.5,-2.57115,-1.36072,0.561212
279,1,-2,-2,-1,-2,1,0,-1,0.992188,-0.13916,-0.193848,-2,-0.5625,-3.5,-2.57115,-1.36072,0.561212
279,-1,-1,-2,-2,-1,-1,0,0,0.992188,-0.13916,-0.193848,-2,-0.5625,-3.5,-2.57115,-1.36072,0.561212
302,-3,-1,-1,0,0,-1,0,-2,0.978516,-0.137695,-0.19043,-0.3125,-0.625,-2.5,-2.57298,-1.36002,0.563022
302,-2,1,-1,1,-1,-4,0,-1,0.978516,-0.137695,-0.19043,-0.3125,-0.625,-2.5,-2.57298,-1.36002,0.563022
303,-2,-1,0,-1,-1,-1,-1,0,0.978516,-0.137695,-0.19043,-0.3125,-0.625,-2.5,-2.57298,-1.36002,0.563022
303,-2,1,0,0,-2,0,-1,0,0.978516,-0.137695,-0.19043,-0.3125,-0.625,-2.5,-2.57298,-1.36002,0.563022
316,0,-1,0,-3,0,0,-1,0,0.982422,-0.133301,-0.182129,1.1875,-0.625,-2.0625,-2.57432,-1.35987,0.564988
316,0,-2,-2,-1,-1,0,-2,0,0.982422,-0.133301,-0.182129,1.1875,-0.625,-2.0625,-2.57432,-1.35987,0.564988
316,-1,0,-1,0,0,-1,-1,-2,0.982422,-0.133301,-0.182129,1.1875,-0.625,-2.0625,-2.57432,-1.35987,0.564988
316,0,-2,-3,0,-4,-2,-1,-1,0.982422,-0.133301,-0.182129,1.1875,-0.625,-2.0625,-2.57432,-1.35987,0.564988
338,-3,-2,-1,0,0,-1,-2,-2,0.97998,-0.137207,-0.177246,1.0625,-1.0625,-1.6875,-2.57491,-1.35958,0.566009
338,-1,0,-1,-2,0,-2,0,-3,0.97998,-0.137207,-0.177246,1.0625,-1.0625,-1.6875,-2.57491,-1.35958,0.566009
339,-1,0,-1,-1,0,-1,2,-1,0.97998,-0.137207,-0.177246,1.0625,-1.0625,-1.6875,-2.57491,-1.35958,0.566009
339,-1,-1,-1,-2,-1,3,2,-1,0.97998,-0.137207,-0.177246,1.0625,-1.0625,-1.6875,-2.57491,-1.35958,0.566009
362,-1,-2,0,1,0,2,1,1,0.98877,-0.13916,-0.181152,-2.5625,-1.3125,-1.75,-2.57673,-1.35955,0.567081
362,0,0,-1,-1,0,0,-2,1,0.98877,-0.13916,-0.181152,-2.5625,-1.3125,-1.75,-2.57673,-1.35955,0.567081
363,-1,-2,0,-1,0,-1,-4,-1,0.98877,-0.13916,-0.181152,-2.5625,-1.3125,-1.75,-2.57673,-1.35955,0.567081
363,-1,0,-2,0,-1,-2,-4,-3,0.98877,-0.13916,-0.181152,-2.5625,-1.3125,-1.75,-2.57673,-1.35955,0.567081
376,1,-1,0,0,-3,-2,-3,0,0.979492,-0.151855,-0.17041,-1,-1.625,-1.8125,-2.5767,-1.35885,0.56691
376,-1,-3,-1,-1,-1,-1,0,0,0.979492,-0.151855,-0.17041,-1,-1.625,-1.8125,-2.5767,-1.35885,0.56691
377,0,-1,1,0,-1,-2,-2,0,0.979492,-0.151855,-0.17041,-1,-1.625,-1.8125,-2.5767,-1.35885,0.56691
377,-3,0,-1,-1,0,0,0,0,0.979492,-0.151855,-0.17041,-1,-1.625,-1.8125,-2.5767,-1.35885,0.56691
398,-3,-1,-2,-2,0,-1,-1,0,0.990234,-0.155762,-0.164551,-1.25,-2.4375,-2.9375,-2.57844,-1.35863,0.56846
398,0,-1,-2,-3,-1,-2,-3,-2,0.990234,-0.155762,-0.164551,-1.25,-2.4375,-2.9375,-2.57844,-1.35863,0.56846
399,-1,-1,0,-1,-1,0,-2,-1,0.990234,-0.155762,-0.164551,-1.25,-2.4375,-2.9375,-2.57844,-1.35863,0.56846
399,-1,0,0,-2,-2,-2,-1,-2,0.990234,-0.155762,-0.164551,-1.25,-2.4375,-2.9375,-2.57844,-1.35863,0.56846
422,0,-1,-1,-1,-1,-1,-2,-3,0.999512,-0.142578,-0.175781,-3.5625,-2.75,-4.6875,-2.58462,-1.35842,0.573629
422,-2,-1,-2,0,-2,-1,1,-1,0.999512,-0.142578,-0.175781,-3.5625,-2.75,-4.6875,-2.58462,-1.35842,0.573629
422,0,1,-1,-1,0,-1,0,-1,0.999512,-0.142578,-0.175781,-3.5625,-2.75,-4.6875,-2.58462,-1.35842,0.573629
422,1,0,-2,-1,-1,0,-3,-1,0.999512,-0.142578,-0.175781,-3.5625,-2.75,-4.6875,-2.58462,-1.35842,0.573629
436,-1,0,-1,-1,0,0,-1,2,0.992188,-0.138184,-0.176758,-4.375,-2.9375,-5.25,-2.59293,-1.35838,0.580815
436,2,-3,2,0,1,0,1,-1,0.992188,-0.138184,-0.176758,-4.375,-2.9375,-5.25,-2.59293,-1.35838,0.580815
436,-1,-2,-1,0,-1,0,1,0,0.992188,-0.138184,-0.176758,-4.375,-2.9375,-5.25,-2.59293,-1.35838,0.580815
436,0,1,1,-1,-2,-2,0,-1,0.992188,-0.138184,-0.176758,-4.375,-2.9375,-5.25,-2.59293,-1.35838,0.580815
458,-1,1,-1,-1,-3,-2,-1,1,1.01367,-0.136719,-0.183594,-5.25,-3.1875,-5.875,-2.60248,-1.35792,0.588768
458,1,0,-2,-1,-2,0,-2,-2,1.01367,-0.136719,-0.183594,-5.25,-3.1875,-5.875,-2.60248,-1.35792,0.588768
459,-3,-2,-2,-1,-1,-2,-3,0,1.01367,-0.136719,-0.183594,-5.25,-3.1875,-5.875,-2.60248,-1.35792,0.588768
459,-1,-1,2,0,1,1,-2,1,1.01367,-0.136719,-0.183594,-5.25,-3.1875,-5.875,-2.60248,-1.35792,0.588768
482,-3,-1,0,0,-3,0,-2,0,1.02246,-0.128418,-0.191406,-7.9375,-2.625,-7.1875,-2.61571,-1.35857,0.599591
482,-2,-1,0,0,-2,-1,0,-1,1.02246,-0.128418,-0.191406,-7.9375,-2.625,-7.1875,-2.61571,-1.35857,0.599591
482,-2,-1,-2,-3,-2,0,0,0,1.02246,-0.128418,-0.191406,-7.9375,-2.625,-7.1875,-2.61571,-1.35857,0.599591
482,-1,-1,-1,-2,0,0,1,-1,1.02246,-0.128418,-0.191406,-7.9375,-2.625,-7.1875,-2.61571,-1.35857,0.599591
496,-2,-1,0,-2,1,-1,0,-1,1.01221,-0.127441,-0.20459,-9.5625,-1.625,-7.8125,-2.62975,-1.35868,0.610655
496,-2,-1,0,-1,-2,-2,-2,-2,1.01221,-0.127441,-0.20459,-9.5625,-1.625,-7.8125,-2.62975,-1.35868,0.610655
496,-1,-2,-1,-2,0,-1,-2,-2,1.01221,-0.127441,-0.20459,-9.5625,-1.625,-7.8125,-2.62975,-1.35868,0.610655
496,1,0,-1,-2,0,-1,-2,-2,1.01221,-0.127441,-0.20459,-9.5625,-1.625,-7.8125,-2.62975,-1.35868,0.610655
518,1,0,-1,-1,-2,0,-1,0,1.01807,-0.125488,-0.210938,-11.875,-0.4375,-8.875,-2.64577,-1.35952,0.622941
518,-2,0,-1,0,-1,0,0,-2,1.01807,-0.125488,-0.210938,-11.875,-0.4375,-8.875,-2.64577,-1.35952,0.622941
519,-1,-3,-1,1,0,-1,0,-2,1.01807,-0.125488,-0.210938,-11.875,-0.4375,-8.875,-2.64577,-1.35952,0.622941
519,-1,-2,-1,-1,-2,-2,-2,0,1.01807,-0.125488,-0.210938,-11.875,-0.4375,-8.875,-2.64577,-1.35952,0.622941
542,0,-2,1,-2,-1,-1,-3,0,1.01514,-0.125977,-0.208496,-13.6875,0.5625,-8.625,-2.66071,-1.36052,0.633321
542,-2,-2,1,-2,-1,0,0,2,1.01514,-0.125977,-0.208496,-13.6875,0.5625,-8.625,-2.66071,-1.36052,0.633321
542,-1,0,0,-1,-1,-1,-2,0,1.01514,-0.125977,-0.208496,-13.6875,0.5625,-8.625,-2.66071,-1.36052,0.633321
542,-2,-2,-2,0,-1,1,0,0,1.01514,-0.125977,-0.208496,-13.6875,0.5625,-8.625,-2.66071,-1.36052,0.633321
556,-1,-2,-1,0,0,1,2,-1,1.00049,-0.112305,-0.206055,-15.125,0.875,-8.6875,-2.6768,-1.36156,0.644432
556,0,1,-2,-2,-1,-2,-1,0,1.00049,-0.112305,-0.206055,-15.125,0.875,-8.6875,-2.6768,-1.36156,0.644432
557,1,0,-2,-2,-3,-1,-1,-2,1.00049,-0.112305,-0.206055,-15.125,0.875,-8.6875,-2.6768,-1.36156,0.644432
557,0,-2,-1,0,-1,-1,-1,0,1.00049,-0.112305,-0.206055,-15.125,0.875,-8.6875,-2.6768,-1.36156,0.644432
578,-1,-1,-2,-2,-1,-1,-1,-3,0.997559,-0.113281,-0.203613,-16.6875,1,-9.375,-2.6944,-1.36317,0.656672
578,-1,0,-2,-4,-1,0,0,-1,0.997559,-0.113281,-0.203613,-16.6875,1,-9.375,-2.6944,-1.36317,0.656672
579,-1,0,-2,-2,0,-1,0,-3,0.997559,-0.113281,-0.203613,-16.6875,1,-9.375,-2.6944,-1.36317,0.656672
579,-1,0,0,0,-1,-2,-2,-1,0.997559,-0.113281,-0.203613,-16.6875,1,-9.375,-2.6944,-1.36317,0.656672
602,-1,1,3,-1,1,-1,-2,-1,0.99707,-0.106934,-0.199219,-16.25,1,-9,-2.71121,-1.36453,0.668137
602,0,-3,-8,-1,-1,0,-1,0,0.99707,-0.106934,-0.199219,-16.25,1,-9,-2.71121,-1.36453,0.668137
603,-3,-2,-1,-1,-1,-1,-1,-2,0.99707,-0.106934,-0.199219,-16.25,1,-9,-2.71121,-1.36453,0.668137
603,-3,0,-1,-3,-2,-3,0,-1,0.99707,-0.106934,-0.199219,-16.25,1,-9,-2.71121,-1.36453,0.668137
616,0,-1,1,1,-1,-2,0,-1,0.971191,-0.11084,-0.193359,-15.6875,0.0625,-8.625,-2.7268,-1.36511,0.678589
616,0,0,3,1,-1,-1,0,0,0.971191,-0.11084,-0.193359,-15.6875,0.0625,-8.625,-2.7268,-1.36511,0.678589
617,0,-1,0,-1,0,1,-1,-1,0.971191,-0.11084,-0.193359,-15.6875,0.0625,-8.625,-2.7268,-1.36511,0.678589
617,-2,-1,-2,0,-1,0,-1,0,0.971191,-0.11084,-0.193359,-15.6875,0.0625,-8.625,-2.7268,-1.36511,0.678589
638,0,0,-2,-1,-2,-3,-1,0,0.979004,-0.109375,-0.195801,-14.5,-1.375,-9.125,-2.74377,-1.36536,0.690852
638,-1,1,0,-2,-1,-2,0,-1,0.979004,-0.109375,-0.195801,-14.5,-1.375,-9.125,-2.74377,-1.36536,0.690852
639,-1,-3,-2,-2,-1,-1,-2,0,0.979004,-0.109375,-0.195801,-14.5,-1.375,-9.125,-2.74377,-1.36536,0.690852
639,0,0,2,0,0,0,-1,0,0.979004,-0.109375,-0.195801,-14.5,-1.375,-9.125,-2.74377,-1.36536,0.690852
662,1,-1,-1,0,-3,-1,-1,-2,0.981445,-0.097168,-0.202637,-12.5,-1.5625,-8.625,-2.76048,-1.36574,0.703533
662,1,-2,-1,-1,-1,-1,-3,-2,0.981445,-0.097168,-0.202637,-12.5,-1.5625,-8.625,-2.76048,-1.36574,0.703533
662,0,2,3,-1,-2,-1,-1,1,0.981445,-0.097168,-0.202637,-12.5,-1.5625,-8.625,-2.76048,-1.36574,0.703533
662,-1,-2,-4,-2,-1,-1,-1,0,0.981445,-0.097168,-0.202637,-12.5,-1.5625,-8.625,-2.76048,-1.36574,0.703533
676,-1,-2,0,0,0,0,-2,-2,0.966309,-0.0932617,-0.20166,-10.0625,-1.5625,-7.3125,-2.77426,-1.36547,0.71416
676,-3,-2,0,-2,0,0,-1,-2,0.966309,-0.0932617,-0.20166,-10.0625,-1.5625,-7.3125,-2.77426,-1.36547,0.71416
684,0,0,1,-1,-2,-1,-2,0,0.966309,-0.0932617,-0.20166,-10.0625,-1.5625,-7.3125,-2.77426,-1.36547,0.71416
684,0,-1,0,0,-1,-1,-1,-1,0.966309,-0.0932617,-0.20166,-10.0625,-1.5625,-7.3125,-2.77426,-1.36547,0.71416
698,0,-1,-1,-2,-1,-2,3,-1,0.962402,-0.0844727,-0.200684,-8.625,-2.625,-6.9375,-2.78861,-1.36525,0.725823
698,-2,-1,1,1,1,-1,0,-1,0.962402,-0.0844727,-0.200684,-8.625,-2.625,-6.9375,-2.78861,-1.36525,0.725823
699,-1,-1,-2,-1,-1,-2,1,-1,0.962402,-0.0844727,-0.200684,-8.625,-2.625,-6.9375,-2.78861,-1.36525,0.725823
699,0,1,1,1,0,-1,0,-1,0.962402,-0.0844727,-0.200684,-8.625,-2.625,-6.9375,-2.78861,-1.36525,0.725823
722,-1,0,-6,-1,-1,0,0,-1,0.968262,-0.0805664,-0.197266,-7.9375,-2.8125,-6.6875,-2.80233,-1.36496,0.737159
722,-2,0,5,-1,-2,-2,-2,-2,0.968262,-0.0805664,-0.197266,-7.9375,-2.8125,-6.6875,-2.80233,-1.36496,0.737159
722,-2,-3,-11,0,-1,-2,-1,-1,0.968262,-0.0805664,-0.197266,-7.9375,-2.8125,-6.6875,-2.80233,-1.36496,0.737159
722,-2,-1,1,-1,0,0,-2,-2,0.968262,-0.0805664,-0.197266,-7.9375,-2.8125,-6.6875,-2.80233,-1.36496,0.737159
735,-2,-2,1,-1,-2,-3,-1,-1,0.949707,-0.0727539,-0.191406,-5.4375,-2.625,-5.25,-2.81305,-1.36449,0.746074
735,-1,-1,-2,0,-1,1,-1,-1,0.949707,-0.0727539,-0.191406,-5.4375,-2.625,-5.25,-2.81305,-1.36449,0.746074
743,-2,1,5,0,0,-1,-2,0,0.949707,-0.0727539,-0.191406,-5.4375,-2.625,-5.25,-2.81305,-1.36449,0.746074
743,0,-3,-3,0,0,-3,0,-2,0.949707,-0.0727539,-0.191406,-5.4375,-2.625,-5.25,-2.81305,-1.36449,0.746074
759,-1,-2,-4,0,1,-2,0,-2,0.942871,-0.0732422,-0.194824,-5.5,-3.1875,-5,-2.82298,-1.36375,0.754321
759,-2,-1,-2,0,-1,1,-2,0,0.942871,-0.0732422,-0.194824,-5.5,-3.1875,-5,-2.82298,-1.36375,0.754321
759,-2,0,2,1,0,1,-1,-1,0.942871,-0.0732422,-0.194824,-5.5,-3.1875,-5,-2.82298,-1.36375,0.754321
759,1,1,4,-1,-3,-1,-2,2,0.942871,-0.0732422,-0.194824,-5.5,-3.1875,-5,-2.82298,-1.36375,0.754321
782,-2,-2,-5,-2,-1,0,-2,0,0.945801,-0.0708008,-0.177246,-6.5625,-3.125,-4.8125,-2.83295,-1.36326,0.762264
782,-2,0,3,-2,0,-1,-2,-1,0.945801,-0.0708008,-0.177246,-6.5625,-3.125,-4.8125,-2.83295,-1.36326,0.762264
783,-1,-2,-7,-3,-2,0,-1,0,0.945801,-0.0708008,-0.177246,-6.5625,-3.125,-4.8125,-2.83295,-1.36326,0.762264
783,-2,0,3,-1,-1,0,-1,0,0.945801,-0.0708008,-0.177246,-6.5625,-3.125,-4.8125,-2.83295,-1.36326,0.762264
795,0,-4,-8,-1,-2,-1,-1,-1,0.946289,-0.0834961,-0.166504,-4.3125,-3.9375,-3.625,-2.83857,-1.36275,0.766605
795,2,-1,0,0,-1,-3,0,1,0.946289,-0.0834961,-0.166504,-4.3125,-3.9375,-3.625,-2.83857,-1.36275,0.766605
803,1,0,2,-1,-1,-2,-1,-1,0.946289,-0.0834961,-0.166504,-4.3125,-3.9375,-3.625,-2.83857,-1.36275,0.766605
803,-2,-1,0,0,-1,1,-2,-1,0.946289,-0.0834961,-0.166504,-4.3125,-3.9375,-3.625,-2.83857,-1.36275,0.766605
819,-1,0,0,-1,0,2,-3,-1,0.966309,-0.081543,-0.161133,-2.0625,-5.5625,-3.75,-2.84429,-1.36201,0.771886
819,-2,-2,1,0,-2,-2,-2,1,0.966309,-0.081543,-0.161133,-2.0625,-5.5625,-3.75,-2.84429,-1.36201,0.771886
819,-1,0,2,-2,-1,0,-3,-2,0.966309,-0.081543,-0.161133,-2.0625,-5.5625,-3.75,-2.84429,-1.36201,0.771886
819,1,0,-5,-2,-2,-2,0,-1,0.966309,-0.081543,-0.161133,-2.0625,-5.5625,-3.75,-2.84429,-1.36201,0.771886
842,0,0,-2,-1,-1,-1,-1,0,0.994629,-0.0756836,-0.168945,-1.125,-6,-4.4375,-2.85142,-1.36135,0.779043
842,-1,-2,-2,-2,1,-1,1,-1,0.994629,-0.0756836,-0.168945,-1.125,-6,-4.4375,-2.85142,-1.36135,0.779043
843,-2,-2,0,0,-2,0,1,-1,0.994629,-0.0756836,-0.168945,-1.125,-6,-4.4375,-2.85142,-1.36135,0.779043
843,-1,-1,-2,0,0,-2,0,-2,0.994629,-0.0756836,-0.168945,-1.125,-6,-4.4375,-2.85142,-1.36135,0.779043
855,0,2,5,-2,-2,-2,-2,0,1.00293,-0.0698242,-0.179199,-2.75,-5.5625,-3.9375,-2.85919,-1.36031,0.78601
855,0,-4,-10,-3,0,2,-2,0,1.00293,-0.0698242,-0.179199,-2.75,-5.5625,-3.9375,-2.85919,-1.36031,0.78601
863,2,-1,-2,1,-2,-2,-1,-1,1.00293,-0.0698242,-0.179199,-2.75,-5.5625,-3.9375,-2.85919,-1.36031,0.78601
863,0,-2,-1,-2,-2,-1,-1,-2,1.00293,-0.0698242,-0.179199,-2.75,-5.5625,-3.9375,-2.85919,-1.36031,0.78601
878,-2,-1,0,-1,1,-2,-1,-3,0.991699,-0.065918,-0.173828,-4.25,-4.9375,-3.4375,-2.86627,-1.35975,0.791849
878,0,1,0,-1,-2,-2,-1,-2,0.991699,-0.065918,-0.173828,-4.25,-4.9375,-3.4375,-2.86627,-1.35975,0.791849
880,0,0,1,-2,-1,-2,-1,0,0.991699,-0.065918,-0.173828,-4.25,-4.9375,-3.4375,-2.86627,-1.35975,0.791849
880,-3,-2,-3,-3,-1,-1,-1,-1,0.991699,-0.065918,-0.173828,-4.25,-4.9375,-3.4375,-2.86627,-1.35975,0.791849
902,-2,0,1,-1,-1,-1,-1,-1,0.980469,-0.0756836,-0.172363,-2.5625,-4.5625,-2.875,-2.8704,-1.35902,0.795291
902,-2,0,1,0,0,-2,-2,0,0.980469,-0.0756836,-0.172363,-2.5625,-4.5625,-2.875,-2.8704,-1.35902,0.795291
903,-1,-2,-3,0,0,-3,2,-1,0.980469,-0.0756836,-0.172363,-2.5625,-4.5625,-2.875,-2.8704,-1.35902,0.795291
903,0,1,-1,0,-1,0,-1,-1,0.980469,-0.0756836,-0.172363,-2.5625,-4.5625,-2.875,-2.8704,-1.35902,0.795291
915,1,0,1,0,-2,-1,0,-1,0.996094,-0.081543,-0.176758,-0.0625,-4.3125,-3.5625,-2.8742,-1.35865,0.799498
915,0,-2,0,1,0,0,-3,-3,0.996094,-0.081543,-0.176758,-0.0625,-4.3125,-3.5625,-2.8742,-1.35865,0.799498
924,0,0,-1,-2,-1,-2,-1,-2,0.996094,-0.081543,-0.176758,-0.0625,-4.3125,-3.5625,-2.8742,-1.35865,0.799498
924,-1,-3,-8,-3,0,0,-1,-2,0.996094,-0.081543,-0.176758,-0.0625,-4.3125,-3.5625,-2.8742,-1.35865,0.799498
938,-1,-2,1,0,-2,-1,-1,0,1.00342,-0.0717773,-0.183594,1.1875,-2.6875,-3.375,-2.87757,-1.35826,0.803269
938,-1,-2,-1,-1,-2,-1,0,0,1.00342,-0.0717773,-0.183594,1.1875,-2.6875,-3.375,-2.87757,-1.35826,0.803269
939,-2,0,2,-1,0,0,-3,-2,1.00342,-0.0717773,-0.183594,1.1875,-2.6875,-3.375,-2.87757,-1.35826,0.803269
939,0,0,4,0,-1,-2,-1,0,1.00342,-0.0717773,-0.183594,1.1875,-2.6875,-3.375,-2.87757,-1.35826,0.803269
962,-1,-2,-3,-1,-1,-1,-2,-1,0.99707,-0.0600586,-0.19043,0.6875,-0.9375,-2.5,-2.88038,-1.35888,0.806581
962,0,-1,1,1,-2,-2,0,0,0.99707,-0.0600586,-0.19043,0.6875,-0.9375,-2.5,-2.88038,-1.35888,0.806581
962,-1,0,-2,-2,0,1,-3,0,0.99707,-0.0600586,-0.19043,0.6875,-0.9375,-2.5,-2.88038,-1.35888,0.806581
962,-1,0,0,-2,-2,-1,-2,-1,0.99707,-0.0600586,-0.19043,0.6875,-0.9375,-2.5,-2.88038,-1.35888,0.806581
975,-1,1,-1,0,1,-2,0,-3,0.992188,-0.0585938,-0.202148,-2.5,0.375,-2.5625,-2.88429,-1.35908,0.809646
975,-1,-1,-2,-3,0,-1,-1,-2,0.992188,-0.0585938,-0.202148,-2.5,0.375,-2.5625,-2.88429,-1.35908,0.809646
983,-1,2,0,1,-2,-2,0,-2,0.992188,-0.0585938,-0.202148,-2.5,0.375,-2.5625,-2.88429,-1.35908,0.809646
983,-2,-1,-2,-1,-1,-2,-2,0,0.992188,-0.0585938,-0.202148,-2.5,0.375,-2.5625,-2.88429,-1.35908,0.809646
998,-2,-1,-1,-2,-1,-2,-2,2,0.992676,-0.0742188,-0.205566,-3.0625,1.8125,-2.375,-2.88602,-1.35965,0.810406
998,-1,0,-1,-2,-1,-1,-1,-1,0.992676,-0.0742188,-0.205566,-3.0625,1.8125,-2.375,-2.88602,-1.35965,0.810406
999,-2,-2,-3,-1,-1,1,0,-3,0.992676,-0.0742188,-0.205566,-3.0625,1.8125,-2.375,-2.88602,-1.35965,0.810406
999,-1,-1,0,-1,-2,-2,-3,-2,0.992676,-0.0742188,-0.205566,-3.0625,1.8125,-2.375,-2.88602,-1.35965,0.810406
1021,0,0,1,-1,-1,-1,-2,-1,0.991211,-0.078125,-0.207031,-1.8125,3.0625,-2.3125,-2.88603,-1.36078,0.80996
1021,-2,1,0,-2,-1,0,0,-2,0.991211,-0.078125,-0.207031,-1.8125,3.0625,-2.3125,-2.88603,-1.36078,0.80996
1022,0,-1,-2,0,-1,0,-1,0,0.991211,-0.078125,-0.207031,-1.8125,3.0625,-2.3125,-2.88603,-1.36078,0.80996
1022,-1,-4,-1,0,0,0,-1,-1,0.991211,-0.078125,-0.207031,-1.8125,3.0625,-2.3125,-2.88603,-1.36078,0.80996
1036,0,-4,0,-1,0,-3,-1,0,1.00195,-0.074707,-0.20752,-0.25,4.25,-2.8125,-2.88692,-1.36249,0.810897
1036,0,-3,-1,-1,-1,-2,-1,0,1.00195,-0.074707,-0.20752,-0.25,4.25,-2.8125,-2.88692,-1.36249,0.810897
1043,0,-1,-1,-2,-2,-3,0,-1,1.00195,-0.074707,-0.20752,-0.25,4.25,-2.8125,-2.88692,-1.36249,0.810897
1043,-3,-1,-3,-1,-1,-1,0,1,1.00195,-0.074707,-0.20752,-0.25,4.25,-2.8125,-2.88692,-1.36249,0.810897
1058,-2,1,0,-1,-1,2,-1,-1,0.998047,-0.0625,-0.208984,-0.8125,5.6875,-2.8125,-2.88804,-1.36489,0.81207
1058,1,0,1,1,-1,0,-1,0,0.998047,-0.0625,-0.208984,-0.8125,5.6875,-2.8125,-2.88804,-1.36489,0.81207
1059,-1,-2,-5,-1,-1,-1,-1,0,0.998047,-0.0625,-0.208984,-0.8125,5.6875,-2.8125,-2.88804,-1.36489,0.81207
1059,-1,0,1,0,1,-2,0,-2,0.998047,-0.0625,-0.208984,-0.8125,5.6875,-2.8125,-2.88804,-1.36489,0.81207
1081,1,-1,-1,1,-1,-1,1,-2,1.00146,-0.0537109,-0.206055,-0.6875,7.0625,-3.1875,-2.89021,-1.36702,0.813862
1081,-1,-1,-3,0,0,-2,-1,-1,1.00146,-0.0537109,-0.206055,-0.6875,7.0625,-3.1875,-2.89021,-1.36702,0.813862
1088,-3,-1,4,0,-2,1,0,-1,0.999023,-0.0507812,-0.203613,1.4375,8.6875,-3.125,-2.89134,-1.37013,0.815481
1088,-1,-1,0,-1,-2,0,0,0,0.999023,-0.0507812,-0.203613,1.4375,8.6875,-3.125,-2.89134,-1.37013,0.815481
1104,-1,-1,0,0,-1,0,0,-1,0.999023,-0.0507812,-0.203613,1.4375,8.6875,-3.125,-2.89134,-1.37013,0.815481
1104,0,4,3,-1,-2,0,-1,-1,0.999023,-0.0507812,-0.203613,1.4375,8.6875,-3.125,-2.89134,-1.37013,0.815481
1106,-1,-6,-10,-3,0,-2,-1,-1,1.00146,-0.0444336,-0.212402,1.9375,11.3125,-4.25,-2.8943,-1.37401,0.819162
1106,0,1,-1,0,-1,-1,0,-3,1.00146,-0.0444336,-0.212402,1.9375,11.3125,-4.25,-2.8943,-1.37401,0.819162
1126,-2,-1,-3,-1,-1,-2,-2,-2,1.00146,-0.0444336,-0.212402,1.9375,11.3125,-4.25,-2.8943,-1.37401,0.819162
1126,0,-3,0,0,-1,-1,0,0,1.00146,-0.0444336,-0.212402,1.9375,11.3125,-4.25,-2.8943,-1.37401,0.819162
1129,0,1,1,1,-2,-2,0,-1,1.00195,-0.0429688,-0.19873,2.9375,14,-4.875,-2.8965,-1.37887,0.822478
1129,-2,-3,-3,-1,-1,-2,1,-2,1.00195,-0.0429688,-0.19873,2.9375,14,-4.875,-2.8965,-1.37887,0.822478
1141,-2,-1,1,0,-2,0,0,-1,1.00195,-0.0429688,-0.19873,2.9375,14,-4.875,-2.8965,-1.37887,0.822478
1141,-2,-1,-3,-3,-1,0,-3,-2,1.00195,-0.0429688,-0.19873,2.9375,14,-4.875,-2.8965,-1.37887,0.822478
1149,-1,-4,0,-1,-2,1,-2,-1,0.990234,-0.0317383,-0.193848,4.0625,16.9375,-5.625,-2.89906,-1.38468,0.826324
1149,-1,-2,1,-1,0,-2,-2,-1,0.990234,-0.0317383,-0.193848,4.0625,16.9375,-5.625,-2.89906,-1.38468,0.826324
1164,1,1,0,-1,1,-2,0,-1,0.990234,-0.0317383,-0.193848,4.0625,16.9375,-5.625,-2.89906,-1.38468,0.826324
1164,-1,-3,-2,-1,-1,0,1,1,0.990234,-0.0317383,-0.193848,4.0625,16.9375,-5.625,-2.89906,-1.38468,0.826324
1166,-1,1,0,0,0,0,-1,1,1.00195,-0.0185547,-0.182617,5.5,20.3125,-7.4375,-2.9053,-1.3924,0.834528
1166,-2,3,3,0,0,-2,0,-1,1.00195,-0.0185547,-0.182617,5.5,20.3125,-7.4375,-2.9053,-1.3924,0.834528
1186,-2,-1,-3,0,-1,0,-2,-2,1.00195,-0.0185547,-0.182617,5.5,20.3125,-7.4375,-2.9053,-1.3924,0.834528
1186,-1,-1,-3,-1,-2,-1,0,0,1.00195,-0.0185547,-0.182617,5.5,20.3125,-7.4375,-2.9053,-1.3924,0.834528
1188,0,-1,1,-1,-3,0,-2,-5,1.00977,-0.0136719,-0.171387,6.1875,24.25,-9.125,-2.91319,-1.40191,0.84497
1188,0,-1,1,-1,-2,-1,-2,-2,1.00977,-0.0136719,-0.171387,6.1875,24.25,-9.125,-2.91319,-1.40191,0.84497
1201,-1,-1,-1,-1,-2,0,-1,-3,1.00977,-0.0136719,-0.171387,6.1875,24.25,-9.125,-2.91319,-1.40191,0.84497
1201,0,1,-2,1,-2,-1,0,-3,1.00977,-0.0136719,-0.171387,6.1875,24.25,-9.125,-2.91319,-1.40191,0.84497
1209,-1,-1,0,0,-1,-3,2,-1,1.00098,0.00195312,-0.152832,6.9375,28.375,-10.3125,-2.92358,-1.41196,0.857465
1209,1,-1,-4,-1,-2,-2,0,0,1.00098,0.00195312,-0.152832,6.9375,28.375,-10.3125,-2.92358,-1.41196,0.857465
1223,-2,-1,-2,1,-2,-3,-2,0,1.00098,0.00195312,-0.152832,6.9375,28.375,-10.3125,-2.92358,-1.41196,0.857465
1223,-2,0,-1,-2,-1,-2,0,-1,1.00098,0.00195312,-0.152832,6.9375,28.375,-10.3125,-2.92358,-1.41196,0.857465
1231,-3,-1,-2,-1,-1,-1,-1,-1,0.98291,0.00146484,-0.129883,10.375,31.375,-10.6875,-2.93394,-1.42432,0.871688
1231,0,-1,-3,0,-1,1,-2,-1,0.98291,0.00146484,-0.129883,10.375,31.375,-10.6875,-2.93394,-1.42432,0.871688
1247,1,-2,1,0,-1,-1,-1,1,0.98291,0.00146484,-0.129883,10.375,31.375,-10.6875,-2.93394,-1.42432,0.871688
1247,-1,0,-2,0,-1,-1,-1,0,0.98291,0.00146484,-0.129883,10.375,31.375,-10.6875,-2.93394,-1.42432,0.871688
1248,-2,0,-2,-1,-1,-2,-2,-2,0.976074,0.0146484,-0.102539,13.375,33.8125,-11,-2.94442,-1.43775,0.887088
1248,-1,0,-2,-1,-1,-2,-1,-2,0.976074,0.0146484,-0.102539,13.375,33.8125,-11,-2.94442,-1.43775,0.887088
1260,-3,-1,-2,-3,-1,-1,-1,-1,0.976074,0.0146484,-0.102539,13.375,33.8125,-11,-2.94442,-1.43775,0.887088
1260,-1,-3,0,-2,1,-2,-2,-1,0.976074,0.0146484,-0.102539,13.375,33.8125,-11,-2.94442,-1.43775,0.887088
1269,-1,-1,0,-1,0,-1,-3,1,0.957031,0.0229492,-0.0776367,16.9375,35.9375,-11.1875,-2.95687,-1.45131,0.905082
1269,0,-1,0,-1,0,-1,0,-2,0.957031,0.0229492,-0.0776367,16.9375,35.9375,-11.1875,-2.95687,-1.45131,0.905082
1284,0,2,0,-2,-2,0,0,1,0.957031,0.0229492,-0.0776367,16.9375,35.9375,-11.1875,-2.95687,-1.45131,0.905082
1284,-1,-1,-1,0,-2,-1,-3,-2,0.957031,0.0229492,-0.0776367,16.9375,35.9375,-11.1875,-2.95687,-1.45131,0.905082
1285,-1,1,0,-2,1,1,2,-2,0.942871,0.0356445,-0.0610352,20.1875,38.3125,-11,-2.97195,-1.4669,0.927709
1285,-1,-4,-10,-1,-2,1,1,0,0.942871,0.0356445,-0.0610352,20.1875,38.3125,-11,-2.97195,-1.4669,0.927709
1307,-1,-3,-2,-1,-2,0,2,-1,0.942871,0.0356445,-0.0610352,20.1875,38.3125,-11,-2.97195,-1.4669,0.927709
1307,-2,-2,-1,-1,-1,0,-1,-1,0.942871,0.0356445,-0.0610352,20.1875,38.3125,-11,-2.97195,-1.4669,0.927709
1308,-2,0,0,-1,-1,0,0,-1,0.941406,0.034668,-0.0649414,22.4375,40.875,-11,-2.99073,-1.48256,0.954557
1308,0,-2,1,1,-1,-1,0,0,0.941406,0.034668,-0.0649414,22.4375,40.875,-11,-2.99073,-1.48256,0.954557
1321,0,-1,-1,-1,0,0,2,-2,0.941406,0.034668,-0.0649414,22.4375,40.875,-11,-2.99073,-1.48256,0.954557
1321,-1,-1,-2,-1,-2,0,-2,0,0.941406,0.034668,-0.0649414,22.4375,40.875,-11,-2.99073,-1.48256,0.954557
1329,1,0,-1,-2,-1,-1,0,1,0.9375,0.0336914,-0.0454102,24.75,42.75,-10.4375,-3.01398,-1.49906,0.98683
1329,0,2,1,1,0,0,-1,1,0.9375,0.0336914,-0.0454102,24.75,42.75,-10.4375,-3.01398,-1.49906,0.98683
1344,0,-1,-3,-1,0,-1,-2,0,0.9375,0.0336914,-0.0454102,24.75,42.75,-10.4375,-3.01398,-1.49906,0.98683
1344,0,0,0,-1,0,-1,1,-1,0.9375,0.0336914,-0.0454102,24.75,42.75,-10.4375,-3.01398,-1.49906,0.98683
1346,-1,-2,-3,-1,-3,0,-1,0,0.932617,0.0180664,-0.0356445,27,42.6875,-9.8125,-3.03672,-1.51608,1.02011
1346,-1,-1,-1,-2,-2,-1,-1,-2,0.932617,0.0180664,-0.0356445,27,42.6875,-9.8125,-3.03672,-1.51608,1.02011
1366,-1,1,0,0,-1,0,-1,0,0.932617,0.0180664,-0.0356445,27,42.6875,-9.8125,-3.03672,-1.51608,1.02011
1366,0,-2,-1,-1,-1,-2,1,-2,0.932617,0.0180664,-0.0356445,27,42.6875,-9.8125,-3.03672,-1.51608,1.02011
1369,0,-2,-1,0,-1,-2,-1,-1,0.944336,0.00878906,-0.0126953,30,41.75,-8.6875,-3.06346,-1.53109,1.05715
1369,-2,-1,1,-3,-1,-1,-1,-1,0.944336,0.00878906,-0.0126953,30,41.75,-8.6875,-3.06346,-1.53109,1.05715
1380,-1,-2,0,1,-1,-2,-3,-3,0.944336,0.00878906,-0.0126953,30,41.75,-8.6875,-3.06346,-1.53109,1.05715
1380,-3,-1,-1,0,-1,0,-2,-1,0.944336,0.00878906,-0.0126953,30,41.75,-8.6875,-3.06346,-1.53109,1.05715
1396,0,-1,-2,1,0,-2,-2,0,0.935547,-0.0146484,0.0209961,37.1875,38.9375,-7.0625,-3.08334,-1.54596,1.08999
1396,-3,-1,0,-2,-1,-3,-2,-1,0.935547,-0.0146484,0.0209961,37.1875,38.9375,-7.0625,-3.08334,-1.54596,1.08999
1404,0,-2,-2,-2,-2,-2,-1,0,0.935547,-0.0146484,0.0209961,37.1875,38.9375,-7.0625,-3.08334,-1.54596,1.08999
1404,1,-1,-2,-2,-3,-2,-1,-2,0.935547,-0.0146484,0.0209961,37.1875,38.9375,-7.0625,-3.08334,-1.54596,1.08999
1406,0,0,0,-2,-1,1,-1,-2,0.962891,-0.0205078,0.0288086,41.4375,35.375,-7.1875,3.1289,-nan(ind),1.18015
1406,-1,-1,1,-2,0,-1,-3,-1,0.962891,-0.0205078,0.0288086,41.4375,35.375,-7.1875,3.1289,-nan(ind),1.18015
1426,-2,-1,-1,-1,-2,0,0,0,0.962891,-0.0205078,0.0288086,41.4375,35.375,-7.1875,3.1289,-nan(ind),1.18015
1426,0,-2,-1,-1,0,0,-1,0,0.962891,-0.0205078,0.0288086,41.4375,35.375,-7.1875,3.1289,-nan(ind),1.18015
1428,-1,-2,-2,1,-3,0,-2,0,0.987793,-0.0361328,0.0341797,46.4375,31.875,-7.1875,2.4533,-nan(ind),1.94178
1428,0,-3,-2,1,0,0,1,0,0.987793,-0.0361328,0.0341797,46.4375,31.875,-7.1875,2.4533,-nan(ind),1.94178
1441,-1,-2,1,-1,1,1,-1,-3,0.987793,-0.0361328,0.0341797,46.4375,31.875,-7.1875,2.4533,-nan(ind),1.94178
1441,-2,-2,0,-1,-2,0,0,-1,0.987793,-0.0361328,0.0341797,46.4375,31.875,-7.1875,2.4533,-nan(ind),1.94178
1449,-1,-1,0,-1,-1,-1,-1,-1,1.00537,-0.0625,0.0371094,52.125,27.875,-7,0.279882,-nan(ind),-2.23351
1449,0,0,-1,-1,0,0,-1,-2,1.00537,-0.0625,0.0371094,52.125,27.875,-7,0.279882,-nan(ind),-2.23351
1464,-1,0,-2,-3,-2,-2,-1,0,1.00537,-0.0625,0.0371094,52.125,27.875,-7,0.279882,-nan(ind),-2.23351
1464,-2,1,-1,-1,-1,0,-2,-1,1.00537,-0.0625,0.0371094,52.125,27.875,-7,0.279882,-nan(ind),-2.23351
1470,-1,-1,1,-1,1,-3,-3,-2,1.0293,-0.0791016,0.034668,55.25,24.5625,-8.5625,0.202198,-1.5551,-2.13055
1470,-2,-2,-2,0,-2,1,-2,-2,1.0293,-0.0791016,0.034668,55.25,24.5625,-8.5625,0.202198,-1.5551,-2.13055
1487,0,-4,0,0,0,0,0,0,1.0293,-0.0791016,0.034668,55.25,24.5625,-8.5625,0.202198,-1.5551,-2.13055
1487,1,-1,-1,-1,1,0,2,0,1.0293,-0.0791016,0.034668,55.25,24.5625,-8.5625,0.202198,-1.5551,-2.13055
1489,-1,-1,-3,-2,-3,-1,-1,0,1.05273,-0.0976562,0.0327148,57.4375,21.375,-10.4375,0.205685,-1.54957,-2.11535
1489,0,-1,-1,-1,-1,-2,-2,0,1.05273,-0.0976562,0.0327148,57.4375,21.375,-10.4375,0.205685,-1.54957,-2.11535
1500,-2,-1,-2,-2,1,-1,-2,-2,1.05273,-0.0976562,0.0327148,57.4375,21.375,-10.4375,0.205685,-1.54957,-2.11535
1500,-3,0,1,0,0,-1,-1,-1,1.05273,-0.0976562,0.0327148,57.4375,21.375,-10.4375,0.205685,-1.54957,-2.11535
1510,0,-1,-1,-2,-1,-1,0,0,1.0835,-0.112305,0.0273438,53.5625,18.875,-13.4375,0.231842,-1.54146,-2.12196
1510,-2,0,-1,0,-2,-1,-1,-3,1.0835,-0.112305,0.0273438,53.5625,18.875,-13.4375,0.231842,-1.54146,-2.12196
1523,-1,-1,0,0,0,-1,-1,-1,1.0835,-0.112305,0.0273438,53.5625,18.875,-13.4375,0.231842,-1.54146,-2.12196
1523,-2,-1,1,-1,-2,-1,0,0,1.0835,-0.112305,0.0273438,53.5625,18.875,-13.4375,0.231842,-1.54146,-2.12196
1530,-1,1,-2,-1,0,-1,-2,-1,1.11182,-0.11084,0.00927734,45.25,18.5,-17,0.287179,-1.53502,-2.16131
1530,-3,-1,-1,-1,-1,0,-3,0,1.11182,-0.11084,0.00927734,45.25,18.5,-17,0.287179,-1.53502,-2.16131
1547,-2,-1,-2,0,-2,-1,-2,1,1.11182,-0.11084,0.00927734,45.25,18.5,-17,0.287179,-1.53502,-2.16131
1547,1,0,-1,-1,-1,-2,0,-2,1.11182,-0.11084,0.00927734,45.25,18.5,-17,0.287179,-1.53502,-2.16131
1548,0,0,1,-1,0,-1,-2,-2,1.11816,-0.104492,-0.0126953,34.8125,19.3125,-20.625,0.35375,-1.52685,-2.21478
1548,0,-1,-1,-1,-2,-1,1,1,1.11816,-0.104492,-0.0126953,34.8125,19.3125,-20.625,0.35375,-1.52685,-2.21478
1569,-1,-1,-2,-1,0,0,1,-1,1.11816,-0.104492,-0.0126953,34.8125,19.3125,-20.625,0.35375,-1.52685,-2.21478
1569,0,0,-4,-1,-1,-3,-1,-1,1.11816,-0.104492,-0.0126953,34.8125,19.3125,-20.625,0.35375,-1.52685,-2.21478
1571,-1,-1,0,-1,-1,1,0,-3,1.12939,-0.0869141,-0.0439453,18.375,21.4375,-23.75,0.428683,-1.5213,-2.28381
1571,-1,0,-1,-2,0,-1,-1,-1,1.12939,-0.0869141,-0.0439453,18.375,21.4375,-23.75,0.428683,-1.5213,-2.28381
1584,-2,0,0,1,-1,-3,0,-1,1.12939,-0.0869141,-0.0439453,18.375,21.4375,-23.75,0.428683,-1.5213,-2.28381
1584,-1,-2,-2,-1,-2,0,-1,0,1.12939,-0.0869141,-0.0439453,18.375,21.4375,-23.75,0.428683,-1.5213,-2.28381
1590,-1,2,-1,-3,-1,-2,-2,-3,1.10986,-0.0800781,-0.0605469,3.3125,25.0625,-24.4375,0.477895,-1.51222,-2.33145
1590,0,-2,-1,-1,-2,-1,-2,-1,1.10986,-0.0800781,-0.0605469,3.3125,25.0625,-24.4375,0.477895,-1.51222,-2.33145
1607,-1,1,-1,-1,-1,0,0,-1,1.10986,-0.0800781,-0.0605469,3.3125,25.0625,-24.4375,0.477895,-1.51222,-2.33145
1607,-2,-1,-2,-2,2,-1,-2,-1,1.10986,-0.0800781,-0.0605469,3.3125,25.0625,-24.4375,0.477895,-1.51222,-2.33145
1608,-3,-2,-1,0,-2,-1,0,1,1.08643,-0.0761719,-0.0581055,-8.625,27.8125,-24.0625,0.501868,-1.50423,-2.35872
1608,-2,-2,-1,-1,-2,-1,-2,0,1.08643,-0.0761719,-0.0581055,-8.625,27.8125,-24.0625,0.501868,-1.50423,-2.35872
1629,1,0,-1,-2,-1,-1,-1,0,1.08643,-0.0761719,-0.0581055,-8.625,27.8125,-24.0625,0.501868,-1.50423,-2.35872
1629,0,-2,-1,0,-1,-1,-3,-1,1.08643,-0.0761719,-0.0581055,-8.625,27.8125,-24.0625,0.501868,-1.50423,-2.35872
1630,-1,-1,-3,-3,0,0,-3,-2,1.06396,-0.0854492,-0.0439453,-18.375,30,-22.125,0.501291,-1.4946,-2.36439
1630,-1,-1,-1,-2,1,0,1,-2,1.06396,-0.0854492,-0.0439453,-18.375,30,-22.125,0.501291,-1.4946,-2.36439
1643,0,-2,-2,-2,-2,-2,-2,-1,1.06396,-0.0854492,-0.0439453,-18.375,30,-22.125,0.501291,-1.4946,-2.36439
1643,-1,0,-1,-1,1,-1,0,-2,1.06396,-0.0854492,-0.0439453,-18.375,30,-22.125,0.501291,-1.4946,-2.36439
1650,-1,-2,-2,0,-1,0,-1,0,1.05469,-0.0947266,-0.0239258,-22.6875,31.3125,-19.9375,0.48333,-1.4851,-2.35444
1650,0,-3,-1,1,-3,-1,0,-1,1.05469,-0.0947266,-0.0239258,-22.6875,31.3125,-19.9375,0.48333,-1.4851,-2.35444
1666,-2,1,-2,-1,-2,-1,-2,0,1.05469,-0.0947266,-0.0239258,-22.6875,31.3125,-19.9375,0.48333,-1.4851,-2.35444
1666,-1,-1,0,-4,-1,-1,1,-1,1.05469,-0.0947266,-0.0239258,-22.6875,31.3125,-19.9375,0.48333,-1.4851,-2.35444
1668,-1,-1,0,-1,-2,-1,-1,0,1.04395,-0.101074,0.00439453,-20.5625,31.5625,-17.625,0.457032,-1.4765,-2.33566
1668,-1,0,0,-1,0,0,0,-2,1.04395,-0.101074,0.00439453,-20.5625,31.5625,-17.625,0.457032,-1.4765,-2.33566
1689,-1,-1,-1,1,-1,-1,-1,-2,1.04395,-0.101074,0.00439453,-20.5625,31.5625,-17.625,0.457032,-1.4765,-2.33566
1689,-1,0,-1,-1,-2,-1,-1,-1,1.04395,-0.101074,0.00439453,-20.5625,31.5625,-17.625,0.457032,-1.4765,-2.33566
1690,0,-1,0,-2,0,0,-2,0,1.03027,-0.0883789,0.0258789,-18.1875,30.4375,-15.625,0.430902,-1.4671,-2.31581
1690,-2,-1,-1,0,0,-2,-2,0,1.03027,-0.0883789,0.0258789,-18.1875,30.4375,-15.625,0.430902,-1.4671,-2.31581
1703,-1,-1,-1,0,-1,-1,-1,-2,1.03027,-0.0883789,0.0258789,-18.1875,30.4375,-15.625,0.430902,-1.4671,-2.31581
1703,-1,0,-2,-1,-1,-2,-1,1,1.03027,-0.0883789,0.0258789,-18.1875,30.4375,-15.625,0.430902,-1.4671,-2.31581
1710,0,-2,-2,-1,-1,-1,0,0,0.999512,-0.0854492,0.0405273,-16.9375,28.0625,-13.25,0.406275,-1.4588,-2.29724
1710,0,-2,-3,-1,1,0,0,0,0.999512,-0.0854492,0.0405273,-16.9375,28.0625,-13.25,0.406275,-1.4588,-2.29724
1727,0,-2,0,-2,-1,0,-2,-1,0.999512,-0.0854492,0.0405273,-16.9375,28.0625,-13.25,0.406275,-1.4588,-2.29724
1727,-1,-3,1,-1,-1,-2,0,-1,0.999512,-0.0854492,0.0405273,-16.9375,28.0625,-13.25,0.406275,-1.4588,-2.29724
1728,-3,0,-2,1,1,-3,0,0,0.970215,-0.105469,0.0620117,-15.0625,23.3125,-11.3125,0.379996,-1.45193,-2.27632
1728,-1,-1,1,0,-2,-2,0,0,0.970215,-0.105469,0.0620117,-15.0625,23.3125,-11.3125,0.379996,-1.45193,-2.27632
1749,-2,-1,1,-1,-2,-2,-1,-1,0.970215,-0.105469,0.0620117,-15.0625,23.3125,-11.3125,0.379996,-1.45193,-2.27632
1749,0,-2,-2,0,-1,-1,1,-1,0.970215,-0.105469,0.0620117,-15.0625,23.3125,-11.3125,0.379996,-1.45193,-2.27632
1751,1,-1,0,-1,0,0,1,-1,0.963379,-0.112305,0.0693359,-12.1875,18.5625,-10.3125,0.357898,-1.44734,-2.25894
1751,0,-1,0,-1,-1,-1,1,-1,0.963379,-0.112305,0.0693359,-12.1875,18.5625,-10.3125,0.357898,-1.44734,-2.25894
1763,1,0,-1,-1,1,-1,0,0,0.963379,-0.112305,0.0693359,-12.1875,18.5625,-10.3125,0.357898,-1.44734,-2.25894
1763,-1,0,-1,0,-1,1,-1,-2,0.963379,-0.112305,0.0693359,-12.1875,18.5625,-10.3125,0.357898,-1.44734,-2.25894
1772,0,-2,-1,0,-1,-1,-1,-2,0.95166,-0.111816,0.0717773,-6.125,14.0625,-9.9375,0.343057,-1.44381,-2.2465
1772,-1,-1,0,-1,0,-1,-1,4,0.95166,-0.111816,0.0717773,-6.125,14.0625,-9.9375,0.343057,-1.44381,-2.2465
1787,-1,-2,-1,0,0,-1,-2,0,0.95166,-0.111816,0.0717773,-6.125,14.0625,-9.9375,0.343057,-1.44381,-2.2465
1787,-1,0,-2,2,1,1,-2,-1,0.95166,-0.111816,0.0717773,-6.125,14.0625,-9.9375,0.343057,-1.44381,-2.2465
1789,-1,-2,-4,0,-2,-1,-1,0,0.936523,-0.0908203,0.0766602,-4.8125,9.0625,-9.9375,0.337027,-1.4415,-2.24242
1789,0,0,0,-2,0,-1,-1,-2,0.936523,-0.0908203,0.0766602,-4.8125,9.0625,-9.9375,0.337027,-1.4415,-2.24242
1809,-1,1,0,0,-2,1,0,0,0.936523,-0.0908203,0.0766602,-4.8125,9.0625,-9.9375,0.337027,-1.4415,-2.24242
1809,0,0,1,-1,1,-1,0,-1,0.936523,-0.0908203,0.0766602,-4.8125,9.0625,-9.9375,0.337027,-1.4415,-2.24242
1811,-2,-1,0,-4,-2,-2,-1,-3,0.928711,-0.0737305,0.0717773,-7.5625,4.1875,-10.875,0.340065,-1.44119,-2.24862
1811,-1,-2,-1,0,-1,-1,-2,-1,0.928711,-0.0737305,0.0717773,-7.5625,4.1875,-10.875,0.340065,-1.44119,-2.24862
1822,-2,1,-2,0,1,-1,-1,-2,0.928711,-0.0737305,0.0717773,-7.5625,4.1875,-10.875,0.340065,-1.44119,-2.24862
1822,-1,-1,-2,-2,-1,1,-2,-1,0.928711,-0.0737305,0.0717773,-7.5625,4.1875,-10.875,0.340065,-1.44119,-2.24862
1831,0,-1,-1,-1,0,0,-1,-1,0.929688,-0.0844727,0.0786133,-14.125,-0.125,-12.0625,0.345257,-1.44081,-2.25883
1831,-1,0,-1,0,-2,-3,-1,-3,0.929688,-0.0844727,0.0786133,-14.125,-0.125,-12.0625,0.345257,-1.44081,-2.25883
1847,-2,-3,-2,0,-1,-2,-1,-1,0.929688,-0.0844727,0.0786133,-14.125,-0.125,-12.0625,0.345257,-1.44081,-2.25883
1847,-2,-2,0,-1,0,0,0,-1,0.929688,-0.0844727,0.0786133,-14.125,-0.125,-12.0625,0.345257,-1.44081,-2.25883
1848,0,-3,-1,-1,-2,0,0,2,0.927734,-0.0908203,0.0869141,-18.75,-3.375,-13.0625,0.352968,-1.44236,-2.2737
1848,0,-1,2,-1,-1,-1,-1,0,0.927734,-0.0908203,0.0869141,-18.75,-3.375,-13.0625,0.352968,-1.44236,-2.2737
1869,2,-1,0,-2,-1,-2,0,1,0.927734,-0.0908203,0.0869141,-18.75,-3.375,-13.0625,0.352968,-1.44236,-2.2737
1869,-1,0,-3,-3,-3,0,-1,0,0.927734,-0.0908203,0.0869141,-18.75,-3.375,-13.0625,0.352968,-1.44236,-2.2737
1870,0,-2,0,0,1,-1,-1,0,0.920898,-0.0893555,0.0893555,-21.0625,-6.6875,-14.4375,0.366128,-1.44411,-2.29467
1870,-2,-1,-2,-1,0,-2,-1,-1,0.920898,-0.0893555,0.0893555,-21.0625,-6.6875,-14.4375,0.366128,-1.44411,-2.29467
1883,0,-1,-1,-2,-2,0,-1,-1,0.920898,-0.0893555,0.0893555,-21.0625,-6.6875,-14.4375,0.366128,-1.44411,-2.29467
1883,0,-5,-2,0,0,0,-2,0,0.920898,-0.0893555,0.0893555,-21.0625,-6.6875,-14.4375,0.366128,-1.44411,-2.29467
1891,-1,-2,-1,-2,-2,-1,-3,0,0.91748,-0.0830078,0.0996094,-23.5,-10.125,-16.125,0.387007,-1.44728,-2.32455
1891,1,2,-3,-2,-3,-1,-1,-1,0.91748,-0.0830078,0.0996094,-23.5,-10.125,-16.125,0.387007,-1.44728,-2.32455
1908,0,-1,-1,-2,0,-1,-1,0,0.91748,-0.0830078,0.0996094,-23.5,-10.125,-16.125,0.387007,-1.44728,-2.32455
1908,-1,-2,1,-2,-1,-2,-2,-1,0.91748,-0.0830078,0.0996094,-23.5,-10.125,-16.125,0.387007,-1.44728,-2.32455
1909,-2,0,-1,-1,-1,0,0,-1,0.907715,-0.078125,0.0961914,-23.75,-12.375,-17.625,0.41588,-1.45002,-2.36215
1909,-1,0,0,-1,0,1,-1,0,0.907715,-0.078125,0.0961914,-23.75,-12.375,-17.625,0.41588,-1.45002,-2.36215
1929,-2,-1,-1,-1,-3,2,-1,0,0.907715,-0.078125,0.0961914,-23.75,-12.375,-17.625,0.41588,-1.45002,-2.36215
1929,-2,0,-1,0,-2,-2,-1,-1,0.907715,-0.078125,0.0961914,-23.75,-12.375,-17.625,0.41588,-1.45002,-2.36215
1930,0,0,-1,-1,-2,-1,-1,0,0.896973,-0.0625,0.103516,-24.625,-13.875,-19.125,0.452841,-1.45209,-2.40822
1930,-1,0,-2,-2,0,-1,-2,-1,0.896973,-0.0625,0.103516,-24.625,-13.875,-19.125,0.452841,-1.45209,-2.40822
1942,-1,-2,-1,-2,0,-2,-1,-1,0.896973,-0.0625,0.103516,-24.625,-13.875,-19.125,0.452841,-1.45209,-2.40822
1942,-2,-2,0,-1,0,-4,0,-2,0.896973,-0.0625,0.103516,-24.625,-13.875,-19.125,0.452841,-1.45209,-2.40822
1951,0,-1,-1,0,1,-1,-1,-2,0.888184,-0.0458984,0.123047,-25.9375,-14.75,-21.0625,0.498745,-1.45387,-2.46389
1951,-2,-1,-2,0,0,-1,0,-2,0.888184,-0.0458984,0.123047,-25.9375,-14.75,-21.0625,0.498745,-1.45387,-2.46389
1966,-1,0,-1,0,-1,-1,-4,-2,0.888184,-0.0458984,0.123047,-25.9375,-14.75,-21.0625,0.498745,-1.45387,-2.46389
1966,0,-1,-1,-1,-1,-3,-1,1,0.888184,-0.0458984,0.123047,-25.9375,-14.75,-21.0625,0.498745,-1.45387,-2.46389
1969,0,-2,0,0,1,-3,-2,0,0.90332,-0.0341797,0.131836,-25.125,-15.9375,-23.4375,0.553211,-1.45575,-2.52779
1969,1,-1,-1,-1,-4,-1,0,1,0.90332,-0.0341797,0.131836,-25.125,-15.9375,-23.4375,0.553211,-1.45575,-2.52779
1989,-1,-2,-3,-1,0,-1,1,-1,0.90332,-0.0341797,0.131836,-25.125,-15.9375,-23.4375,0.553211,-1.45575,-2.52779
1989,0,1,1,0,0,-1,-2,-2,0.90332,-0.0341797,0.131836,-25.125,-15.9375,-23.4375,0.553211,-1.45575,-2.52779
1991,-1,1,-1,-1,0,0,1,-1,0.910645,-0.0180664,0.156738,-23.375,-16.4375,-26.8125,0.616289,-1.45426,-2.59977
1991,-1,-1,-1,-1,0,-1,-2,-2,0.910645,-0.0180664,0.156738,-23.375,-16.4375,-26.8125,0.616289,-1.45426,-2.59977
2003,-1,-1,-1,-2,-2,-3,-1,-2,0.910645,-0.0180664,0.156738,-23.375,-16.4375,-26.8125,0.616289,-1.45426,-2.59977
2003,-1,0,-2,-1,-2,-1,-1,1,0.910645,-0.0180664,0.156738,-23.375,-16.4375,-26.8125,0.616289,-1.45426,-2.59977
2012,0,-3,-2,-1,-3,1,-1,-1,0.9375,0.0151367,0.168457,-23.6875,-17.0625,-30.875,0.689834,-1.45177,-2.68228
2012,-1,-1,-1,-1,0,0,0,-1,0.9375,0.0151367,0.168457,-23.6875,-17.0625,-30.875,0.689834,-1.45177,-2.68228
2026,-1,0,1,0,0,-3,1,-2,0.9375,0.0151367,0.168457,-23.6875,-17.0625,-30.875,0.689834,-1.45177,-2.68228
2026,-1,-1,1,-3,-2,0,-1,-2,0.9375,0.0151367,0.168457,-23.6875,-17.0625,-30.875,0.689834,-1.45177,-2.68228
2028,-3,0,1,-1,-3,-1,-1,-1,0.985352,0.0688477,0.174805,-26.3125,-17.0625,-34.875,0.772256,-1.44608,-2.77486
2028,-1,-2,-1,0,1,1,1,-1,0.985352,0.0688477,0.174805,-26.3125,-17.0625,-34.875,0.772256,-1.44608,-2.77486
2050,-1,0,3,1,-2,1,0,-1,0.985352,0.0688477,0.174805,-26.3125,-17.0625,-34.875,0.772256,-1.44608,-2.77486
2050,0,-4,-6,0,1,0,-1,0,0.985352,0.0688477,0.174805,-26.3125,-17.0625,-34.875,0.772256,-1.44608,-2.77486
2051,0,0,-2,-2,0,-1,1,-2,1.03369,0.132812,0.180176,-30.875,-16.6875,-37.625,0.855589,-1.43881,-2.86981
2051,0,-5,-14,1,-1,-3,-2,-2,1.03369,0.132812,0.180176,-30.875,-16.6875,-37.625,0.855589,-1.43881,-2.86981
2064,0,-1,-3,-3,0,-1,-2,-1,1.03369,0.132812,0.180176,-30.875,-16.6875,-37.625,0.855589,-1.43881,-2.86981
2064,-1,0,4,-1,-2,-1,0,0,1.03369,0.132812,0.180176,-30.875,-16.6875,-37.625,0.855589,-1.43881,-2.86981
2072,-1,1,2,-2,0,0,-1,-1,1.04932,0.196777,0.15332,-39.875,-15.6875,-38.5,0.933252,-1.42884,-2.96237
2072,0,1,4,-3,-3,0,-2,0,1.04932,0.196777,0.15332,-39.875,-15.6875,-38.5,0.933252,-1.42884,-2.96237
2087,0,2,2,0,-2,-1,-1,1,1.04932,0.196777,0.15332,-39.875,-15.6875,-38.5,0.933252,-1.42884,-2.96237
2087,-2,4,7,-2,0,-2,-2,0,1.04932,0.196777,0.15332,-39.875,-15.6875,-38.5,0.933252,-1.42884,-2.96237
2089,-1,1,-2,1,2,-1,1,-2,1.00732,0.273438,0.120117,-55.3125,-10.8125,-36.4375,0.992449,-1.41779,-3.04116
2089,-1,-3,3,1,0,-1,0,-2,1.00732,0.273438,0.120117,-55.3125,-10.8125,-36.4375,0.992449,-1.41779,-3.04116
2109,-2,-3,-13,-2,0,0,-1,-1,1.00732,0.273438,0.120117,-55.3125,-10.8125,-36.4375,0.992449,-1.41779,-3.04116
2109,-2,1,1,-1,-1,-1,0,-2,1.00732,0.273438,0.120117,-55.3125,-10.8125,-36.4375,0.992449,-1.41779,-3.04116
2111,-3,-1,3,1,-2,-1,-2,1,0.935547,0.299805,0.0961914,-62.75,-6,-30.1875,1.02782,-1.40586,-3.0992
2111,-2,0,1,-2,-1,1,-1,-1,0.935547,0.299805,0.0961914,-62.75,-6,-30.1875,1.02782,-1.40586,-3.0992
2123,-2,-2,0,-2,-2,2,1,-1,0.935547,0.299805,0.0961914,-62.75,-6,-30.1875,1.02782,-1.40586,-3.0992
2123,0,-2,-2,0,-1,0,1,-2,0.935547,0.299805,0.0961914,-62.75,-6,-30.1875,1.02782,-1.40586,-3.0992
2131,0,1,-2,-1,-1,-2,-1,-4,0.929688,0.308105,0.0795898,-60.75,-1,-24.875,1.04716,-1.39559,-3.13969
2131,-4,0,-3,0,-1,-2,-1,0,0.929688,0.308105,0.0795898,-60.75,-1,-24.875,1.04716,-1.39559,-3.13969
2147,2,-1,0,-2,0,-2,-3,-1,0.929688,0.308105,0.0795898,-60.75,-1,-24.875,1.04716,-1.39559,-3.13969
2147,0,-2,-4,-2,-2,1,-1,0,0.929688,0.308105,0.0795898,-60.75,-1,-24.875,1.04716,-1.39559,-3.13969
2148,1,-2,-2,0,-3,-1,-1,-1,0.989258,0.34082,0.10498,-49.125,4.8125,-21.3125,1.05296,-1.38445,3.12063
2148,1,0,0,-1,-3,-2,-1,-1,0.989258,0.34082,0.10498,-49.125,4.8125,-21.3125,1.05296,-1.38445,3.12063
2169,0,-1,1,-2,0,-1,0,0,0.989258,0.34082,0.10498,-49.125,4.8125,-21.3125,1.05296,-1.38445,3.12063
2169,0,-2,-2,-1,0,-1,-3,-1,0.989258,0.34082,0.10498,-49.125,4.8125,-21.3125,1.05296,-1.38445,3.12063
2171,1,-2,-2,-2,0,-1,0,-1,1.11182,0.327637,0.203125,-31.75,6.25,-18.375,1.04746,-1.37397,3.11502
2171,0,0,-1,0,0,-1,-1,-1,1.11182,0.327637,0.203125,-31.75,6.25,-18.375,1.04746,-1.37397,3.11502
2182,-3,0,1,1,-1,1,-2,-1,1.11182,0.327637,0.203125,-31.75,6.25,-18.375,1.04746,-1.37397,3.11502
2182,-2,-1,-1,-1,-1,-1,0,-3,1.11182,0.327637,0.203125,-31.75,6.25,-18.375,1.04746,-1.37397,3.11502
2191,-1,0,1,-1,-1,0,0,-1,1.32422,0.31543,0.228516,-14.6875,2.4375,-14.9375,1.04617,-1.36624,3.11092
2191,0,-2,-2,-1,-1,-1,-1,-1,1.32422,0.31543,0.228516,-14.6875,2.4375,-14.9375,1.04617,-1.36624,3.11092
2206,1,-1,2,0,-1,-2,0,-2,1.32422,0.31543,0.228516,-14.6875,2.4375,-14.9375,1.04617,-1.36624,3.11092
2206,0,-3,-7,0,0,-2,-1,-2,1.32422,0.31543,0.228516,-14.6875,2.4375,-14.9375,1.04617,-1.36624,3.11092
2208,-2,0,-1,1,1,-2,-2,-1,1.36475,0.396484,0.169434,-16.8125,4.5625,-9.625,1.04783,-1.35915,3.10332
2208,-1,-1,1,-1,1,0,0,0,1.36475,0.396484,0.169434,-16.8125,4.5625,-9.625,1.04783,-1.35915,3.10332
2229,-1,1,-1,-1,-1,-2,-2,-1,1.36475,0.396484,0.169434,-16.8125,4.5625,-9.625,1.04783,-1.35915,3.10332
2229,-1,-1,0,-2,-2,2,-2,-1,1.36475,0.396484,0.169434,-16.8125,4.5625,-9.625,1.04783,-1.35915,3.10332
2230,0,0,6,-1,0,-1,0,1,1.1582,0.494141,0.100098,-34.125,13.8125,1.625,1.03485,-1.35217,3.1056
2230,-3,-3,-9,-4,-2,-1,-2,-1,1.1582,0.494141,0.100098,-34.125,13.8125,1.625,1.03485,-1.35217,3.1056
2243,-4,-1,-4,-4,-1,0,-1,0,1.1582,0.494141,0.100098,-34.125,13.8125,1.625,1.03485,-1.35217,3.1056
2243,-1,-1,2,1,0,0,-1,0,1.1582,0.494141,0.100098,-34.125,13.8125,1.625,1.03485,-1.35217,3.1056
2251,0,-3,-6,-1,-1,0,0,-2,0.937012,0.474609,0.0742188,-50.1875,19.75,8.625,1.00513,-1.34525,3.11879
2251,0,1,5,0,-2,-1,-1,-1,0.937012,0.474609,0.0742188,-50.1875,19.75,8.625,1.00513,-1.34525,3.11879
2266,-4,-1,1,0,0,0,-1,0,0.937012,0.474609,0.0742188,-50.1875,19.75,8.625,1.00513,-1.34525,3.11879
2266,-5,0,-3,-1,-1,-2,-1,1,0.937012,0.474609,0.0742188,-50.1875,19.75,8.625,1.00513,-1.34525,3.11879
2268,-1,2,0,0,0,0,0,2,0.75,0.361328,0.074707,-51.875,24.5,11.25,0.962399,-1.33983,-3.13847
2268,2,0,2,1,-2,0,-2,0,0.75,0.361328,0.074707,-51.875,24.5,11.25,0.962399,-1.33983,-3.13847
2289,2,-1,-2,0,-2,0,-1,0,0.75,0.361328,0.074707,-51.875,24.5,11.25,0.962399,-1.33983,-3.13847
2289,2,-1,-1,-1,-3,-2,-1,1,0.75,0.361328,0.074707,-51.875,24.5,11.25,0.962399,-1.33983,-3.13847
2291,-1,-2,-1,-1,-1,1,-2,-2,0.636719,0.259766,0.108887,-34.25,25.875,9.75,0.918931,-1.33455,-3.10546
2291,0,-1,-1,-2,0,-1,-2,-1,0.636719,0.259766,0.108887,-34.25,25.875,9.75,0.918931,-1.33455,-3.10546
2303,0,-3,-2,0,-1,-2,-1,-2,0.636719,0.259766,0.108887,-34.25,25.875,9.75,0.918931,-1.33455,-3.10546
2303,0,-2,0,-2,-1,0,1,-1,0.636719,0.259766,0.108887,-34.25,25.875,9.75,0.918931,-1.33455,-3.10546
2312,0,-2,-2,-2,-1,-1,0,-1,0.587402,0.217285,0.147461,-10.25,25.5625,5.5625,0.883725,-1.32782,-3.07281
2312,0,1,-2,-1,0,-1,0,-1,0.587402,0.217285,0.147461,-10.25,25.5625,5.5625,0.883725,-1.32782,-3.07281
2326,0,1,2,-2,0,-1,-2,-1,0.587402,0.217285,0.147461,-10.25,25.5625,5.5625,0.883725,-1.32782,-3.07281
2326,0,-2,-8,-2,-1,-1,-1,-2,0.587402,0.217285,0.147461,-10.25,25.5625,5.5625,0.883725,-1.32782,-3.07281
2334,0,-2,-3,-1,-2,-3,-2,-3,0.58252,0.226074,0.174316,5.625,22.4375,3.4375,0.860392,-1.32066,-3.04644
2334,-2,-1,-1,0,-2,-1,-2,0,0.58252,0.226074,0.174316,5.625,22.4375,3.4375,0.860392,-1.32066,-3.04644
2349,0,-2,-1,2,0,-2,-1,-1,0.58252,0.226074,0.174316,5.625,22.4375,3.4375,0.860392,-1.32066,-3.04644
2349,-1,-1,0,0,0,-1,0,-1,0.58252,0.226074,0.174316,5.625,22.4375,3.4375,0.860392,-1.32066,-3.04644
2351,-2,-2,-2,-2,-1,-2,-1,-1,0.639648,0.263672,0.20752,9.8125,17.25,2.5625,0.845779,-1.31321,-3.0279
2351,-3,-1,0,0,-1,-1,1,-3,0.639648,0.263672,0.20752,9.8125,17.25,2.5625,0.845779,-1.31321,-3.0279
2363,-2,-2,-2,-2,-2,-1,-2,-1,0.639648,0.263672,0.20752,9.8125,17.25,2.5625,0.845779,-1.31321,-3.0279
2363,-2,0,-3,-3,-2,-2,-2,-1,0.639648,0.263672,0.20752,9.8125,17.25,2.5625,0.845779,-1.31321,-3.0279
2372,-1,-1,-1,1,-2,-1,-2,-1,0.727051,0.278809,0.237305,7.5625,11.75,4.1875,0.834196,-1.30755,-3.01313
2372,0,-1,0,0,-1,0,0,0,0.727051,0.278809,0.237305,7.5625,11.75,4.1875,0.834196,-1.30755,-3.01313
2386,-1,0,0,-1,0,-2,1,0,0.727051,0.278809,0.237305,7.5625,11.75,4.1875,0.834196,-1.30755,-3.01313
2386,-1,-3,0,-1,1,0,-2,-1,0.727051,0.278809,0.237305,7.5625,11.75,4.1875,0.834196,-1.30755,-3.01313
2393,0,-2,-2,-1,1,-1,-3,-1,0.811523,0.272949,0.245117,3.375,6.625,6.9375,0.823347,-1.30419,-3.00069
2393,-1,-2,-1,-1,-1,-3,-1,-1,0.811523,0.272949,0.245117,3.375,6.625,6.9375,0.823347,-1.30419,-3.00069
2409,-1,1,1,0,-1,-1,-1,-1,0.811523,0.272949,0.245117,3.375,6.625,6.9375,0.823347,-1.30419,-3.00069
2409,0,-3,-2,2,-1,1,0,-2,0.811523,0.272949,0.245117,3.375,6.625,6.9375,0.823347,-1.30419,-3.00069
2410,0,0,1,-1,-3,-2,0,0,0.87207,0.297852,0.234863,0.375,2.875,10.6875,0.814565,-1.30303,-2.99119
2410,-1,-4,-8,-2,1,0,-2,-1,0.87207,0.297852,0.234863,0.375,2.875,10.6875,0.814565,-1.30303,-2.99119
2423,-2,-3,1,-1,-3,1,-2,-2,0.87207,0.297852,0.234863,0.375,2.875,10.6875,0.814565,-1.30303,-2.99119
2423,-2,1,2,-1,0,-1,-2,-2,0.87207,0.297852,0.234863,0.375,2.875,10.6875,0.814565,-1.30303,-2.99119
2431,-1,-1,-1,-2,-2,0,0,0,0.908691,0.309082,0.228516,0.9375,-0.5,14.9375,0.806893,-1.30391,-2.98244
2431,-1,1,3,-2,-1,-2,1,1,0.908691,0.309082,0.228516,0.9375,-0.5,14.9375,0.806893,-1.30391,-2.98244
2446,0,-1,-2,-1,-1,0,0,0,0.908691,0.309082,0.228516,0.9375,-0.5,14.9375,0.806893,-1.30391,-2.98244
2446,1,0,-1,-2,-2,-1,1,-1,0.908691,0.309082,0.228516,0.9375,-0.5,14.9375,0.806893,-1.30391,-2.98244
2453,-3,-1,-2,-1,0,-1,0,-1,0.943848,0.280762,0.212402,9.625,-2.75,18.6875,0.800062,-1.30707,-2.97157
2453,-2,-1,1,-1,-3,-2,-1,-2,0.943848,0.280762,0.212402,9.625,-2.75,18.6875,0.800062,-1.30707,-2.97157
2469,-1,-1,-3,1,0,0,0,-3,0.943848,0.280762,0.212402,9.625,-2.75,18.6875,0.800062,-1.30707,-2.97157
2469,-2,0,0,-1,2,-2,0,-1,0.943848,0.280762,0.212402,9.625,-2.75,18.6875,0.800062,-1.30707,-2.97157
2471,0,-1,1,1,0,0,-2,1,0.959473,0.258301,0.205078,22.75,-4.375,21.375,0.795679,-1.31151,-2.95864
2471,-1,-2,-3,-1,-2,0,-1,0,0.959473,0.258301,0.205078,22.75,-4.375,21.375,0.795679,-1.31151,-2.95864
2483,-1,0,-1,-1,0,-1,0,-1,0.959473,0.258301,0.205078,22.75,-4.375,21.375,0.795679,-1.31151,-2.95864
2483,-1,-2,1,-1,-2,-1,-2,-1,0.959473,0.258301,0.205078,22.75,-4.375,21.375,0.795679,-1.31151,-2.95864
2491,-1,-1,-2,-2,0,0,-1,-1,0.955078,0.243652,0.187988,32.375,-3.375,23.5,0.791541,-1.31688,-2.94253
2491,-1,0,1,-2,-1,1,-2,-1,0.955078,0.243652,0.187988,32.375,-3.375,23.5,0.791541,-1.31688,-2.94253
2507,0,-1,-2,-2,-1,-1,-1,1,0.955078,0.243652,0.187988,32.375,-3.375,23.5,0.791541,-1.31688,-2.94253
2507,-1,-1,-2,-3,-1,-1,-2,-1,0.955078,0.243652,0.187988,32.375,-3.375,23.5,0.791541,-1.31688,-2.94253
2514,-4,-3,-2,0,0,-2,1,-3,0.936523,0.244141,0.163574,37.125,-0.9375,24.75,0.787238,-1.32195,-2.9243
2514,0,-1,-2,1,0,-1,-2,0,0.936523,0.244141,0.163574,37.125,-0.9375,24.75,0.787238,-1.32195,-2.9243
2529,0,-1,3,1,-1,-3,0,-2,0.936523,0.244141,0.163574,37.125,-0.9375,24.75,0.787238,-1.32195,-2.9243
2529,0,-1,-2,0,-1,-1,-1,-1,0.936523,0.244141,0.163574,37.125,-0.9375,24.75,0.787238,-1.32195,-2.9243
2530,0,-1,-3,-1,-2,2,0,-2,0.920898,0.241699,0.129395,37,3.375,23.625,0.781613,-1.32614,-2.90468
2530,-2,-1,-2,-3,0,0,-1,0,0.920898,0.241699,0.129395,37,3.375,23.625,0.781613,-1.32614,-2.90468
2552,0,-1,-2,-1,1,-2,0,-1,0.920898,0.241699,0.129395,37,3.375,23.625,0.781613,-1.32614,-2.90468
2552,0,-1,3,2,0,-2,-1,-1,0.920898,0.241699,0.129395,37,3.375,23.625,0.781613,-1.32614,-2.90468
2553,-1,-2,-1,0,-2,-2,-1,-1,0.899902,0.242188,0.112793,29.5625,9.125,22.0625,0.770482,-1.32849,-2.88205
2553,0,-1,-1,-2,0,-2,2,-2,0.899902,0.242188,0.112793,29.5625,9.125,22.0625,0.770482,-1.32849,-2.88205
2566,-3,2,-1,-2,-1,1,0,-1,0.899902,0.242188,0.112793,29.5625,9.125,22.0625,0.770482,-1.32849,-2.88205
2566,0,1,-1,0,-2,1,1,-2,0.899902,0.242188,0.112793,29.5625,9.125,22.0625,0.770482,-1.32849,-2.88205
2573,0,-1,-1,-3,-1,0,0,0,0.871582,0.236328,0.0976562,19.3125,14.1875,20.125,0.753879,-1.32959,-2.85714
2573,-1,0,1,0,-2,-2,-1,0,0.871582,0.236328,0.0976562,19.3125,14.1875,20.125,0.753879,-1.32959,-2.85714
2590,0,-2,-1,-1,-2,-1,-1,-1,0.871582,0.236328,0.0976562,19.3125,14.1875,20.125,0.753879,-1.32959,-2.85714
2590,1,0,3,0,0,0,0,-1,0.871582,0.236328,0.0976562,19.3125,14.1875,20.125,0.753879,-1.32959,-2.85714
2591,-2,-2,-10,-1,-1,-2,-1,-1,0.86084,0.217285,0.0922852,11.0625,17.375,19.125,0.731453,-1.3295,-2.82953
2591,-1,0,1,0,-2,-1,-3,-2,0.86084,0.217285,0.0922852,11.0625,17.375,19.125,0.731453,-1.3295,-2.82953
2612,-1,-2,-3,-1,-1,-1,0,-1,0.86084,0.217285,0.0922852,11.0625,17.375,19.125,0.731453,-1.3295,-2.82953
2612,-2,0,-3,1,-1,-3,-1,0,0.86084,0.217285,0.0922852,11.0625,17.375,19.125,0.731453,-1.3295,-2.82953
2614,0,0,3,-1,0,-1,0,-1,0.846191,0.202637,0.09375,5.3125,19.8125,18.3125,0.704493,-1.32827,-2.79938
2614,-2,-2,-1,-1,0,0,0,-1,0.846191,0.202637,0.09375,5.3125,19.8125,18.3125,0.704493,-1.32827,-2.79938
2626,-2,-2,-2,-1,-1,-1,-3,-1,0.846191,0.202637,0.09375,5.3125,19.8125,18.3125,0.704493,-1.32827,-2.79938
2626,-1,-3,-2,-3,-1,1,-2,-1,0.846191,0.202637,0.09375,5.3125,19.8125,18.3125,0.704493,-1.32827,-2.79938
2633,0,-1,2,-1,-1,0,-2,0,0.861328,0.188965,0.14502,7.375,19.375,18.75,0.6754,-1.32723,-2.76633
2633,0,-2,0,0,0,-1,0,-2,0.861328,0.188965,0.14502,7.375,19.375,18.75,0.6754,-1.32723,-2.76633
2649,0,-1,0,0,0,1,-1,0,0.861328,0.188965,0.14502,7.375,19.375,18.75,0.6754,-1.32723,-2.76633
2649,0,-2,0,-1,-3,0,-2,-1,0.861328,0.188965,0.14502,7.375,19.375,18.75,0.6754,-1.32723,-2.76633
2650,-2,0,1,0,-3,-1,-2,1,0.949219,0.175293,0.194824,12.1875,14.1875,18.5625,0.648941,-1.32691,-2.73451
2650,0,0,-1,-2,-2,-1,-2,-2,0.949219,0.175293,0.194824,12.1875,14.1875,18.5625,0.648941,-1.32691,-2.73451
2671,0,1,-2,-1,-2,-2,-2,-1,0.949219,0.175293,0.194824,12.1875,14.1875,18.5625,0.648941,-1.32691,-2.73451
2671,-1,0,-2,-1,1,-2,-1,-1,0.949219,0.175293,0.194824,12.1875,14.1875,18.5625,0.648941,-1.32691,-2.73451
2673,1,0,-2,0,-1,0,-1,-1,1.02441,0.17627,0.200684,10.8125,9.25,18.5,0.626196,-1.32752,-2.70714
2673,0,-1,0,0,-2,1,0,0,1.02441,0.17627,0.200684,10.8125,9.25,18.5,0.626196,-1.32752,-2.70714
2686,0,-1,-1,0,-2,0,-1,0,1.02441,0.17627,0.200684,10.8125,9.25,18.5,0.626196,-1.32752,-2.70714
2686,-2,-2,0,-1,-2,0,-1,-2,1.02441,0.17627,0.200684,10.8125,9.25,18.5,0.626196,-1.32752,-2.70714
2693,0,-1,0,-1,0,0,-1,-2,1.00488,0.187988,0.200195,7,6,19.625,0.605423,-1.32897,-2.68307
2693,-1,0,-2,0,-2,-1,0,-2,1.00488,0.187988,0.200195,7,6,19.625,0.605423,-1.32897,-2.68307
2709,-2,-1,-1,-2,-1,0,-2,-1,1.00488,0.187988,0.200195,7,6,19.625,0.605423,-1.32897,-2.68307
2709,-2,0,-3,0,0,-1,-2,1,1.00488,0.187988,0.200195,7,6,19.625,0.605423,-1.32897,-2.68307
2710,-2,-1,-1,-2,-1,-1,-1,0,0.887207,0.178223,0.168945,3.0625,4.25,22,0.582854,-1.33184,-2.65828
2710,-1,-2,-1,-4,0,-1,-1,-1,0.887207,0.178223,0.168945,3.0625,4.25,22,0.582854,-1.33184,-2.65828
2732,-1,-2,0,-2,0,-2,0,-1,0.887207,0.178223,0.168945,3.0625,4.25,22,0.582854,-1.33184,-2.65828
2732,-1,-1,-1,-2,-2,-1,1,-2,0.887207,0.178223,0.168945,3.0625,4.25,22,0.582854,-1.33184,-2.65828
2733,0,-2,-1,-2,0,-1,-1,0,0.734863,0.154785,0.145996,6.75,3.875,23.125,0.559647,-1.33392,-2.6317
2733,1,0,0,1,-2,-1,0,0,0.734863,0.154785,0.145996,6.75,3.875,23.125,0.559647,-1.33392,-2.6317
2746,-1,-1,-1,-1,-2,-2,-1,1,0.734863,0.154785,0.145996,6.75,3.875,23.125,0.559647,-1.33392,-2.6317
2746,-1,-1,-1,-1,1,0,0,1,0.734863,0.154785,0.145996,6.75,3.875,23.125,0.559647,-1.33392,-2.6317
2755,-3,-1,-2,-2,-1,0,0,-2,0.687012,0.119629,0.184082,19.5625,-0.375,21.25,0.541138,-1.33646,-2.60557
2755,-3,-2,0,0,-1,0,-1,-1,0.687012,0.119629,0.184082,19.5625,-0.375,21.25,0.541138,-1.33646,-2.60557
2769,-3,-1,0,-1,-1,-1,0,-1,0.687012,0.119629,0.184082,19.5625,-0.375,21.25,0.541138,-1.33646,-2.60557
2769,0,-1,-2,0,-1,-1,-1,-2,0.687012,0.119629,0.184082,19.5625,-0.375,21.25,0.541138,-1.33646,-2.60557
2771,-1,0,0,-1,-1,-1,0,-1,0.895508,0.050293,0.262695,35.6875,-11.9375,14.625,0.534447,-1.34204,-2.58643
2771,0,-1,-2,0,1,-2,-1,-1,0.895508,0.050293,0.262695,35.6875,-11.9375,14.625,0.534447,-1.34204,-2.58643
2792,2,-2,-2,-2,-1,-1,-1,-3,0.895508,0.050293,0.262695,35.6875,-11.9375,14.625,0.534447,-1.34204,-2.58643
2792,-1,-2,-2,2,-1,-2,1,-1,0.895508,0.050293,0.262695,35.6875,-11.9375,14.625,0.534447,-1.34204,-2.58643
2793,1,-1,-1,0,-4,-2,0,-2,1.1626,0.027832,0.28125,40.1875,-20.0625,8.3125,0.539736,-1.34981,-2.57811
2793,0,0,-3,-2,-2,-4,-1,-2,1.1626,0.027832,0.28125,40.1875,-20.0625,8.3125,0.539736,-1.34981,-2.57811
2805,1,0,-2,-2,1,0,-2,0,1.1626,0.027832,0.28125,40.1875,-20.0625,8.3125,0.539736,-1.34981,-2.57811
2805,1,-1,-2,-1,-1,-1,-2,0,1.1626,0.027832,0.28125,40.1875,-20.0625,8.3125,0.539736,-1.34981,-2.57811
2814,0,-2,-1,-1,-2,-1,-1,0,1.21533,0.0664062,0.245605,33.625,-20.5,4.4375,0.554132,-1.35697,-2.58122
2814,-1,-2,-2,0,-1,-2,-2,-2,1.21533,0.0664062,0.245605,33.625,-20.5,4.4375,0.554132,-1.35697,-2.58122
2829,-1,0,-1,-2,0,-1,0,-1,1.21533,0.0664062,0.245605,33.625,-20.5,4.4375,0.554132,-1.35697,-2.58122
2829,-2,0,0,-1,-2,0,-1,-3,1.21533,0.0664062,0.245605,33.625,-20.5,4.4375,0.554132,-1.35697,-2.58122
2831,-3,0,-2,0,-2,-1,-1,0,1.12598,0.131836,0.204102,15.5,-19.75,2.4375,0.573225,-1.36309,-2.59519
2831,-4,-1,-1,-2,-2,-1,-1,-2,1.12598,0.131836,0.204102,15.5,-19.75,2.4375,0.573225,-1.36309,-2.59519
2852,-2,0,-2,0,-3,-2,-1,1,1.12598,0.131836,0.204102,15.5,-19.75,2.4375,0.573225,-1.36309,-2.59519
2852,-1,-1,-1,-2,-1,-1,-1,0,1.12598,0.131836,0.204102,15.5,-19.75,2.4375,0.573225,-1.36309,-2.59519
2853,-1,-1,-1,0,-1,-1,0,0,1.06445,0.142578,0.198242,-0.3125,-21.25,0.75,0.592688,-1.36895,-2.61512
2853,-1,-1,-2,1,0,0,0,-1,1.06445,0.142578,0.198242,-0.3125,-21.25,0.75,0.592688,-1.36895,-2.61512
2866,-2,-1,0,1,-1,1,1,-2,1.06445,0.142578,0.198242,-0.3125,-21.25,0.75,0.592688,-1.36895,-2.61512
2866,0,-1,0,-2,0,0,-2,-1,1.06445,0.142578,0.198242,-0.3125,-21.25,0.75,0.592688,-1.36895,-2.61512
2875,0,1,-1,0,-1,-1,-1,-1,1.04346,0.0961914,0.197754,-7.6875,-24.8125,1.125,0.608187,-1.37599,-2.63391
2875,1,0,-2,0,-2,0,-1,0,1.04346,0.0961914,0.197754,-7.6875,-24.8125,1.125,0.608187,-1.37599,-2.63391
2888,-1,0,0,0,-3,1,-1,-1,1.04346,0.0961914,0.197754,-7.6875,-24.8125,1.125,0.608187,-1.37599,-2.63391
2888,-1,-3,-1,-1,-3,-1,-1,0,1.04346,0.0961914,0.197754,-7.6875,-24.8125,1.125,0.608187,-1.37599,-2.63391
2897,-3,-2,0,-2,-2,0,0,-2,1.02246,0.0634766,0.212402,-5.3125,-27.3125,2.375,0.621557,-1.38382,-2.64969
2897,-4,-1,-2,0,-3,-2,-1,0,1.02246,0.0634766,0.212402,-5.3125,-27.3125,2.375,0.621557,-1.38382,-2.64969
2912,-2,-1,-4,0,0,-1,-1,-2,1.02246,0.0634766,0.212402,-5.3125,-27.3125,2.375,0.621557,-1.38382,-2.64969
2912,0,1,-2,1,0,-1,0,-2,1.02246,0.0634766,0.212402,-5.3125,-27.3125,2.375,0.621557,-1.38382,-2.64969
2913,1,-3,0,-1,1,0,-1,-2,1.00098,0.0927734,0.200684,4.5625,-26.3125,5.1875,0.638802,-1.39137,-2.66582
2913,-1,-1,0,-3,-2,-1,-1,-1,1.00098,0.0927734,0.200684,4.5625,-26.3125,5.1875,0.638802,-1.39137,-2.66582
2926,0,-1,-1,-1,0,-2,-2,-1,1.00098,0.0927734,0.200684,4.5625,-26.3125,5.1875,0.638802,-1.39137,-2.66582
2926,-2,-2,-1,0,-3,-3,-2,2,1.00098,0.0927734,0.200684,4.5625,-26.3125,5.1875,0.638802,-1.39137,-2.66582
2935,0,1,-3,-1,0,-1,-1,-4,0.949219,0.146484,0.193848,10.6875,-22.9375,7.875,0.656551,-1.39768,-2.68002
2935,0,-1,-1,0,0,-1,0,-2,0.949219,0.146484,0.193848,10.6875,-22.9375,7.875,0.656551,-1.39768,-2.68002
2949,-1,-3,0,0,-2,-2,-1,0,0.949219,0.146484,0.193848,10.6875,-22.9375,7.875,0.656551,-1.39768,-2.68002
2949,0,0,-2,0,-1,1,-2,-1,0.949219,0.146484,0.193848,10.6875,-22.9375,7.875,0.656551,-1.39768,-2.68002
2951,-1,-1,-1,0,-2,-1,0,1,0.921875,0.143555,0.201172,13.5625,-19.4375,10.375,0.667129,-1.40302,-2.68598
2951,0,0,-1,-2,-1,-1,-2,-1,0.921875,0.143555,0.201172,13.5625,-19.4375,10.375,0.667129,-1.40302,-2.68598
2972,-2,0,-2,-1,-1,0,-1,-1,0.921875,0.143555,0.201172,13.5625,-19.4375,10.375,0.667129,-1.40302,-2.68598
2972,-1,1,0,-2,-2,-1,0,-1,0.921875,0.143555,0.201172,13.5625,-19.4375,10.375,0.667129,-1.40302,-2.68598
2973,1,0,1,-1,-2,-4,-1,0,0.928711,0.114258,0.190918,19.625,-15.6875,11.3125,0.671704,-1.4082,-2.68385
2973,0,0,0,1,1,0,0,1,0.928711,0.114258,0.190918,19.625,-15.6875,11.3125,0.671704,-1.4082,-2.68385
2985,1,-1,0,1,-1,-2,-3,-2,0.928711,0.114258,0.190918,19.625,-15.6875,11.3125,0.671704,-1.4082,-2.68385
2985,0,0,-2,1,-2,0,1,-2,0.928711,0.114258,0.190918,19.625,-15.6875,11.3125,0.671704,-1.4082,-2.68385
2993,-1,-1,-1,-1,0,0,-1,-1,0.950684,0.097168,0.203125,28.8125,-11.4375,10.9375,0.670711,-1.41227,-2.67278
2993,0,-2,0,-1,-1,-1,0,0,0.950684,0.097168,0.203125,28.8125,-11.4375,10.9375,0.670711,-1.41227,-2.67278
3009,-2,-2,0,-2,-2,-1,0,-1,0.950684,0.097168,0.203125,28.8125,-11.4375,10.9375,0.670711,-1.41227,-2.67278
3009,0,-1,-1,-2,-2,-1,-1,-1,0.950684,0.097168,0.203125,28.8125,-11.4375,10.9375,0.670711,-1.41227,-2.67278
3011,-1,-1,-2,0,1,-1,-2,1,0.959473,0.0981445,0.195801,35.9375,-6.25,9.3125,0.668966,-1.41441,-2.65847
3011,-2,1,-2,-1,-1,-1,-3,-2,0.959473,0.0981445,0.195801,35.9375,-6.25,9.3125,0.668966,-1.41441,-2.65847
3031,2,-2,-1,-1,0,-2,-2,-1,0.959473,0.0981445,0.195801,35.9375,-6.25,9.3125,0.668966,-1.41441,-2.65847
3031,-1,-2,1,-1,0,-1,-3,-1,0.959473,0.0981445,0.195801,35.9375,-6.25,9.3125,0.668966,-1.41441,-2.65847
3033,-3,-1,-1,-2,-2,-1,-2,-1,0.962891,0.111816,0.194824,35.125,-2,5.9375,0.668192,-1.41488,-2.6454
3033,0,-2,-2,-1,-1,0,0,0,0.962891,0.111816,0.194824,35.125,-2,5.9375,0.668192,-1.41488,-2.6454
3045,-1,-1,0,1,0,1,-1,-1,0.962891,0.111816,0.194824,35.125,-2,5.9375,0.668192,-1.41488,-2.6454
3045,0,-1,-1,-1,1,-1,0,-1,0.962891,0.111816,0.194824,35.125,-2,5.9375,0.668192,-1.41488,-2.6454
3054,0,0,0,-2,-1,-1,-1,-2,0.953125,0.110352,0.195312,27.5625,1.3125,1.625,0.667393,-1.41261,-2.63498
3054,0,-2,-2,-1,-2,-2,-1,-1,0.953125,0.110352,0.195312,27.5625,1.3125,1.625,0.667393,-1.41261,-2.63498
3069,-1,-2,-1,-3,-3,2,0,-1,0.953125,0.110352,0.195312,27.5625,1.3125,1.625,0.667393,-1.41261,-2.63498
3069,-1,-3,-4,0,-2,-1,-1,-1,0.953125,0.110352,0.195312,27.5625,1.3125,1.625,0.667393,-1.41261,-2.63498
3070,-1,0,-2,1,-1,-1,0,0,0.945312,0.105469,0.207031,16.125,2.75,-2.5625,0.666533,-1.40957,-2.62855
3070,-1,0,1,-2,-2,-1,-2,0,0.945312,0.105469,0.207031,16.125,2.75,-2.5625,0.666533,-1.40957,-2.62855
3091,-3,0,1,-3,-1,0,0,-2,0.945312,0.105469,0.207031,16.125,2.75,-2.5625,0.666533,-1.40957,-2.62855
3091,-2,1,-1,0,-1,-1,-2,-1,0.945312,0.105469,0.207031,16.125,2.75,-2.5625,0.666533,-1.40957,-2.62855
3093,0,0,-2,0,-1,-1,-1,-1,0.945801,0.0893555,0.193848,4.75,3.3125,-6.75,0.667707,-1.406,-2.62827
3093,-2,-1,0,-1,0,0,0,-1,0.945801,0.0893555,0.193848,4.75,3.3125,-6.75,0.667707,-1.406,-2.62827
3106,-1,-2,-1,-2,-1,-1,-1,0,0.945801,0.0893555,0.193848,4.75,3.3125,-6.75,0.667707,-1.406,-2.62827
3106,-2,-2,0,-3,-2,-1,-3,3,0.945801,0.0893555,0.193848,4.75,3.3125,-6.75,0.667707,-1.406,-2.62827
3114,-2,-2,-1,-1,-1,-1,-1,0,0.956055,0.0820312,0.200195,-3.5625,4.1875,-10.6875,0.669457,-1.4014,-2.63154
3114,-2,1,-1,1,-3,-1,2,-1,0.956055,0.0820312,0.200195,-3.5625,4.1875,-10.6875,0.669457,-1.4014,-2.63154
3129,0,0,1,0,-1,-1,-1,-3,0.956055,0.0820312,0.200195,-3.5625,4.1875,-10.6875,0.669457,-1.4014,-2.63154
3129,-2,-1,-2,-3,-1,-3,-3,-3,0.956055,0.0820312,0.200195,-3.5625,4.1875,-10.6875,0.669457,-1.4014,-2.63154
3131,-2,-2,-3,-2,-1,-1,-3,-2,0.952148,0.0771484,0.19873,-8.75,5.5625,-14.9375,0.674033,-1.39568,-2.63954
3131,1,0,-2,-2,0,0,-2,0,0.952148,0.0771484,0.19873,-8.75,5.5625,-14.9375,0.674033,-1.39568,-2.63954
3151,0,0,-2,-2,0,-2,-1,0,0.952148,0.0771484,0.19873,-8.75,5.5625,-14.9375,0.674033,-1.39568,-2.63954
3151,0,0,0,1,-1,2,0,-2,0.952148,0.0771484,0.19873,-8.75,5.5625,-14.9375,0.674033,-1.39568,-2.63954
3153,-1,-2,-2,0,-1,-1,-1,-1,0.952148,0.0961914,0.193359,-14.3125,7.9375,-18.625,0.680261,-1.3884,-2.65118
3153,0,-2,-1,0,0,0,1,-2,0.952148,0.0961914,0.193359,-14.3125,7.9375,-18.625,0.680261,-1.3884,-2.65118
3174,-1,-1,-2,1,-1,-1,0,-1,0.952148,0.0961914,0.193359,-14.3125,7.9375,-18.625,0.680261,-1.3884,-2.65118
3174,-2,-1,1,-1,0,2,0,2,0.952148,0.0961914,0.193359,-14.3125,7.9375,-18.625,0.680261,-1.3884,-2.65118
3175,0,-1,-1,-2,0,0,-1,0,0.957031,0.101562,0.192383,-19.9375,9.75,-20.875,0.686524,-1.38088,-2.66483
3175,-2,-1,0,-1,0,-2,0,-1,0.957031,0.101562,0.192383,-19.9375,9.75,-20.875,0.686524,-1.38088,-2.66483
3189,-1,-1,-1,-2,-1,-2,-2,-1,0.957031,0.101562,0.192383,-19.9375,9.75,-20.875,0.686524,-1.38088,-2.66483
3189,-1,-2,-2,-2,-1,-1,-1,-3,0.957031,0.101562,0.192383,-19.9375,9.75,-20.875,0.686524,-1.38088,-2.66483
3191,-1,1,-1,1,-1,0,-1,-2,0.969238,0.114258,0.182617,-27.8125,11.875,-21.5625,0.689225,-1.37228,-2.67756
3191,0,-1,0,-1,-1,-3,-1,0,0.969238,0.114258,0.182617,-27.8125,11.875,-21.5625,0.689225,-1.37228,-2.67756
3212,-1,-1,0,1,-1,-1,0,0,0.969238,0.114258,0.182617,-27.8125,11.875,-21.5625,0.689225,-1.37228,-2.67756
3212,0,-1,-1,0,0,-1,1,-1,0.969238,0.114258,0.182617,-27.8125,11.875,-21.5625,0.689225,-1.37228,-2.67756
3214,-1,0,0,-1,-1,1,1,0,0.959961,0.104492,0.177734,-33.5625,14.3125,-20.9375,0.686141,-1.36378,-2.68652
3214,-1,1,-1,-1,-1,-2,-2,-2,0.959961,0.104492,0.177734,-33.5625,14.3125,-20.9375,0.686141,-1.36378,-2.68652
3225,-1,-1,-1,-3,-1,-2,-1,0,0.959961,0.104492,0.177734,-33.5625,14.3125,-20.9375,0.686141,-1.36378,-2.68652
3225,0,0,-2,0,0,-1,0,0,0.959961,0.104492,0.177734,-33.5625,14.3125,-20.9375,0.686141,-1.36378,-2.68652
3234,-1,-1,-2,0,-1,0,-3,0,0.9375,0.0917969,0.194824,-34.375,15.875,-20.5625,0.677529,-1.35471,-2.69028
3234,-1,-2,-3,-1,0,-1,0,-2,0.9375,0.0917969,0.194824,-34.375,15.875,-20.5625,0.677529,-1.35471,-2.69028
3249,-1,-1,0,-1,-2,0,-1,-1,0.9375,0.0917969,0.194824,-34.375,15.875,-20.5625,0.677529,-1.35471,-2.69028
3249,0,0,-1,-1,0,0,-1,-1,0.9375,0.0917969,0.194824,-34.375,15.875,-20.5625,0.677529,-1.35471,-2.69028
3251,0,0,1,-1,-1,-1,-3,-1,0.954102,0.0664062,0.211914,-30.4375,15.4375,-20.6875,0.668252,-1.3464,-2.69199
3251,0,-2,-2,1,1,1,0,0,0.954102,0.0664062,0.211914,-30.4375,15.4375,-20.6875,0.668252,-1.3464,-2.69199
3271,-2,0,-3,0,0,1,0,0,0.954102,0.0664062,0.211914,-30.4375,15.4375,-20.6875,0.668252,-1.3464,-2.69199
3271,-1,0,-2,-2,-2,0,-1,0,0.954102,0.0664062,0.211914,-30.4375,15.4375,-20.6875,0.668252,-1.3464,-2.69199
3273,-1,-2,-1,-1,-2,-1,0,0,0.966797,0.0727539,0.211914,-27.375,14.5,-20.25,0.660946,-1.33841,-2.69478
3273,1,-1,-1,-1,-1,-1,0,-1,0.966797,0.0727539,0.211914,-27.375,14.5,-20.25,0.660946,-1.33841,-2.69478
3285,1,-2,-2,-2,0,-1,-1,1,0.966797,0.0727539,0.211914,-27.375,14.5,-20.25,0.660946,-1.33841,-2.69478
3285,-1,0,-1,0,-2,-1,-1,-2,0.966797,0.0727539,0.211914,-27.375,14.5,-20.25,0.660946,-1.33841,-2.69478
3294,-2,-2,-1,0,-1,1,-2,-1,0.958984,0.0839844,0.217773,-25,13.5,-17.75,0.654018,-1.33134,-2.6969
3294,-1,0,0,-1,-1,-1,-1,-1,0.958984,0.0839844,0.217773,-25,13.5,-17.75,0.654018,-1.33134,-2.6969
3309,0,0,-1,-1,-1,-3,0,0,0.958984,0.0839844,0.217773,-25,13.5,-17.75,0.654018,-1.33134,-2.6969
3309,-2,-1,0,-1,0,-1,0,-1,0.958984,0.0839844,0.217773,-25,13.5,-17.75,0.654018,-1.33134,-2.6969
3310,-1,-1,0,-2,-2,0,0,0,0.938477,0.109863,0.209473,-23.4375,12.0625,-13.8125,0.647074,-1.32503,-2.69847
3310,-2,-2,-2,0,0,-1,-1,1,0.938477,0.109863,0.209473,-23.4375,12.0625,-13.8125,0.647074,-1.32503,-2.69847
3332,-2,-1,-1,0,-2,0,-1,-3,0.938477,0.109863,0.209473,-23.4375,12.0625,-13.8125,0.647074,-1.32503,-2.69847
3332,-1,0,-1,-1,1,-2,-1,-1,0.938477,0.109863,0.209473,-23.4375,12.0625,-13.8125,0.647074,-1.32503,-2.69847
3333,0,1,0,-1,-1,-2,0,-2,0.899902,0.112793,0.212891,-21.4375,10.6875,-10.1875,0.638024,-1.31974,-2.69704
3333,0,0,-1,-1,-3,-1,-1,-2,0.899902,0.112793,0.212891,-21.4375,10.6875,-10.1875,0.638024,-1.31974,-2.69704
3345,-1,-1,-2,0,0,0,-1,-1,0.899902,0.112793,0.212891,-21.4375,10.6875,-10.1875,0.638024,-1.31974,-2.69704
3345,0,-2,-1,-2,-2,-1,-1,0,0.899902,0.112793,0.212891,-21.4375,10.6875,-10.1875,0.638024,-1.31974,-2.69704
3353,0,-2,-2,0,-2,0,0,0,0.876465,0.101074,0.216309,-14.8125,9.5625,-7.5,0.628785,-1.31508,-2.69316
3353,-1,0,0,-1,0,-1,-1,-1,0.876465,0.101074,0.216309,-14.8125,9.5625,-7.5,0.628785,-1.31508,-2.69316
3369,-1,0,-1,-2,-2,0,-1,-2,0.876465,0.101074,0.216309,-14.8125,9.5625,-7.5,0.628785,-1.31508,-2.69316
3369,1,-2,-1,0,-1,0,-1,-1,0.876465,0.101074,0.216309,-14.8125,9.5625,-7.5,0.628785,-1.31508,-2.69316
3376,-1,-3,0,-2,0,0,1,-1,0.883301,0.09375,0.232422,-3.3125,8.375,-6.6875,0.622316,-1.31103,-2.68811
3376,-2,-1,-2,-2,0,-1,0,0,0.883301,0.09375,0.232422,-3.3125,8.375,-6.6875,0.622316,-1.31103,-2.68811
3392,0,-1,-1,0,-1,-2,0,-1,0.883301,0.09375,0.232422,-3.3125,8.375,-6.6875,0.622316,-1.31103,-2.68811
3392,-1,-1,-1,0,-1,-2,-1,-1,0.883301,0.09375,0.232422,-3.3125,8.375,-6.6875,0.622316,-1.31103,-2.68811
3393,-1,0,0,0,-2,-2,-1,0,0.920898,0.0908203,0.230957,3.1875,6.375,-6.3125,0.619723,-1.30849,-2.68458
3393,1,-2,-2,0,-1,0,-1,-1,0.920898,0.0908203,0.230957,3.1875,6.375,-6.3125,0.619723,-1.30849,-2.68458
3405,0,-2,0,-3,-1,-3,0,-2,0.920898,0.0908203,0.230957,3.1875,6.375,-6.3125,0.619723,-1.30849,-2.68458
3405,1,0,-2,-2,-1,0,-3,0,0.920898,0.0908203,0.230957,3.1875,6.375,-6.3125,0.619723,-1.30849,-2.68458
3414,0,0,-1,0,2,-4,-1,0,0.951172,0.123047,0.205078,2.3125,6.0625,-4.375,0.618854,-1.30645,-2.68294
3414,-1,-1,-1,-1,-2,0,1,0,0.951172,0.123047,0.205078,2.3125,6.0625,-4.375,0.618854,-1.30645,-2.68294
3429,-2,0,-1,0,-1,-1,0,0,0.951172,0.123047,0.205078,2.3125,6.0625,-4.375,0.618854,-1.30645,-2.68294
3429,0,1,0,0,-2,-1,1,0,0.951172,0.123047,0.205078,2.3125,6.0625,-4.375,0.618854,-1.30645,-2.68294
3430,1,-1,-1,-2,0,-1,0,0,0.959961,0.151855,0.192871,-2.8125,6.5,-2.5625,0.616524,-1.3039,-2.68156
3430,0,0,-1,-2,-1,0,-4,0,0.959961,0.151855,0.192871,-2.8125,6.5,-2.5625,0.616524,-1.3039,-2.68156
3452,-1,-2,-1,0,0,-3,-1,0,0.959961,0.151855,0.192871,-2.8125,6.5,-2.5625,0.616524,-1.3039,-2.68156
3452,-3,-1,0,0,-1,-2,-1,1,0.959961,0.151855,0.192871,-2.8125,6.5,-2.5625,0.616524,-1.3039,-2.68156
3453,-2,-1,-1,-1,0,0,-1,-2,0.972168,0.154297,0.19043,-10.5,6.5,-1.125,0.610932,-1.30259,-2.67939
3453,-1,-1,0,1,0,0,-1,-2,0.972168,0.154297,0.19043,-10.5,6.5,-1.125,0.610932,-1.30259,-2.67939
3474,-1,-1,0,-1,-2,-1,-1,0,0.972168,0.154297,0.19043,-10.5,6.5,-1.125,0.610932,-1.30259,-2.67939
3474,-1,-3,-2,-2,0,-1,0,-2,0.972168,0.154297,0.19043,-10.5,6.5,-1.125,0.610932,-1.30259,-2.67939
3475,-2,-2,-2,-1,-2,0,-3,-2,0.972168,0.148926,0.182617,-15.3125,7.1875,0,0.602134,-1.30117,-2.67576
3475,0,-1,-2,-3,1,-1,-1,0,0.972168,0.148926,0.182617,-15.3125,7.1875,0,0.602134,-1.30117,-2.67576
3489,-1,-2,-2,-2,1,0,-1,-3,0.972168,0.148926,0.182617,-15.3125,7.1875,0,0.602134,-1.30117,-2.67576
3489,-2,-1,-1,-2,0,-1,0,0,0.972168,0.148926,0.182617,-15.3125,7.1875,0,0.602134,-1.30117,-2.67576
3491,1,-1,-1,-1,-1,-4,0,-2,0.94873,0.144043,0.182129,-13.125,8.625,2.4375,0.590658,-1.30018,-2.66834
3491,-2,-1,2,1,0,-2,0,0,0.94873,0.144043,0.182129,-13.125,8.625,2.4375,0.590658,-1.30018,-2.66834
3512,0,-1,-4,0,0,0,-2,-3,0.94873,0.144043,0.182129,-13.125,8.625,2.4375,0.590658,-1.30018,-2.66834
3512,0,-2,0,0,-2,-2,-1,-1,0.94873,0.144043,0.182129,-13.125,8.625,2.4375,0.590658,-1.30018,-2.66834
3513,-2,-2,-1,-2,-3,0,0,0,0.918457,0.146484,0.175781,-6.75,9.8125,4.4375,0.579045,-1.29852,-2.65862
3513,-2,0,-1,1,-2,-3,0,-1,0.918457,0.146484,0.175781,-6.75,9.8125,4.4375,0.579045,-1.29852,-2.65862
3534,-2,0,-2,-2,-2,-1,-1,1,0.918457,0.146484,0.175781,-6.75,9.8125,4.4375,0.579045,-1.29852,-2.65862
3534,-1,-1,-1,-1,-2,-1,1,-2,0.918457,0.146484,0.175781,-6.75,9.8125,4.4375,0.579045,-1.29852,-2.65862
3536,-1,-1,0,-2,0,-3,2,-1,0.898926,0.139648,0.200195,1.0625,10.4375,6.4375,0.566667,-1.29705,-2.64532
3536,0,-2,1,-1,-2,-2,-1,0,0.898926,0.139648,0.200195,1.0625,10.4375,6.4375,0.566667,-1.29705,-2.64532
3549,-1,-1,-1,-2,-1,-1,1,0,0.898926,0.139648,0.200195,1.0625,10.4375,6.4375,0.566667,-1.29705,-2.64532
3549,-1,-2,-2,-2,-4,1,-2,-1,0.898926,0.139648,0.200195,1.0625,10.4375,6.4375,0.566667,-1.29705,-2.64532
3551,0,1,-1,0,0,0,-3,-2,0.896973,0.129395,0.202637,8.9375,10.0625,7.5,0.555735,-1.29565,-2.63064
3551,-1,-1,-1,-1,-2,0,-3,-2,0.896973,0.129395,0.202637,8.9375,10.0625,7.5,0.555735,-1.29565,-2.63064
3571,-1,0,-1,-1,0,0,0,-1,0.896973,0.129395,0.202637,8.9375,10.0625,7.5,0.555735,-1.29565,-2.63064
3571,0,-1,1,-1,0,0,-2,-1,0.896973,0.129395,0.202637,8.9375,10.0625,7.5,0.555735,-1.29565,-2.63064
3573,0,-1,0,1,0,-1,-1,-1,0.92041,0.141113,0.191406,14.25,9.75,6.75,0.549142,-1.29483,-2.61853
3573,0,-2,-1,0,-1,-2,-2,-1,0.92041,0.141113,0.191406,14.25,9.75,6.75,0.549142,-1.29483,-2.61853
3594,0,-1,-1,-1,0,0,0,0,0.92041,0.141113,0.191406,14.25,9.75,6.75,0.549142,-1.29483,-2.61853
3594,-2,0,1,-3,1,-2,-2,-1,0.92041,0.141113,0.191406,14.25,9.75,6.75,0.549142,-1.29483,-2.61853
3595,0,0,-1,0,-2,1,-1,-1,0.935547,0.16748,0.180176,13.25,9.75,5.9375,0.545579,-1.29364,-2.6096
3595,-1,-1,0,0,-2,0,1,-2,0.935547,0.16748,0.180176,13.25,9.75,5.9375,0.545579,-1.29364,-2.6096
3609,0,-1,-1,0,-3,-1,-2,-2,0.935547,0.16748,0.180176,13.25,9.75,5.9375,0.545579,-1.29364,-2.6096
3609,0,-1,-2,0,-1,-1,1,-2,0.935547,0.16748,0.180176,13.25,9.75,5.9375,0.545579,-1.29364,-2.6096
3610,0,0,-2,0,-2,0,-1,-1,0.941406,0.175781,0.165527,6.6875,9.8125,5,0.542372,-1.29233,-2.60333
3610,-2,-2,-1,-1,-1,-1,-2,-1,0.941406,0.175781,0.165527,6.6875,9.8125,5,0.542372,-1.29233,-2.60333
3632,-1,0,-1,0,0,-1,0,2,0.941406,0.175781,0.165527,6.6875,9.8125,5,0.542372,-1.29233,-2.60333
3632,-1,-3,-2,-1,0,-2,0,2,0.941406,0.175781,0.165527,6.6875,9.8125,5,0.542372,-1.29233,-2.60333
3634,-1,-1,-1,-1,-1,-2,-2,0,0.941406,0.176758,0.159668,-2,10,4.0625,0.537262,-1.29087,-2.59829
3634,-1,-2,-2,-2,-2,0,-3,-1,0.941406,0.176758,0.159668,-2,10,4.0625,0.537262,-1.29087,-2.59829
3655,-1,-1,-2,-3,-1,-3,-3,0,0.941406,0.176758,0.159668,-2,10,4.0625,0.537262,-1.29087,-2.59829
3655,-1,-1,-1,-1,-1,-3,-1,-1,0.941406,0.176758,0.159668,-2,10,4.0625,0.537262,-1.29087,-2.59829
3660,1,0,1,0,-1,-2,0,-4,0.939941,0.169922,0.155762,-8.375,10.0625,3,0.530985,-1.28978,-2.59427
3660,0,0,0,-1,-1,0,-1,-1,0.939941,0.169922,0.155762,-8.375,10.0625,3,0.530985,-1.28978,-2.59427
3669,1,-1,1,-1,-1,-1,-1,-3,0.939941,0.169922,0.155762,-8.375,10.0625,3,0.530985,-1.28978,-2.59427
3669,-3,-2,0,-1,-3,-2,-1,0,0.939941,0.169922,0.155762,-8.375,10.0625,3,0.530985,-1.28978,-2.59427
3675,-1,-2,-1,-3,0,-1,-1,0,0.949707,0.172363,0.164062,-12,10.5,2.0625,0.523946,-1.28782,-2.5908
3675,-1,-2,-1,-1,-3,-2,0,-1,0.949707,0.172363,0.164062,-12,10.5,2.0625,0.523946,-1.28782,-2.5908
3691,-1,0,-2,-2,-2,-1,0,-2,0.949707,0.172363,0.164062,-12,10.5,2.0625,0.523946,-1.28782,-2.5908
3691,-2,1,0,0,-1,0,1,-1,0.949707,0.172363,0.164062,-12,10.5,2.0625,0.523946,-1.28782,-2.5908
3693,-1,0,-1,0,-2,0,0,0,0.949219,0.15918,0.180176,-10.625,9.5625,1.6875,0.517311,-1.28629,-2.5874
3693,-2,-1,-2,-1,-1,-1,-2,2,0.949219,0.15918,0.180176,-10.625,9.5625,1.6875,0.517311,-1.28629,-2.5874
3715,2,-1,-1,-1,-1,-1,-1,0,0.949219,0.15918,0.180176,-10.625,9.5625,1.6875,0.517311,-1.28629,-2.5874
3715,0,-1,-1,-2,-2,-1,-2,-3,0.949219,0.15918,0.180176,-10.625,9.5625,1.6875,0.517311,-1.28629,-2.5874
3729,-1,0,-1,-1,-1,1,0,-1,0.953125,0.154297,0.192383,-6.6875,7.8125,1.5625,0.512244,-1.28518,-2.58429
3729,-2,0,-2,-2,0,-1,0,-1,0.953125,0.154297,0.192383,-6.6875,7.8125,1.5625,0.512244,-1.28518,-2.58429
3729,-1,0,0,0,0,1,-3,-2,0.953125,0.154297,0.192383,-6.6875,7.8125,1.5625,0.512244,-1.28518,-2.58429
3729,-1,-1,-1,-1,1,-2,-1,-2,0.953125,0.154297,0.192383,-6.6875,7.8125,1.5625,0.512244,-1.28518,-2.58429
3735,3,1,-1,-2,-1,-1,-1,-1,0.956055,0.15918,0.203125,-1.5,5.3125,1.75,0.510433,-1.28452,-2.58263
3735,-3,-2,-2,-1,-1,-1,0,1,0.956055,0.15918,0.203125,-1.5,5.3125,1.75,0.510433,-1.28452,-2.58263
3752,1,0,-3,0,-1,0,1,-1,0.956055,0.15918,0.203125,-1.5,5.3125,1.75,0.510433,-1.28452,-2.58263
3752,0,-2,-2,0,-1,0,0,0,0.956055,0.15918,0.203125,-1.5,5.3125,1.75,0.510433,-1.28452,-2.58263
3754,-2,0,-2,-1,0,-1,-1,1,0.945801,0.177734,0.203125,1.5,3.25,2.5,0.511178,-1.28426,-2.58243
3754,0,0,0,0,1,-1,0,-1,0.945801,0.177734,0.203125,1.5,3.25,2.5,0.511178,-1.28426,-2.58243
3774,-2,-1,-1,-1,0,-1,-1,-1,0.945801,0.177734,0.203125,1.5,3.25,2.5,0.511178,-1.28426,-2.58243
3774,-1,-1,-3,0,-1,-3,-1,-1,0.945801,0.177734,0.203125,1.5,3.25,2.5,0.511178,-1.28426,-2.58243
3776,-2,0,0,0,-2,-2,0,-2,0.928711,0.177246,0.200195,3,1.5,3.0625,0.513013,-1.28452,-2.58285
3776,2,-1,-1,-1,-2,1,-1,-2,0.928711,0.177246,0.200195,3,1.5,3.0625,0.513013,-1.28452,-2.58285
3788,-2,-3,0,-1,-1,-1,1,-2,0.928711,0.177246,0.200195,3,1.5,3.0625,0.513013,-1.28452,-2.58285
3788,0,-3,-1,-1,1,0,0,-1,0.928711,0.177246,0.200195,3,1.5,3.0625,0.513013,-1.28452,-2.58285
3797,-1,-3,0,-2,0,1,-2,0,0.92041,0.174316,0.191406,2.8125,-0.625,3.125,0.516052,-1.28565,-2.58458
3797,-1,3,-1,-1,-2,-1,1,-1,0.92041,0.174316,0.191406,2.8125,-0.625,3.125,0.516052,-1.28565,-2.58458
3811,-2,1,0,-1,-3,-1,-1,-1,0.92041,0.174316,0.191406,2.8125,-0.625,3.125,0.516052,-1.28565,-2.58458
3811,-1,0,0,1,0,-1,0,-1,0.92041,0.174316,0.191406,2.8125,-0.625,3.125,0.516052,-1.28565,-2.58458
3814,-1,-1,-1,-1,-1,0,0,-1,0.919922,0.169922,0.195312,4.75,-2.6875,2.6875,0.520697,-1.2871,-2.58739
3814,-1,-2,-1,0,-1,1,-2,-2,0.919922,0.169922,0.195312,4.75,-2.6875,2.6875,0.520697,-1.2871,-2.58739
3835,-2,-2,-1,-1,0,0,-2,0,0.919922,0.169922,0.195312,4.75,-2.6875,2.6875,0.520697,-1.2871,-2.58739
3835,-1,-1,-1,-1,-1,0,0,-1,0.919922,0.169922,0.195312,4.75,-2.6875,2.6875,0.520697,-1.2871,-2.58739
3836,-1,-3,-4,1,-1,-2,1,0,0.928711,0.164551,0.201172,7,-4.5,1.1875,0.528422,-1.28907,-2.59256
3836,1,-1,-3,-2,-1,-1,0,0,0.928711,0.164551,0.201172,7,-4.5,1.1875,0.528422,-1.28907,-2.59256
3849,-2,-3,-1,0,-1,-2,-1,-2,0.928711,0.164551,0.201172,7,-4.5,1.1875,0.528422,-1.28907,-2.59256
3849,-1,-3,0,0,-3,-1,-1,-2,0.928711,0.164551,0.201172,7,-4.5,1.1875,0.528422,-1.28907,-2.59256
3855,0,0,-1,-1,0,-1,0,0,0.934082,0.164062,0.20752,7.25,-6,-0.625,0.53824,-1.29098,-2.59989
3855,-1,-3,0,-3,0,-1,-2,-1,0.934082,0.164062,0.20752,7.25,-6,-0.625,0.53824,-1.29098,-2.59989
3872,-1,-1,0,0,-2,-1,-1,-1,0.934082,0.164062,0.20752,7.25,-6,-0.625,0.53824,-1.29098,-2.59989
3872,-2,0,0,0,-1,-1,-1,1,0.934082,0.164062,0.20752,7.25,-6,-0.625,0.53824,-1.29098,-2.59989
3873,-1,-1,-2,0,-1,0,1,-1,0.955566,0.165527,0.208984,4.75,-7.75,-2.25,0.549942,-1.29314,-2.61005
3873,-2,0,0,-1,-1,-2,-1,-2,0.955566,0.165527,0.208984,4.75,-7.75,-2.25,0.549942,-1.29314,-2.61005
3894,0,-2,0,-1,0,0,-1,0,0.955566,0.165527,0.208984,4.75,-7.75,-2.25,0.549942,-1.29314,-2.61005
3894,0,0,-3,-3,-3,-2,-1,0,0.955566,0.165527,0.208984,4.75,-7.75,-2.25,0.549942,-1.29314,-2.61005
3896,-1,1,-3,-2,-1,-2,-2,-2,0.956055,0.162109,0.213867,3.6875,-9.0625,-2.875,0.562058,-1.29517,-2.6212
3896,-2,-2,0,2,0,-2,-3,-3,0.956055,0.162109,0.213867,3.6875,-9.0625,-2.875,0.562058,-1.29517,-2.6212
3909,-2,-2,2,1,0,-3,-2,-1,0.956055,0.162109,0.213867,3.6875,-9.0625,-2.875,0.562058,-1.29517,-2.6212
3909,0,-2,-2,0,-2,0,-3,-1,0.956055,0.162109,0.213867,3.6875,-9.0625,-2.875,0.562058,-1.29517,-2.6212
3916,-1,-1,0,-1,-1,-1,0,0,0.952637,0.167969,0.217773,2.75,-10,-3.75,0.575631,-1.2974,-2.63405
3916,0,-2,0,-3,-2,-2,-1,-1,0.952637,0.167969,0.217773,2.75,-10,-3.75,0.575631,-1.2974,-2.63405
3932,-2,-1,0,0,-2,-2,-1,-2,0.952637,0.167969,0.217773,2.75,-10,-3.75,0.575631,-1.2974,-2.63405
3932,0,1,-2,-1,0,1,-1,0,0.952637,0.167969,0.217773,2.75,-10,-3.75,0.575631,-1.2974,-2.63405
3933,-1,-1,1,-1,-1,0,-2,-1,0.939941,0.171387,0.212891,3.5,-10.6875,-3.9375,0.590374,-1.29955,-2.64794
3933,-3,0,0,0,0,-1,-1,0,0.939941,0.171387,0.212891,3.5,-10.6875,-3.9375,0.590374,-1.29955,-2.64794
3954,-2,0,1,-2,-1,-1,0,2,0.939941,0.171387,0.212891,3.5,-10.6875,-3.9375,0.590374,-1.29955,-2.64794
3954,0,-1,2,1,-1,-3,-2,0,0.939941,0.171387,0.212891,3.5,-10.6875,-3.9375,0.590374,-1.29955,-2.64794
3956,-1,-4,2,-1,0,-1,-1,0,0.936035,0.165527,0.215332,4.5,-10.8125,-4.5,0.605678,-1.30131,-2.66206
3956,1,-1,-1,-2,0,0,0,-1,0.936035,0.165527,0.215332,4.5,-10.8125,-4.5,0.605678,-1.30131,-2.66206
3968,-3,-1,0,-1,0,-1,-2,-2,0.936035,0.165527,0.215332,4.5,-10.8125,-4.5,0.605678,-1.30131,-2.66206
3968,-1,0,-3,-1,0,-2,1,-1,0.936035,0.165527,0.215332,4.5,-10.8125,-4.5,0.605678,-1.30131,-2.66206
3983,-2,-1,-2,0,-1,-3,-2,-1,0.934082,0.155273,0.224121,6.8125,-10.625,-4.75,0.619979,-1.30304,-2.67446
3983,-3,-1,-3,2,0,-1,0,0,0.934082,0.155273,0.224121,6.8125,-10.625,-4.75,0.619979,-1.30304,-2.67446
3992,0,-1,-3,-1,-2,-3,-1,0,0.934082,0.155273,0.224121,6.8125,-10.625,-4.75,0.619979,-1.30304,-2.67446
3992,1,-1,-2,-1,-2,1,-1,-2,0.934082,0.155273,0.224121,6.8125,-10.625,-4.75,0.619979,-1.30304,-2.67446
3993,-2,-2,-2,0,-1,0,-2,1,0.932617,0.138672,0.222656,10.1875,-11.1875,-5.25,0.63546,-1.30502,-2.68694
3993,-2,-1,-1,-1,-1,0,1,-1,0.932617,0.138672,0.222656,10.1875,-11.1875,-5.25,0.63546,-1.30502,-2.68694
4015,0,0,-2,-2,-1,0,-1,-2,0.932617,0.138672,0.222656,10.1875,-11.1875,-5.25,0.63546,-1.30502,-2.68694
4015,-1,-1,-3,0,-2,-1,-2,-1,0.932617,0.138672,0.222656,10.1875,-11.1875,-5.25,0.63546,-1.30502,-2.68694
4016,0,-1,-3,-2,-1,-1,-2,-2,0.947266,0.13623,0.219727,11.5,-11.125,-6.5625,0.652596,-1.30678,-2.70064
4016,-1,-1,-2,-1,-2,-2,-3,-1,0.947266,0.13623,0.219727,11.5,-11.125,-6.5625,0.652596,-1.30678,-2.70064
4028,1,0,0,0,0,1,1,1,0.947266,0.13623,0.219727,11.5,-11.125,-6.5625,0.652596,-1.30678,-2.70064
4028,-1,0,-1,0,0,-1,0,0,0.947266,0.13623,0.219727,11.5,-11.125,-6.5625,0.652596,-1.30678,-2.70064
4036,-2,-2,-2,-2,-2,1,0,0,0.942383,0.150391,0.211426,11.1875,-10.5,-7.5625,0.670917,-1.30791,-2.71567
4036,-1,0,-3,-2,-1,-2,1,0,0.942383,0.150391,0.211426,11.1875,-10.5,-7.5625,0.670917,-1.30791,-2.71567
4051,-2,-1,-2,-1,-1,0,-2,0,0.942383,0.150391,0.211426,11.1875,-10.5,-7.5625,0.670917,-1.30791,-2.71567
4051,-1,-2,-1,-2,0,-1,0,0,0.942383,0.150391,0.211426,11.1875,-10.5,-7.5625,0.670917,-1.30791,-2.71567
4054,-2,-1,-1,0,-1,-2,-1,0,0.94043,0.161621,0.20752,8.4375,-10.0625,-8.25,0.689805,-1.30874,-2.73214
4054,0,-1,-1,1,-3,-1,-2,0,0.94043,0.161621,0.20752,8.4375,-10.0625,-8.25,0.689805,-1.30874,-2.73214
4074,-1,-2,-1,-1,-1,-1,-1,-1,0.94043,0.161621,0.20752,8.4375,-10.0625,-8.25,0.689805,-1.30874,-2.73214
4074,-1,-1,0,0,0,-2,0,0,0.94043,0.161621,0.20752,8.4375,-10.0625,-8.25,0.689805,-1.30874,-2.73214
4076,1,0,-1,-3,0,-1,-1,-1,0.938477,0.162598,0.207031,3.625,-8.875,-8.8125,0.706083,-1.30868,-2.74781
4076,1,-2,-1,0,-1,0,0,0,0.938477,0.162598,0.207031,3.625,-8.875,-8.8125,0.706083,-1.30868,-2.74781
4088,0,-1,-2,1,-1,-1,0,-2,0.938477,0.162598,0.207031,3.625,-8.875,-8.8125,0.706083,-1.30868,-2.74781
4088,-2,2,-1,0,0,0,-2,-1,0.938477,0.162598,0.207031,3.625,-8.875,-8.8125,0.706083,-1.30868,-2.74781
4096,2,1,-1,-1,-3,-1,0,-1,0.945801,0.153809,0.191895,0.625,-7.25,-8.9375,0.720356,-1.30877,-2.76238
4096,-1,2,-1,0,1,0,-1,-2,0.945801,0.153809,0.191895,0.625,-7.25,-8.9375,0.720356,-1.30877,-2.76238
4111,1,0,-1,-2,0,-1,-1,-1,0.945801,0.153809,0.191895,0.625,-7.25,-8.9375,0.720356,-1.30877,-2.76238
4111,-1,0,-1,-2,0,0,-1,-1,0.945801,0.153809,0.191895,0.625,-7.25,-8.9375,0.720356,-1.30877,-2.76238
4114,-1,-2,-1,1,-2,0,0,-1,0.93457,0.150879,0.190918,-0.5625,-5.25,-8.875,0.732011,-1.30816,-2.77472
4114,-1,-1,0,-2,-2,-1,-1,0,0.93457,0.150879,0.190918,-0.5625,-5.25,-8.875,0.732011,-1.30816,-2.77472
4134,-2,-4,-1,0,0,-1,0,1,0.93457,0.150879,0.190918,-0.5625,-5.25,-8.875,0.732011,-1.30816,-2.77472
4134,-1,-3,0,-2,1,-2,0,0,0.93457,0.150879,0.190918,-0.5625,-5.25,-8.875,0.732011,-1.30816,-2.77472
4135,-1,1,-2,-1,-2,-1,-2,-1,0.929199,0.135254,0.197266,0.6875,-3.625,-8.4375,0.739813,-1.3071,-2.78292
4135,0,-1,-2,-3,1,-1,0,-2,0.929199,0.135254,0.197266,0.6875,-3.625,-8.4375,0.739813,-1.3071,-2.78292
4148,-1,0,-2,-2,1,0,-1,-2,0.929199,0.135254,0.197266,0.6875,-3.625,-8.4375,0.739813,-1.3071,-2.78292
4148,0,-2,0,0,-2,-1,-1,0,0.929199,0.135254,0.197266,0.6875,-3.625,-8.4375,0.739813,-1.3071,-2.78292
4157,-1,-2,-1,0,-1,-3,-1,-1,0.925293,0.142578,0.200684,2.5625,-2.125,-8.1875,0.747266,-1.30603,-2.78983
4157,0,-2,0,0,0,-1,0,-2,0.925293,0.142578,0.200684,2.5625,-2.125,-8.1875,0.747266,-1.30603,-2.78983
4172,-1,-2,-1,-2,-3,-1,-1,1,0.925293,0.142578,0.200684,2.5625,-2.125,-8.1875,0.747266,-1.30603,-2.78983
4172,-1,0,-2,0,-1,0,1,-2,0.925293,0.142578,0.200684,2.5625,-2.125,-8.1875,0.747266,-1.30603,-2.78983
4173,0,-1,-1,1,-2,1,1,-1,0.929199,0.146484,0.192383,2.875,-1,-8.25,0.754934,-1.30481,-2.79684
4173,-1,-1,-2,0,-1,-1,0,0,0.929199,0.146484,0.192383,2.875,-1,-8.25,0.754934,-1.30481,-2.79684
4194,-2,1,-2,0,-2,-2,-1,0,0.929199,0.146484,0.192383,2.875,-1,-8.25,0.754934,-1.30481,-2.79684
4194,-1,-2,0,-1,0,-2,-1,-2,0.929199,0.146484,0.192383,2.875,-1,-8.25,0.754934,-1.30481,-2.79684
4196,-3,0,0,-2,0,-1,-1,-1,0.933594,0.148438,0.200684,2.6875,-0.5625,-7.6875,0.760317,-1.30323,-2.80159
4196,0,-1,0,-2,-4,-1,-2,0,0.933594,0.148438,0.200684,2.6875,-0.5625,-7.6875,0.760317,-1.30323,-2.80159
4208,-1,-1,-1,0,-2,3,1,-2,0.933594,0.148438,0.200684,2.6875,-0.5625,-7.6875,0.760317,-1.30323,-2.80159
4208,-2,-1,-1,-3,-3,0,-2,-1,0.933594,0.148438,0.200684,2.6875,-0.5625,-7.6875,0.760317,-1.30323,-2.80159
4217,-1,-1,1,-2,-1,1,-1,-1,0.94043,0.148438,0.203613,0.5,-0.4375,-7.0625,0.764013,-1.30175,-2.8055
4217,0,-1,1,0,0,-1,0,0,0.94043,0.148438,0.203613,0.5,-0.4375,-7.0625,0.764013,-1.30175,-2.8055
4231,-2,-2,0,-1,0,-2,0,-1,0.94043,0.148438,0.203613,0.5,-0.4375,-7.0625,0.764013,-1.30175,-2.8055
4231,0,-2,-1,0,0,-2,0,-1,0.94043,0.148438,0.203613,0.5,-0.4375,-7.0625,0.764013,-1.30175,-2.8055
4233,0,-2,-2,-2,0,-1,0,-1,0.933105,0.148438,0.192383,1.0625,0.0625,-6.625,0.768059,-1.3007,-2.80951
4233,-2,-1,-2,-2,-1,-2,-2,-2,0.933105,0.148438,0.192383,1.0625,0.0625,-6.625,0.768059,-1.3007,-2.80951
4253,1,0,-1,0,0,-3,-1,0,0.933105,0.148438,0.192383,1.0625,0.0625,-6.625,0.768059,-1.3007,-2.80951
4253,-1,-1,-1,0,-1,-1,1,0,0.933105,0.148438,0.192383,1.0625,0.0625,-6.625,0.768059,-1.3007,-2.80951
4260,-2,-2,-2,-1,0,-3,-2,0,0.933594,0.155273,0.195801,0.875,0.3125,-6.3125,0.771024,-1.29904,-2.81253
4260,-3,-1,-2,0,-3,-1,-1,0,0.933594,0.155273,0.195801,0.875,0.3125,-6.3125,0.771024,-1.29904,-2.81253
4268,-1,-1,0,-1,-1,0,0,-3,0.933594,0.155273,0.195801,0.875,0.3125,-6.3125,0.771024,-1.29904,-2.81253
4268,-1,-1,-2,-2,-2,0,-1,0,0.933594,0.155273,0.195801,0.875,0.3125,-6.3125,0.771024,-1.29904,-2.81253
4284,0,1,0,0,0,-3,0,-1,0.944336,0.152344,0.19043,-1.5,0.3125,-6.0625,0.773862,-1.29826,-2.81603
4284,0,-1,1,-1,0,-1,-1,-1,0.944336,0.152344,0.19043,-1.5,0.3125,-6.0625,0.773862,-1.29826,-2.81603
4291,-1,-1,-1,-1,-1,-1,0,-1,0.944336,0.152344,0.19043,-1.5,0.3125,-6.0625,0.773862,-1.29826,-2.81603
4291,0,0,-1,-1,-2,-1,-2,-1,0.944336,0.152344,0.19043,-1.5,0.3125,-6.0625,0.773862,-1.29826,-2.81603
4293,-1,-1,-2,-2,0,-1,-3,-2,0.95166,0.149414,0.187988,-2.75,0.5,-5.5,0.774754,-1.29732,-2.81821
4293,0,-1,-2,-2,0,-2,-2,-1,0.95166,0.149414,0.187988,-2.75,0.5,-5.5,0.774754,-1.29732,-2.81821
4314,0,-1,-2,-3,-2,0,-1,-2,0.95166,0.149414,0.187988,-2.75,0.5,-5.5,0.774754,-1.29732,-2.81821
4314,-1,-1,-1,-1,0,1,1,-2,0.95166,0.149414,0.187988,-2.75,0.5,-5.5,0.774754,-1.29732,-2.81821
4316,-1,-1,-2,1,-1,0,0,0,0.94873,0.154785,0.19043,-1.9375,0.875,-5.375,0.775997,-1.29625,-2.8204
4316,0,0,-1,-1,0,-1,-2,-2,0.94873,0.154785,0.19043,-1.9375,0.875,-5.375,0.775997,-1.29625,-2.8204
4328,-1,-2,1,-1,-1,-2,-1,-1,0.94873,0.154785,0.19043,-1.9375,0.875,-5.375,0.775997,-1.29625,-2.8204
4328,0,-2,0,-1,-2,-1,1,-1,0.94873,0.154785,0.19043,-1.9375,0.875,-5.375,0.775997,-1.29625,-2.8204
4337,-1,-1,1,1,-1,-1,-1,0,0.946289,0.166016,0.189941,-2.5625,1,-5.25,0.777514,-1.29523,-2.82292
4337,-1,1,0,-1,-3,1,2,0,0.946289,0.166016,0.189941,-2.5625,1,-5.25,0.777514,-1.29523,-2.82292
4351,0,-1,-3,-2,-3,-2,-2,-1,0.946289,0.166016,0.189941,-2.5625,1,-5.25,0.777514,-1.29523,-2.82292
4351,0,0,-2,0,0,1,-3,-2,0.946289,0.166016,0.189941,-2.5625,1,-5.25,0.777514,-1.29523,-2.82292
4354,-2,-2,-2,-2,0,-2,-2,-1,0.935547,0.166016,0.191895,-2.0625,0.875,-4.6875,0.77853,-1.29385,-2.82493
4354,0,-4,-1,-1,-1,-1,0,0,0.935547,0.166016,0.191895,-2.0625,0.875,-4.6875,0.77853,-1.29385,-2.82493
4374,-1,1,-1,-1,-1,0,1,-1,0.935547,0.166016,0.191895,-2.0625,0.875,-4.6875,0.77853,-1.29385,-2.82493
4374,0,1,-2,-2,-1,0,-2,-2,0.935547,0.166016,0.191895,-2.0625,0.875,-4.6875,0.77853,-1.29385,-2.82493
4376,-1,-1,-1,-2,-1,-2,0,0,0.930176,0.169922,0.185547,-3.625,0.625,-4.8125,0.780416,-1.29319,-2.82807
4376,-1,-2,0,1,0,-2,-2,-1,0.930176,0.169922,0.185547,-3.625,0.625,-4.8125,0.780416,-1.29319,-2.82807
4388,-2,-2,-1,-2,0,0,-1,-3,0.930176,0.169922,0.185547,-3.625,0.625,-4.8125,0.780416,-1.29319,-2.82807
4388,0,-2,-1,-1,0,-1,0,-2,0.930176,0.169922,0.185547,-3.625,0.625,-4.8125,0.780416,-1.29319,-2.82807
4397,-3,-1,0,1,-2,0,-1,-1,0.91748,0.165039,0.19043,-5.0625,0.8125,-4.8125,0.78039,-1.29204,-2.82999
4397,0,1,-2,-2,-2,-1,0,-1,0.91748,0.165039,0.19043,-5.0625,0.8125,-4.8125,0.78039,-1.29204,-2.82999
4412,-1,0,-2,0,-1,-1,-1,0,0.91748,0.165039,0.19043,-5.0625,0.8125,-4.8125,0.78039,-1.29204,-2.82999
4412,0,0,-1,0,0,-2,-2,0,0.91748,0.165039,0.19043,-5.0625,0.8125,-4.8125,0.78039,-1.29204,-2.82999
4414,2,-3,-2,-1,-1,-1,0,2,0.904297,0.161133,0.197754,-4.125,-0.1875,-5,0.781037,-1.29076,-2.83245
4414,-1,-2,1,1,1,1,-1,0,0.904297,0.161133,0.197754,-4.125,-0.1875,-5,0.781037,-1.29076,-2.83245
4434,-1,-1,-1,0,0,2,-1,-1,0.904297,0.161133,0.197754,-4.125,-0.1875,-5,0.781037,-1.29076,-2.83245
4434,-2,-2,-1,-1,-1,0,0,0,0.904297,0.161133,0.197754,-4.125,-0.1875,-5,0.781037,-1.29076,-2.83245
4436,0,0,-2,-2,-2,-1,-1,-2,0.899414,0.163574,0.197754,-5.3125,-1.25,-6,0.783778,-1.29015,-2.83724
4436,-3,-2,-1,-2,-1,-1,-1,0,0.899414,0.163574,0.197754,-5.3125,-1.25,-6,0.783778,-1.29015,-2.83724
4457,0,-2,0,-1,-2,-1,-1,1,0.899414,0.163574,0.197754,-5.3125,-1.25,-6,0.783778,-1.29015,-2.83724
4457,-2,-1,0,-1,-1,-1,-2,-2,0.899414,0.163574,0.197754,-5.3125,-1.25,-6,0.783778,-1.29015,-2.83724
4458,-2,-2,0,-3,-2,1,-1,-2,0.901855,0.166504,0.205566,-1.8125,-2.5,-6.25,0.787635,-1.28893,-2.84217
4458,-1,-2,-2,-1,-1,0,0,-3,0.901855,0.166504,0.205566,-1.8125,-2.5,-6.25,0.787635,-1.28893,-2.84217
4472,0,-1,-2,-1,0,-1,-2,-1,0.901855,0.166504,0.205566,-1.8125,-2.5,-6.25,0.787635,-1.28893,-2.84217
4472,-1,-1,0,-1,-2,0,1,1,0.901855,0.166504,0.205566,-1.8125,-2.5,-6.25,0.787635,-1.28893,-2.84217
4473,-1,-1,-2,0,-1,0,0,0,0.919922,0.166992,0.207031,0.5,-4,-7.8125,0.794988,-1.28816,-2.84984
4473,-1,0,0,-1,-2,-2,-1,0,0.919922,0.166992,0.207031,0.5,-4,-7.8125,0.794988,-1.28816,-2.84984
4494,-2,0,0,0,-1,-1,-1,-2,0.919922,0.166992,0.207031,0.5,-4,-7.8125,0.794988,-1.28816,-2.84984
4494,-1,0,-1,0,0,-1,0,0,0.919922,0.166992,0.207031,0.5,-4,-7.8125,0.794988,-1.28816,-2.84984
4496,-2,-2,-1,1,0,-1,-1,-2,0.925293,0.176758,0.199707,-1.3125,-4.5625,-8.5625,0.803762,-1.28719,-2.85958
4496,-2,-2,-1,-3,1,-1,-1,0,0.925293,0.176758,0.199707,-1.3125,-4.5625,-8.5625,0.803762,-1.28719,-2.85958
4516,-2,-2,0,-3,-1,0,0,-1,0.925293,0.176758,0.199707,-1.3125,-4.5625,-8.5625,0.803762,-1.28719,-2.85958
4516,-2,0,1,-1,-1,-2,-1,-2,0.925293,0.176758,0.199707,-1.3125,-4.5625,-8.5625,0.803762,-1.28719,-2.85958
4518,-1,-2,-1,-1,-1,-2,0,-1,0.925293,0.190918,0.198242,-2.0625,-4.6875,-8.625,0.812953,-1.28583,-2.87002
4518,1,-2,-1,1,0,-1,-1,-2,0.925293,0.190918,0.198242,-2.0625,-4.6875,-8.625,0.812953,-1.28583,-2.87002
4532,0,0,-2,-1,0,-2,-1,-1,0.925293,0.190918,0.198242,-2.0625,-4.6875,-8.625,0.812953,-1.28583,-2.87002
4532,-1,-2,-3,-2,0,-1,-1,-1,0.925293,0.190918,0.198242,-2.0625,-4.6875,-8.625,0.812953,-1.28583,-2.87002
4533,-1,0,2,-2,-1,0,-2,-1,0.929688,0.197754,0.183105,-2.9375,-4.4375,-9.75,0.823671,-1.28477,-2.88219
4533,-1,-2,-2,-1,0,-1,0,-1,0.929688,0.197754,0.183105,-2.9375,-4.4375,-9.75,0.823671,-1.28477,-2.88219
4561,-2,-2,-3,-1,-1,-1,-2,-1,0.929688,0.197754,0.183105,-2.9375,-4.4375,-9.75,0.823671,-1.28477,-2.88219
4561,2,-1,-1,-2,-2,-1,0,0,0.929688,0.197754,0.183105,-2.9375,-4.4375,-9.75,0.823671,-1.28477,-2.88219
4563,0,0,-2,-1,0,0,1,-1,0.928711,0.202637,0.180176,-4.4375,-3.625,-10.8125,0.834326,-1.28292,-2.89482
4563,0,-1,-1,-1,-2,-1,1,0,0.928711,0.202637,0.180176,-4.4375,-3.625,-10.8125,0.834326,-1.28292,-2.89482
4576,-1,-1,2,-1,0,-2,0,0,0.928711,0.202637,0.180176,-4.4375,-3.625,-10.8125,0.834326,-1.28292,-2.89482
4576,-2,-1,-1,-2,-1,-1,-1,-2,0.928711,0.202637,0.180176,-4.4375,-3.625,-10.8125,0.834326,-1.28292,-2.89482
4578,0,-2,0,0,-1,-2,-1,0,0.930664,0.213867,0.178223,-5.75,-3.75,-11.9375,0.845227,-1.28044,-2.90833
4578,0,0,-1,-2,-1,0,-2,-1,0.930664,0.213867,0.178223,-5.75,-3.75,-11.9375,0.845227,-1.28044,-2.90833
4591,0,-2,-1,-1,-2,-1,0,2,0.930664,0.213867,0.178223,-5.75,-3.75,-11.9375,0.845227,-1.28044,-2.90833
4591,0,-2,-1,-1,-1,-1,-1,-1,0.930664,0.213867,0.178223,-5.75,-3.75,-11.9375,0.845227,-1.28044,-2.90833
4598,0,0,-1,-1,-2,-1,0,-2,0.934082,0.228516,0.182129,-10.0625,-3.3125,-13.0625,0.85578,-1.27773,-2.92285
4598,-1,-2,1,0,-1,1,-1,-1,0.934082,0.228516,0.182129,-10.0625,-3.3125,-13.0625,0.85578,-1.27773,-2.92285
4614,0,-2,0,0,-1,0,-1,-1,0.934082,0.228516,0.182129,-10.0625,-3.3125,-13.0625,0.85578,-1.27773,-2.92285
4614,-1,0,0,-1,-1,-1,-2,-2,0.934082,0.228516,0.182129,-10.0625,-3.3125,-13.0625,0.85578,-1.27773,-2.92285
4620,-1,-2,-1,0,-2,-1,-1,0,0.912109,0.220703,0.188477,-13.75,-3.25,-13.1875,0.863746,-1.27456,-2.93621
4620,-2,0,-2,-2,0,0,-2,0,0.912109,0.220703,0.188477,-13.75,-3.25,-13.1875,0.863746,-1.27456,-2.93621
4636,0,1,0,-1,0,1,-1,-2,0.912109,0.220703,0.188477,-13.75,-3.25,-13.1875,0.863746,-1.27456,-2.93621
4636,-1,-2,-1,-1,-1,0,0,-2,0.912109,0.220703,0.188477,-13.75,-3.25,-13.1875,0.863746,-1.27456,-2.93621
4638,-1,-2,-4,-3,0,-1,-2,1,0.889648,0.215332,0.197754,-11.375,-3.625,-13.25,0.871401,-1.27143,-2.94848
4638,-2,-2,-2,-3,-2,-2,1,0,0.889648,0.215332,0.197754,-11.375,-3.625,-13.25,0.871401,-1.27143,-2.94848
4651,-2,0,-1,1,0,-2,1,-1,0.889648,0.215332,0.197754,-11.375,-3.625,-13.25,0.871401,-1.27143,-2.94848
4651,-1,-1,-1,-1,0,-1,-1,1,0.889648,0.215332,0.197754,-11.375,-3.625,-13.25,0.871401,-1.27143,-2.94848
4665,-3,-2,-1,0,-2,-1,-1,-3,0.87207,0.214844,0.187988,-6.5,-4.25,-14.25,0.882416,-1.26828,-2.96232
4665,-1,0,-1,-2,1,-2,-1,0,0.87207,0.214844,0.187988,-6.5,-4.25,-14.25,0.882416,-1.26828,-2.96232
4674,1,-1,-2,-2,-2,-3,-1,-1,0.87207,0.214844,0.187988,-6.5,-4.25,-14.25,0.882416,-1.26828,-2.96232
4674,1,-1,0,-1,0,-3,-1,-2,0.87207,0.214844,0.187988,-6.5,-4.25,-14.25,0.882416,-1.26828,-2.96232
4676,0,0,0,-3,-1,0,-2,-2,0.875977,0.22998,0.183594,-1.5,-4.6875,-14.125,0.895951,-1.26526,-2.977
4676,-1,0,-2,0,-2,-1,0,-3,0.875977,0.22998,0.183594,-1.5,-4.6875,-14.125,0.895951,-1.26526,-2.977
4696,-1,-2,-1,-1,0,0,0,-1,0.875977,0.22998,0.183594,-1.5,-4.6875,-14.125,0.895951,-1.26526,-2.977
4696,-2,-2,-4,0,-1,1,0,-1,0.875977,0.22998,0.183594,-1.5,-4.6875,-14.125,0.895951,-1.26526,-2.977
4698,-1,0,-2,1,-2,0,-1,-1,0.899902,0.246094,0.177734,0.3125,-5.4375,-13.5625,0.910616,-1.26215,-2.99227
4698,1,-1,-2,-1,0,0,-2,-3,0.899902,0.246094,0.177734,0.3125,-5.4375,-13.5625,0.910616,-1.26215,-2.99227
4711,-1,-1,-1,-2,-1,-2,-3,1,0.899902,0.246094,0.177734,0.3125,-5.4375,-13.5625,0.910616,-1.26215,-2.99227
4711,-1,-1,-2,-2,0,-2,-1,0,0.899902,0.246094,0.177734,0.3125,-5.4375,-13.5625,0.910616,-1.26215,-2.99227
4718,-1,-1,-2,-1,-1,-1,-2,-1,0.922363,0.253418,0.179199,-0.25,-6.25,-12,0.924686,-1.25982,-3.00714
4718,0,-2,-1,0,-1,0,0,-1,0.922363,0.253418,0.179199,-0.25,-6.25,-12,0.924686,-1.25982,-3.00714
4734,-2,-1,0,0,0,-1,-3,-2,0.922363,0.253418,0.179199,-0.25,-6.25,-12,0.924686,-1.25982,-3.00714
4734,-1,-1,2,1,0,-1,-1,1,0.922363,0.253418,0.179199,-0.25,-6.25,-12,0.924686,-1.25982,-3.00714
4736,-1,-1,0,-1,0,-1,0,-1,0.945312,0.266602,0.177246,-1,-7.0625,-10.25,0.938219,-1.25805,-3.02157
4736,-2,0,-1,0,-1,0,0,-1,0.945312,0.266602,0.177246,-1,-7.0625,-10.25,0.938219,-1.25805,-3.02157
4756,-1,-1,-2,-2,-2,0,-1,-1,0.945312,0.266602,0.177246,-1,-7.0625,-10.25,0.938219,-1.25805,-3.02157
4756,-1,1,-3,-1,0,-3,0,-1,0.945312,0.266602,0.177246,-1,-7.0625,-10.25,0.938219,-1.25805,-3.02157
4758,0,-3,-1,-2,0,-2,0,-2,0.963867,0.266602,0.185059,-1.75,-7.875,-8.8125,0.950232,-1.25688,-3.03483
4758,1,-2,-1,-1,-1,-2,-1,-1,0.963867,0.266602,0.185059,-1.75,-7.875,-8.8125,0.950232,-1.25688,-3.03483
4771,1,1,1,0,-1,-3,-1,-2,0.963867,0.266602,0.185059,-1.75,-7.875,-8.8125,0.950232,-1.25688,-3.03483
4771,-1,0,-1,0,-2,0,-1,0,0.963867,0.266602,0.185059,-1.75,-7.875,-8.8125,0.950232,-1.25688,-3.03483
4778,0,0,-1,0,-1,-1,0,0,0.982422,0.268555,0.191406,-3.4375,-8.625,-6.8125,0.960849,-1.25652,-3.04715
4778,1,1,-3,0,-1,-2,-2,-1,0.982422,0.268555,0.191406,-3.4375,-8.625,-6.8125,0.960849,-1.25652,-3.04715
4794,0,0,-1,-1,-1,0,-2,-1,0.982422,0.268555,0.191406,-3.4375,-8.625,-6.8125,0.960849,-1.25652,-3.04715
4794,1,1,0,-1,-1,-2,-1,0,0.982422,0.268555,0.191406,-3.4375,-8.625,-6.8125,0.960849,-1.25652,-3.04715
4796,-1,0,-2,0,-1,-2,-1,0,0.983398,0.270508,0.1875,-4,-8.8125,-4,0.969255,-1.25692,-3.05747
4796,0,0,0,-2,0,0,0,0,0.983398,0.270508,0.1875,-4,-8.8125,-4,0.969255,-1.25692,-3.05747
4817,-1,-1,-1,-1,-1,-1,1,-1,0.983398,0.270508,0.1875,-4,-8.8125,-4,0.969255,-1.25692,-3.05747
4817,-2,-1,1,-2,-1,0,-2,-2,0.983398,0.270508,0.1875,-4,-8.8125,-4,0.969255,-1.25692,-3.05747
4818,-1,-1,0,-1,-1,-1,1,0,0.954102,0.263672,0.185059,-3.0625,-8.75,-0.75,0.976144,-1.25809,-3.06578
4818,-1,1,-1,-1,-1,-1,-1,-2,0.954102,0.263672,0.185059,-3.0625,-8.75,-0.75,0.976144,-1.25809,-3.06578
4839,2,2,-1,-1,-1,-3,-1,-1,0.954102,0.263672,0.185059,-3.0625,-8.75,-0.75,0.976144,-1.25809,-3.06578
4839,0,0,-3,-1,-4,-4,-2,1,0.954102,0.263672,0.185059,-3.0625,-8.75,-0.75,0.976144,-1.25809,-3.06578
4840,-2,-1,-1,0,-1,-1,0,0,0.89209,0.262207,0.180664,1.0625,-8.25,1.9375,0.982237,-1.25941,-3.07194
4840,-1,-2,-1,0,-1,0,-2,0,0.89209,0.262207,0.180664,1.0625,-8.25,1.9375,0.982237,-1.25941,-3.07194
4854,1,-4,-1,0,-1,0,0,0,0.89209,0.262207,0.180664,1.0625,-8.25,1.9375,0.982237,-1.25941,-3.07194
4854,0,-2,0,-1,-1,1,-1,-1,0.89209,0.262207,0.180664,1.0625,-8.25,1.9375,0.982237,-1.25941,-3.07194
4855,1,-2,0,-1,-2,-1,-1,-3,0.864746,0.265625,0.18457,6.5625,-8.125,3.8125,0.98896,-1.2611,-3.07651
4855,-2,-2,-1,-1,-2,-2,0,1,0.864746,0.265625,0.18457,6.5625,-8.125,3.8125,0.98896,-1.2611,-3.07651
4877,-2,-1,-1,0,0,-1,0,-1,0.864746,0.265625,0.18457,6.5625,-8.125,3.8125,0.98896,-1.2611,-3.07651
4877,0,-1,-1,-1,0,0,0,-1,0.864746,0.265625,0.18457,6.5625,-8.125,3.8125,0.98896,-1.2611,-3.07651
4878,0,0,-2,-1,0,1,-1,1,0.855469,0.254395,0.185059,10.625,-8,4.625,0.995911,-1.26293,-3.0802
4878,-2,0,-1,-1,1,0,0,-2,0.855469,0.254395,0.185059,10.625,-8,4.625,0.995911,-1.26293,-3.0802
4891,-3,-1,-1,0,-1,0,-3,0,0.855469,0.254395,0.185059,10.625,-8,4.625,0.995911,-1.26293,-3.0802
4891,-1,-2,0,1,-1,-2,0,1,0.855469,0.254395,0.185059,10.625,-8,4.625,0.995911,-1.26293,-3.0802
4898,-2,-1,1,0,-1,-2,-1,-1,0.84668,0.254883,0.19043,11.4375,-7.8125,5.3125,1.00176,-1.26477,-3.08225
4898,2,1,-1,0,-3,-2,-1,-2,0.84668,0.254883,0.19043,11.4375,-7.8125,5.3125,1.00176,-1.26477,-3.08225
4913,-2,-2,-1,0,0,-2,0,-1,0.84668,0.254883,0.19043,11.4375,-7.8125,5.3125,1.00176,-1.26477,-3.08225
4913,-2,-2,0,0,0,-2,-2,0,0.84668,0.254883,0.19043,11.4375,-7.8125,5.3125,1.00176,-1.26477,-3.08225
4916,-2,-1,-1,-2,-1,-2,-1,-1,0.850098,0.257324,0.197266,11.625,-8.3125,5.5,1.00807,-1.26677,-3.08481
4916,-2,-2,0,-1,-1,-1,-1,0,0.850098,0.257324,0.197266,11.625,-8.3125,5.5,1.00807,-1.26677,-3.08481
4936,-2,-2,-2,-2,0,1,-1,-2,0.850098,0.257324,0.197266,11.625,-8.3125,5.5,1.00807,-1.26677,-3.08481
4936,0,-1,-1,-1,-1,1,0,0,0.850098,0.257324,0.197266,11.625,-8.3125,5.5,1.00807,-1.26677,-3.08481
4938,-1,0,-1,0,-1,-2,-1,-1,0.874512,0.270996,0.189941,10.0625,-8.4375,5,1.015,-1.26833,-3.08846
4938,-1,-1,0,-1,-1,-1,0,0,0.874512,0.270996,0.189941,10.0625,-8.4375,5,1.015,-1.26833,-3.08846
4951,-1,-1,-2,0,-1,0,-1,1,0.874512,0.270996,0.189941,10.0625,-8.4375,5,1.015,-1.26833,-3.08846
4951,-3,-2,0,0,-1,-1,-2,0,0.874512,0.270996,0.189941,10.0625,-8.4375,5,1.015,-1.26833,-3.08846
4960,-1,-1,-1,0,0,0,-2,0,0.875,0.286621,0.183105,7.0625,-8.125,4.9375,1.02141,-1.26968,-3.0927
4960,-1,-2,-2,-1,0,-2,-1,-1,0.875,0.286621,0.183105,7.0625,-8.125,4.9375,1.02141,-1.26968,-3.0927
4974,-1,1,0,-2,-1,-3,-3,-1,0.875,0.286621,0.183105,7.0625,-8.125,4.9375,1.02141,-1.26968,-3.0927
4974,1,-1,0,-3,-2,-1,0,-3,0.875,0.286621,0.183105,7.0625,-8.125,4.9375,1.02141,-1.26968,-3.0927
4976,0,-2,-1,-3,-2,0,1,0,0.873535,0.283691,0.194824,4.75,-8,5.3125,1.02612,-1.27107,-3.09598
4976,-1,-2,0,0,-2,-2,1,-1,0.873535,0.283691,0.194824,4.75,-8,5.3125,1.02612,-1.27107,-3.09598
4997,0,-1,-1,-1,0,-1,0,-1,0.873535,0.283691,0.194824,4.75,-8,5.3125,1.02612,-1.27107,-3.09598
4997,0,-1,0,-1,-2,-1,0,0,0.873535,0.283691,0.194824,4.75,-8,5.3125,1.02612,-1.27107,-3.09598
4998,1,0,0,-2,0,1,0,-1,0.874023,0.275879,0.191895,4.75,-8.25,5.4375,1.03066,-1.27241,-3.09934
4998,0,-2,0,-2,-2,0,-1,-1,0.874023,0.275879,0.191895,4.75,-8.25,5.4375,1.03066,-1.27241,-3.09934
5010,-1,0,-1,-3,-2,-1,0,0,0.874023,0.275879,0.191895,4.75,-8.25,5.4375,1.03066,-1.27241,-3.09934
5010,0,-1,-2,-1,-2,-3,-1,-1,0.874023,0.275879,0.191895,4.75,-8.25,5.4375,1.03066,-1.27241,-3.09934
5019,-2,-2,-4,-1,-3,-1,0,-1,0.873535,0.276855,0.190918,6.375,-8.0625,6.125,1.03518,-1.27436,-3.10169
5019,-2,-2,-1,-1,0,0,-1,0,0.873535,0.276855,0.190918,6.375,-8.0625,6.125,1.03518,-1.27436,-3.10169
5034,-1,-2,-3,0,0,1,0,-1,0.873535,0.276855,0.190918,6.375,-8.0625,6.125,1.03518,-1.27436,-3.10169
5034,-2,0,-1,-2,0,0,0,-3,0.873535,0.276855,0.190918,6.375,-8.0625,6.125,1.03518,-1.27436,-3.10169
5036,0,0,-3,-1,-1,0,-2,-1,0.86377,0.291504,0.188965,9.5,-7.75,7.3125,1.04068,-1.27586,-3.10406
5036,-1,-2,-1,-1,0,-1,-1,-2,0.86377,0.291504,0.188965,9.5,-7.75,7.3125,1.04068,-1.27586,-3.10406
5057,-2,-1,-1,-1,-2,-1,-2,-1,0.86377,0.291504,0.188965,9.5,-7.75,7.3125,1.04068,-1.27586,-3.10406
5057,-1,0,1,1,0,0,2,-1,0.86377,0.291504,0.188965,9.5,-7.75,7.3125,1.04068,-1.27586,-3.10406
5058,-2,1,0,-1,1,-3,-1,-1,0.85498,0.29834,0.193848,10,-7.4375,8.1875,1.04524,-1.27727,-3.10539
5058,-1,0,-1,-1,0,0,-2,-1,0.85498,0.29834,0.193848,10,-7.4375,8.1875,1.04524,-1.27727,-3.10539
5070,-1,-1,0,0,-2,-1,-2,-1,0.85498,0.29834,0.193848,10,-7.4375,8.1875,1.04524,-1.27727,-3.10539
5070,-1,-3,-2,-1,0,-1,-2,0,0.85498,0.29834,0.193848,10,-7.4375,8.1875,1.04524,-1.27727,-3.10539
5079,0,-1,-1,0,-1,-1,-1,-1,0.84082,0.297852,0.199707,10.8125,-6.875,9.5,1.04837,-1.2791,-3.10472
5079,-1,0,-2,0,-1,-2,-3,0,0.84082,0.297852,0.199707,10.8125,-6.875,9.5,1.04837,-1.2791,-3.10472
5095,-1,-1,0,-1,-2,-1,0,-1,0.84082,0.297852,0.199707,10.8125,-6.875,9.5,1.04837,-1.2791,-3.10472
5095,0,-1,-1,-1,-1,-1,-2,0,0.84082,0.297852,0.199707,10.8125,-6.875,9.5,1.04837,-1.2791,-3.10472
5096,-1,-2,0,-1,-1,-2,-2,0,0.832031,0.283203,0.206543,12.9375,-6.5,10.25,1.04997,-1.28074,-3.10217
5096,-1,-2,-1,-1,0,-3,-1,-1,0.832031,0.283203,0.206543,12.9375,-6.5,10.25,1.04997,-1.28074,-3.10217
5116,-1,0,-1,0,-1,-1,0,-2,0.832031,0.283203,0.206543,12.9375,-6.5,10.25,1.04997,-1.28074,-3.10217
5116,-2,0,0,-1,-1,0,-1,-3,0.832031,0.283203,0.206543,12.9375,-6.5,10.25,1.04997,-1.28074,-3.10217
5118,-1,-3,-1,0,0,1,1,-3,0.834961,0.271484,0.209473,16.125,-6.5,10.625,1.05225,-1.28313,-3.09881
5118,0,-1,0,0,1,-1,1,1,0.834961,0.271484,0.209473,16.125,-6.5,10.625,1.05225,-1.28313,-3.09881
5130,-1,0,-2,-1,0,-1,-2,-1,0.834961,0.271484,0.209473,16.125,-6.5,10.625,1.05225,-1.28313,-3.09881
5130,-5,0,-3,0,0,-1,-1,0,0.834961,0.271484,0.209473,16.125,-6.5,10.625,1.05225,-1.28313,-3.09881
5139,0,-1,0,-1,-3,0,-2,-2,0.840332,0.267578,0.200195,18.4375,-6.25,10.125,1.05511,-1.28519,-3.09558
5139,2,-2,-2,-2,0,0,0,-2,0.840332,0.267578,0.200195,18.4375,-6.25,10.125,1.05511,-1.28519,-3.09558
5154,4,-1,-1,0,-2,-1,1,-2,0.840332,0.267578,0.200195,18.4375,-6.25,10.125,1.05511,-1.28519,-3.09558
5154,-2,-1,-2,1,2,-2,-1,-2,0.840332,0.267578,0.200195,18.4375,-6.25,10.125,1.05511,-1.28519,-3.09558
5156,-2,-1,0,-2,-2,-2,-2,1,0.856445,0.264648,0.195312,18.9375,-5.1875,10.0625,1.05783,-1.28728,-3.09182
5156,-2,-1,-1,-1,-3,1,0,0,0.856445,0.264648,0.195312,18.9375,-5.1875,10.0625,1.05783,-1.28728,-3.09182
5177,-4,-2,-1,-1,0,0,1,0,0.856445,0.264648,0.195312,18.9375,-5.1875,10.0625,1.05783,-1.28728,-3.09182
5177,0,-1,0,-2,-2,-3,-1,1,0.856445,0.264648,0.195312,18.9375,-5.1875,10.0625,1.05783,-1.28728,-3.09182
5178,-2,1,-2,-2,-2,-1,1,0,0.873047,0.26123,0.200684,16.5,-4,10.0625,1.0578,-1.28957,-3.08583
5178,0,1,-2,-3,-2,0,-3,0,0.873047,0.26123,0.200684,16.5,-4,10.0625,1.0578,-1.28957,-3.08583
5190,0,-1,-1,-1,2,-1,-1,-1,0.873047,0.26123,0.200684,16.5,-4,10.0625,1.0578,-1.28957,-3.08583
5190,-2,-1,-2,-2,-1,-1,0,-2,0.873047,0.26123,0.200684,16.5,-4,10.0625,1.0578,-1.28957,-3.08583
5199,-1,-1,-1,-2,-2,-1,0,-2,0.882324,0.253418,0.201172,14.0625,-3.375,10.375,1.05553,-1.2916,-3.07882
5199,-2,-1,-1,0,-1,0,0,-1,0.882324,0.253418,0.201172,14.0625,-3.375,10.375,1.05553,-1.2916,-3.07882
5215,0,-1,-2,-1,-3,1,0,-1,0.882324,0.253418,0.201172,14.0625,-3.375,10.375,1.05553,-1.2916,-3.07882
5215,1,-3,-2,1,0,-1,-1,0,0.882324,0.253418,0.201172,14.0625,-3.375,10.375,1.05553,-1.2916,-3.07882
5216,-3,0,-2,0,-1,0,-1,1,0.912598,0.243164,0.206055,13.0625,-2.1875,10.375,1.05092,-1.294,-3.06958
5216,-2,0,-1,2,-1,-1,-2,-1,0.912598,0.243164,0.206055,13.0625,-2.1875,10.375,1.05092,-1.294,-3.06958
5237,2,1,-1,-1,0,-2,-2,0,0.912598,0.243164,0.206055,13.0625,-2.1875,10.375,1.05092,-1.294,-3.06958
5237,1,-2,-1,-1,0,-1,-1,-1,0.912598,0.243164,0.206055,13.0625,-2.1875,10.375,1.05092,-1.294,-3.06958
5239,0,-1,1,-4,-1,-2,-1,0,0.924805,0.237793,0.211914,12.6875,-1,10.5625,1.04404,-1.29599,-3.05838
5239,-2,-1,0,-3,-2,-2,-1,-2,0.924805,0.237793,0.211914,12.6875,-1,10.5625,1.04404,-1.29599,-3.05838
5251,-1,-1,-1,-1,-1,-1,-1,-1,0.924805,0.237793,0.211914,12.6875,-1,10.5625,1.04404,-1.29599,-3.05838
5251,0,0,-3,-1,-3,-2,-1,-2,0.924805,0.237793,0.211914,12.6875,-1,10.5625,1.04404,-1.29599,-3.05838
5260,0,-1,-1,1,0,0,-2,-1,0.955078,0.234863,0.233887,12.6875,-0.8125,11.25,1.03465,-1.29814,-3.0447
5260,0,0,-2,-2,-2,-1,-1,0,0.955078,0.234863,0.233887,12.6875,-0.8125,11.25,1.03465,-1.29814,-3.0447
5274,-1,-1,0,-3,0,-2,1,0,0.955078,0.234863,0.233887,12.6875,-0.8125,11.25,1.03465,-1.29814,-3.0447
5274,-3,-1,0,-2,-2,0,-1,0,0.955078,0.234863,0.233887,12.6875,-0.8125,11.25,1.03465,-1.29814,-3.0447
5275,-2,-2,-1,-1,0,0,-1,1,1.021,0.228027,0.257812,12.0625,-2.0625,11.6875,1.0241,-1.30108,-3.02998
5275,0,-1,-2,0,0,-2,-1,-1,1.021,0.228027,0.257812,12.0625,-2.0625,11.6875,1.0241,-1.30108,-3.02998
5297,-1,-1,-3,-1,0,-1,-2,0,1.021,0.228027,0.257812,12.0625,-2.0625,11.6875,1.0241,-1.30108,-3.02998
5297,0,0,1,-2,0,-3,-2,-1,1.021,0.228027,0.257812,12.0625,-2.0625,11.6875,1.0241,-1.30108,-3.02998
5298,0,-1,-1,0,0,-1,-2,-2,1.10303,0.208496,0.259766,12.9375,-3.625,11.6875,1.01414,-1.30487,-3.01577
5298,-1,-2,-2,-1,-2,1,1,-2,1.10303,0.208496,0.259766,12.9375,-3.625,11.6875,1.01414,-1.30487,-3.01577
5310,-1,-3,0,-1,-2,0,-2,1,1.10303,0.208496,0.259766,12.9375,-3.625,11.6875,1.01414,-1.30487,-3.01577
5310,-3,-2,-3,0,-2,-1,-1,2,1.10303,0.208496,0.259766,12.9375,-3.625,11.6875,1.01414,-1.30487,-3.01577
5319,-2,1,-1,-1,-1,0,-1,0,1.12061,0.212402,0.23877,6.75,-3.25,11.875,1.00363,-1.30874,-3.003
5319,-2,0,-2,0,-2,-1,-1,0,1.12061,0.212402,0.23877,6.75,-3.25,11.875,1.00363,-1.30874,-3.003
5335,1,1,-1,0,-1,-2,-1,-3,1.12061,0.212402,0.23877,6.75,-3.25,11.875,1.00363,-1.30874,-3.003
5335,0,0,-1,0,-2,0,0,-4,1.12061,0.212402,0.23877,6.75,-3.25,11.875,1.00363,-1.30874,-3.003
5337,1,-1,-2,0,-1,0,-1,-1,1.04248,0.239746,0.192383,-0.75,-0.1875,14.5,0.9906,-1.31247,-2.98988
5337,-1,-2,-1,0,-1,-3,-3,0,1.04248,0.239746,0.192383,-0.75,-0.1875,14.5,0.9906,-1.31247,-2.98988
5356,-3,-1,-1,-2,-1,-1,0,0,1.04248,0.239746,0.192383,-0.75,-0.1875,14.5,0.9906,-1.31247,-2.98988
5356,-2,-2,1,-1,1,-1,0,-1,1.04248,0.239746,0.192383,-0.75,-0.1875,14.5,0.9906,-1.31247,-2.98988
5358,-2,-2,-1,-1,0,-3,-1,-1,0.969238,0.232422,0.167969,-2.625,3.625,16.5625,0.972231,-1.31548,-2.97217
5358,-1,-2,-1,-1,-1,0,0,0,0.969238,0.232422,0.167969,-2.625,3.625,16.5625,0.972231,-1.31548,-2.97217
5379,0,-2,-1,-1,-1,-1,0,0,0.969238,0.232422,0.167969,-2.625,3.625,16.5625,0.972231,-1.31548,-2.97217
5379,0,-1,-1,-1,-2,0,1,-1,0.969238,0.232422,0.167969,-2.625,3.625,16.5625,0.972231,-1.31548,-2.97217
5380,-3,-1,-1,1,0,0,-1,-1,0.915527,0.1875,0.16748,3.25,7.5625,18.4375,0.948237,-1.31908,-2.94623
5380,-2,1,-1,-2,-2,-1,-1,0,0.915527,0.1875,0.16748,3.25,7.5625,18.4375,0.948237,-1.31908,-2.94623
5393,-1,0,0,0,-1,-2,0,-2,0.915527,0.1875,0.16748,3.25,7.5625,18.4375,0.948237,-1.31908,-2.94623
5393,-1,-1,-1,-2,-1,0,1,-1,0.915527,0.1875,0.16748,3.25,7.5625,18.4375,0.948237,-1.31908,-2.94623
5400,2,0,-1,0,-1,-1,0,-2,0.878906,0.14502,0.181152,17.5625,11.4375,20.4375,0.919846,-1.32254,-2.91081
5400,-1,-1,-1,0,-2,-2,-3,0,0.878906,0.14502,0.181152,17.5625,11.4375,20.4375,0.919846,-1.32254,-2.91081
5417,0,-1,0,-1,0,-2,-2,-1,0.878906,0.14502,0.181152,17.5625,11.4375,20.4375,0.919846,-1.32254,-2.91081
5417,-2,0,-1,-3,-1,-1,-1,0,0.878906,0.14502,0.181152,17.5625,11.4375,20.4375,0.919846,-1.32254,-2.91081
5418,-4,-2,-1,-2,-1,-1,-1,-2,0.832031,0.145508,0.171387,30.375,16.3125,22,0.889641,-1.32444,-2.86917
5418,2,1,-1,-1,1,0,0,-2,0.832031,0.145508,0.171387,30.375,16.3125,22,0.889641,-1.32444,-2.86917
5439,-1,-1,-2,-2,-1,-1,0,-2,0.832031,0.145508,0.171387,30.375,16.3125,22,0.889641,-1.32444,-2.86917
5439,2,-1,0,1,-2,0,1,-1,0.832031,0.145508,0.171387,30.375,16.3125,22,0.889641,-1.32444,-2.86917
5440,1,-2,-1,-2,-1,-2,-1,-2,0.746094,0.155273,0.164551,36.5,21.9375,23.25,0.855897,-1.32505,-2.82135
5440,-2,-2,-1,-1,-2,-2,-1,0,0.746094,0.155273,0.164551,36.5,21.9375,23.25,0.855897,-1.32505,-2.82135
5453,-1,-2,-1,0,-1,-2,-1,0,0.746094,0.155273,0.164551,36.5,21.9375,23.25,0.855897,-1.32505,-2.82135
5453,-2,0,-2,-1,-1,0,-1,-2,0.746094,0.155273,0.164551,36.5,21.9375,23.25,0.855897,-1.32505,-2.82135
5460,1,0,-2,0,-3,-2,0,0,0.693359,0.144531,0.184082,37,25.6875,21.8125,0.818242,-1.32324,-2.76945
5460,-1,0,-1,-2,0,-3,-1,-1,0.693359,0.144531,0.184082,37,25.6875,21.8125,0.818242,-1.32324,-2.76945
5476,-2,1,-2,0,-2,-1,-4,-1,0.693359,0.144531,0.184082,37,25.6875,21.8125,0.818242,-1.32324,-2.76945
5476,-2,0,-1,1,1,-2,-2,1,0.693359,0.144531,0.184082,37,25.6875,21.8125,0.818242,-1.32324,-2.76945
5478,0,-1,-1,0,0,-1,-2,-2,0.759766,0.0634766,0.237793,43.1875,24.375,17.4375,0.780408,-1.32144,-2.71555
5478,-1,-2,-1,0,1,-1,0,0,0.759766,0.0634766,0.237793,43.1875,24.375,17.4375,0.780408,-1.32144,-2.71555
5499,1,-2,-1,0,-4,2,-2,-1,0.759766,0.0634766,0.237793,43.1875,24.375,17.4375,0.780408,-1.32144,-2.71555
5499,0,-2,-2,-2,-1,-1,-2,0,0.759766,0.0634766,0.237793,43.1875,24.375,17.4375,0.780408,-1.32144,-2.71555
5500,-2,1,-2,-3,-2,-1,-1,0,0.919434,-0.00244141,0.263184,55.4375,20.8125,10,0.752444,-1.3197,-2.66786
5500,-1,-1,-2,0,-2,-1,0,-3,0.919434,-0.00244141,0.263184,55.4375,20.8125,10,0.752444,-1.3197,-2.66786
5514,-3,-4,0,-1,0,-2,0,-1,0.919434,-0.00244141,0.263184,55.4375,20.8125,10,0.752444,-1.3197,-2.66786
5514,0,-2,0,1,-1,1,-1,0,0.919434,-0.00244141,0.263184,55.4375,20.8125,10,0.752444,-1.3197,-2.66786
5521,1,-1,-1,-1,0,-1,0,-2,1.02344,0.00830078,0.250977,63.75,19.375,2.5625,0.738318,-1.31735,-2.6313
5521,-1,0,0,-1,-2,0,-1,-1,1.02344,0.00830078,0.250977,63.75,19.375,2.5625,0.738318,-1.31735,-2.6313
5536,-4,-1,-1,-1,0,-2,1,-1,1.02344,0.00830078,0.250977,63.75,19.375,2.5625,0.738318,-1.31735,-2.6313
5536,-2,1,0,0,0,0,-1,-1,1.02344,0.00830078,0.250977,63.75,19.375,2.5625,0.738318,-1.31735,-2.6313
5539,-2,-2,-1,-1,0,0,-1,0,1.03027,0.0751953,0.23291,60.0625,16.5625,-0.5625,0.734987,-1.31378,-2.607
5539,-2,1,-1,0,-2,-1,0,1,1.03027,0.0751953,0.23291,60.0625,16.5625,-0.5625,0.734987,-1.31378,-2.607
5559,0,-1,0,-1,0,-1,-1,-1,1.03027,0.0751953,0.23291,60.0625,16.5625,-0.5625,0.734987,-1.31378,-2.607
5559,0,-1,-1,-1,-1,-1,-2,-2,1.03027,0.0751953,0.23291,60.0625,16.5625,-0.5625,0.734987,-1.31378,-2.607
5567,-2,0,-1,-2,-2,0,-1,-1,1.03271,0.120117,0.22168,49.875,11.1875,-0.375,0.737385,-1.3117,-2.59172
5567,0,-1,-2,1,0,0,-2,-3,1.03271,0.120117,0.22168,49.875,11.1875,-0.375,0.737385,-1.3117,-2.59172
5573,-3,0,-2,0,-2,0,1,1,1.03271,0.120117,0.22168,49.875,11.1875,-0.375,0.737385,-1.3117,-2.59172
5573,-3,-1,-1,-1,1,-3,-1,-1,1.03271,0.120117,0.22168,49.875,11.1875,-0.375,0.737385,-1.3117,-2.59172
5580,0,-1,0,0,0,-4,1,1,1.03174,0.123535,0.191406,35.6875,6.5,-1.5625,0.741451,-1.31057,-2.58336
5580,-2,-1,0,0,0,0,-1,0,1.03174,0.123535,0.191406,35.6875,6.5,-1.5625,0.741451,-1.31057,-2.58336
5596,1,0,-2,-2,-2,1,0,1,1.03174,0.123535,0.191406,35.6875,6.5,-1.5625,0.741451,-1.31057,-2.58336
5596,-2,-2,-2,-3,-1,1,0,-2,1.03174,0.123535,0.191406,35.6875,6.5,-1.5625,0.741451,-1.31057,-2.58336
5598,-2,-2,-1,-1,-1,1,1,0,1.00684,0.123535,0.163574,19.6875,4.875,-1.625,0.743903,-1.31051,-2.57891
5598,0,-3,-1,-4,-1,-1,-2,1,1.00684,0.123535,0.163574,19.6875,4.875,-1.625,0.743903,-1.31051,-2.57891
5619,0,-2,0,-1,-1,0,0,-1,1.00684,0.123535,0.163574,19.6875,4.875,-1.625,0.743903,-1.31051,-2.57891
5619,-1,-2,-1,-1,-2,-2,-1,-1,1.00684,0.123535,0.163574,19.6875,4.875,-1.625,0.743903,-1.31051,-2.57891
5621,-4,-1,-2,0,-2,-2,-1,-2,0.962891,0.126465,0.12207,9.625,5.4375,-0.5625,0.744082,-1.31125,-2.57542
5621,-2,1,0,-2,-2,-1,-1,-1,0.962891,0.126465,0.12207,9.625,5.4375,-0.5625,0.744082,-1.31125,-2.57542
5633,-1,-1,-1,-1,-1,-2,-1,0,0.962891,0.126465,0.12207,9.625,5.4375,-0.5625,0.744082,-1.31125,-2.57542
5633,0,0,-2,0,0,-1,-1,2,0.962891,0.126465,0.12207,9.625,5.4375,-0.5625,0.744082,-1.31125,-2.57542
5642,4,-1,-1,0,1,-1,0,-2,0.90918,0.0996094,0.106934,7.4375,7.6875,-0.25,0.740311,-1.31162,-2.56883
5642,-9,-4,0,-2,-1,0,-1,-2,0.90918,0.0996094,0.106934,7.4375,7.6875,-0.25,0.740311,-1.31162,-2.56883
5658,1,-2,-1,-2,-2,0,0,-1,0.90918,0.0996094,0.106934,7.4375,7.6875,-0.25,0.740311,-1.31162,-2.56883
5658,1,-2,-1,-1,-1,-1,0,0,0.90918,0.0996094,0.106934,7.4375,7.6875,-0.25,0.740311,-1.31162,-2.56883
5659,3,1,-2,-2,-3,-1,-2,0,0.873047,0.0595703,0.09375,15.75,9.3125,0.3125,0.734998,-1.31171,-2.55782
5659,0,-1,-2,-2,-1,-1,-1,0,0.873047,0.0595703,0.09375,15.75,9.3125,0.3125,0.734998,-1.31171,-2.55782
5679,-2,-1,1,0,-1,-1,-2,-1,0.873047,0.0595703,0.09375,15.75,9.3125,0.3125,0.734998,-1.31171,-2.55782
5679,-2,0,-1,-1,0,-1,-1,-1,0.873047,0.0595703,0.09375,15.75,9.3125,0.3125,0.734998,-1.31171,-2.55782
5681,2,0,1,-2,0,-1,-1,0,0.868652,0.0551758,0.0864258,26.375,10.5,0.375,0.733316,-1.31242,-2.54672
5681,1,-1,-1,0,-1,0,-2,-2,0.868652,0.0551758,0.0864258,26.375,10.5,0.375,0.733316,-1.31242,-2.54672
5693,-5,-1,-2,-3,-2,-2,-2,-2,0.868652,0.0551758,0.0864258,26.375,10.5,0.375,0.733316,-1.31242,-2.54672
5693,-1,-1,-4,-2,-1,-3,0,-2,0.868652,0.0551758,0.0864258,26.375,10.5,0.375,0.733316,-1.31242,-2.54672
5702,-1,1,2,0,0,1,0,0,0.869141,0.0869141,0.0693359,32.9375,12.1875,0.9375,0.734473,-1.31213,-2.53588
5702,0,0,0,-1,-1,-1,1,0,0.869141,0.0869141,0.0693359,32.9375,12.1875,0.9375,0.734473,-1.31213,-2.53588
5716,-4,0,-1,1,0,1,0,-2,0.869141,0.0869141,0.0693359,32.9375,12.1875,0.9375,0.734473,-1.31213,-2.53588
5716,-2,-3,0,-1,-2,0,-3,-1,0.869141,0.0869141,0.0693359,32.9375,12.1875,0.9375,0.734473,-1.31213,-2.53588
5718,2,-3,1,-1,-3,-2,-1,1,0.869141,0.119141,0.0600586,26.0625,14.0625,-0.375,0.736331,-1.31084,-2.52804
5718,-4,-3,-3,-4,-2,-3,-2,-5,0.869141,0.119141,0.0600586,26.0625,14.0625,-0.375,0.736331,-1.31084,-2.52804
5739,-1,-1,0,-1,1,-2,-4,-1,0.869141,0.119141,0.0600586,26.0625,14.0625,-0.375,0.736331,-1.31084,-2.52804
5739,-3,1,-3,0,-1,1,3,0,0.869141,0.119141,0.0600586,26.0625,14.0625,-0.375,0.736331,-1.31084,-2.52804
5740,0,1,1,0,1,-2,-1,-1,0.872559,0.114746,0.0629883,13.8125,13.6875,-2.6875,0.735951,-1.30928,-2.52236
5740,3,7,1,1,-1,-1,-3,1,0.872559,0.114746,0.0629883,13.8125,13.6875,-2.6875,0.735951,-1.30928,-2.52236
5753,3,-1,-1,-1,-1,-1,3,-1,0.872559,0.114746,0.0629883,13.8125,13.6875,-2.6875,0.735951,-1.30928,-2.52236
5753,-3,-12,-3,-2,-1,0,-2,-5,0.872559,0.114746,0.0629883,13.8125,13.6875,-2.6875,0.735951,-1.30928,-2.52236
5761,5,-6,1,-1,-1,0,-1,3,0.89209,0.0874023,0.0566406,3,11.875,-5.75,0.734731,-1.30818,-2.5198
5761,1,4,-3,0,-2,0,-1,-2,0.89209,0.0874023,0.0566406,3,11.875,-5.75,0.734731,-1.30818,-2.5198
5776,-8,0,-2,0,2,-2,0,-2,0.89209,0.0874023,0.0566406,3,11.875,-5.75,0.734731,-1.30818,-2.5198
5776,0,4,2,2,0,-2,-15,-4,0.89209,0.0874023,0.0566406,3,11.875,-5.75,0.734731,-1.30818,-2.5198
5778,-9,-1,-4,-1,-2,-4,-1,-4,0.908203,0.0678711,0.0566406,-2.1875,9.4375,-10.0625,0.736035,-1.30701,-2.52187
5778,-3,-4,-1,-2,-1,-1,2,0,0.908203,0.0678711,0.0566406,-2.1875,9.4375,-10.0625,0.736035,-1.30701,-2.52187
5799,3,0,-1,0,-2,0,-2,1,0.908203,0.0678711,0.0566406,-2.1875,9.4375,-10.0625,0.736035,-1.30701,-2.52187
5799,-4,-3,-1,-3,-3,-3,2,1,0.908203,0.0678711,0.0566406,-2.1875,9.4375,-10.0625,0.736035,-1.30701,-2.52187
5800,-6,-1,-4,-1,-1,2,2,-2,0.914551,0.0786133,0.0498047,-8.0625,7.5625,-14.6875,0.742958,-1.30531,-2.53185
5800,1,-1,0,-2,-2,-1,0,0,0.914551,0.0786133,0.0498047,-8.0625,7.5625,-14.6875,0.742958,-1.30531,-2.53185
5812,-1,0,-3,-1,-1,-2,9,2,0.914551,0.0786133,0.0498047,-8.0625,7.5625,-14.6875,0.742958,-1.30531,-2.53185
5812,1,2,0,0,-2,0,-15,-4,0.914551,0.0786133,0.0498047,-8.0625,7.5625,-14.6875,0.742958,-1.30531,-2.53185
5821,-2,1,-1,-1,1,0,-2,-3,0.889648,0.0859375,0.0424805,-16.375,4.875,-17.8125,0.753078,-1.30389,-2.54794
5821,5,-3,1,1,0,-1,2,0,0.889648,0.0859375,0.0424805,-16.375,4.875,-17.8125,0.753078,-1.30389,-2.54794
5837,-5,3,-1,0,-1,0,-14,2,0.889648,0.0859375,0.0424805,-16.375,4.875,-17.8125,0.753078,-1.30389,-2.54794
5837,-3,-11,0,1,-1,0,11,0,0.889648,0.0859375,0.0424805,-16.375,4.875,-17.8125,0.753078,-1.30389,-2.54794
5838,7,7,-3,0,-2,-2,-1,0,0.828613,0.101562,0.0136719,-26.1875,4.1875,-19.3125,0.763552,-1.30176,-2.56785
5838,-3,-5,0,0,-1,0,-5,-2,0.828613,0.101562,0.0136719,-26.1875,4.1875,-19.3125,0.763552,-1.30176,-2.56785
5858,9,4,1,-1,1,4,1,0,0.828613,0.101562,0.0136719,-26.1875,4.1875,-19.3125,0.763552,-1.30176,-2.56785
5858,-1,4,-2,-2,-2,-3,-3,-2,0.828613,0.101562,0.0136719,-26.1875,4.1875,-19.3125,0.763552,-1.30176,-2.56785
5861,-5,-2,-1,-2,1,-1,-2,1,0.713379,0.127441,0.00341797,-35.0625,6,-20.4375,0.772501,-1.29781,-2.58922
5861,-1,-15,-5,-2,-1,1,10,-2,0.713379,0.127441,0.00341797,-35.0625,6,-20.4375,0.772501,-1.29781,-2.58922
5873,5,-1,1,1,-4,-1,1,1,0.713379,0.127441,0.00341797,-35.0625,6,-20.4375,0.772501,-1.29781,-2.58922
5873,4,-6,-1,0,-1,-1,2,2,0.713379,0.127441,0.00341797,-35.0625,6,-20.4375,0.772501,-1.29781,-2.58922
5882,-3,-6,2,1,-2,-2,-2,-1,0.661621,0.123047,0.0302734,-36.4375,5.125,-19.0625,0.778159,-1.29365,-2.60787
5882,-4,8,-1,-3,1,-2,-6,-2,0.661621,0.123047,0.0302734,-36.4375,5.125,-19.0625,0.778159,-1.29365,-2.60787
5896,-9,-5,-6,-3,-2,-3,2,3,0.661621,0.123047,0.0302734,-36.4375,5.125,-19.0625,0.778159,-1.29365,-2.60787
5896,3,6,-1,1,1,-1,1,-4,0.661621,0.123047,0.0302734,-36.4375,5.125,-19.0625,0.778159,-1.29365,-2.60787
5898,-9,-22,-7,-1,-1,1,2,-2,0.702148,0.144043,0.0219727,-35.75,2.9375,-15.625,0.783652,-1.29084,-2.62603
5898,3,0,0,-2,-1,1,-3,2,0.702148,0.144043,0.0219727,-35.75,2.9375,-15.625,0.783652,-1.29084,-2.62603
5927,-3,-18,0,-3,-1,-1,-2,-1,0.702148,0.144043,0.0219727,-35.75,2.9375,-15.625,0.783652,-1.29084,-2.62603
5927,1,25,6,-1,0,-1,2,0,0.702148,0.144043,0.0219727,-35.75,2.9375,-15.625,0.783652,-1.29084,-2.62603
5929,4,23,5,0,-1,1,-1,-1,0.647461,0.197266,0.0126953,-38.375,4.1875,-11.4375,0.787776,-1.28793,-2.64327
5929,-3,-20,-5,-1,-2,-2,-1,-2,0.647461,0.197266,0.0126953,-38.375,4.1875,-11.4375,0.787776,-1.28793,-2.64327
5949,5,3,3,-1,-2,1,-9,-2,0.601562,0.245117,0.0415039,-48.25,5.75,-10.6875,0.787653,-1.28343,-2.65959
5949,-7,-3,14,1,-1,1,3,0,0.601562,0.245117,0.0415039,-48.25,5.75,-10.6875,0.787653,-1.28343,-2.65959
5950,0,16,-17,-3,1,-2,-1,-1,0.601562,0.245117,0.0415039,-48.25,5.75,-10.6875,0.787653,-1.28343,-2.65959
5950,11,-4,11,-1,1,-1,-4,4,0.601562,0.245117,0.0415039,-48.25,5.75,-10.6875,0.787653,-1.28343,-2.65959
5956,1,-17,-30,0,-3,-3,0,-7,0.640137,0.184082,0.0629883,-53.5625,4.75,-9.375,0.780041,-1.28033,-2.67055
