proc_time_ms
62.39
56.33
33.36
25.08
73.57
32.64
26.58
34.65
35.12
63.21
27.93
50.27
25.65
34.96
30.61
27.59
28.92
38.97
33.71
25.06
37.66
33.16
26.1
25.58
28.32
47.65
28.92
53.27
26.15
26.32
16.06
25.17
29.26
34.18
22.71
16.19
25.16
35.23
21.54
18.67
21.07
44.26
30.2
26.67
21.58
23.57
29.64
24.64
24.05
23.62
28.09
25.1
22.07
20.62
26.1
17.23
50.65
19.67
19.86
22.4
30.91
36.37
17.08
20.56
18.83
52.93
23.07
24.08
22.09
18.58
21.2
20.05
18.06
21.57
19.2
22.22
20.12
22.71
14.19
16.78
19.73
21.89
20.55
20.07
18.57
16.06
14.02
15.03
20.55
30.08
14.55
18.1
19.56
16.55
23.07
20.6
21.07
16.06
20.05
16.05
38.18
17.55
21.08
23.07
18.55
34.7
20.76
18.61
14.54
15.08
13.56
20.09
27.11
23.59
23.56
21.09
22.59
19.09
23.09
35.6
40.16
45.54
25.74
27.09
19.3
33.84
20.92
24.91
26.2
28.06
31.55
30.06
36.83
21.02
28.26
27.26
20.17
26.28
21.02
31.16
23.2
25.83
21.72
22.61
35.83
31.07
20.41
24.62
43.34
23.24
21.82
22.08
17.54
42.97
26.09
25.14
22.41
44.56
26.64
25.58
21.18
48.5
25.25
23.14
21.04
15.03
25.09
26.27
24.06
17.53
19.53
28.18
36.27
17.04
17.63
17.72
17.13
29.16
32.65
19.17
20.71
15.12
20.17
46.09
17.58
20.96
19.04
25.23
33.18
24.11
20.26
24.19
32.64
26.62
23.07
24.26
24.4
52.16
26.08
18.67
17.4
49.8
23.69
18.37
25.72
47.92
19.97
21.2
19.2
20.36
39.07
27.46
24.22
18.05
20.04
34.85
24.12
22.82
31.87
30.33
18.64
19.11
21.34
17.02
21.08
23.29
21.43
21.4
23.76
30.66
27.59
20.09
26.55
18.04
29.12
32.47
19.9
20.27
15.67
39.72
26.8
19.61
23.2
18.14
24.47
28.51
23.8
20.48
24.63
30.82
26.35
34.58
18.09
26.57
26.8
28.59
23.63
20.92
21.97
51.7
20.72
19.1
14.17
18.99
27.8
27.37
17.82
21.82
17.47
37.95
19.84
19.27
17.5
12.76
16.65
25.19
24.75
21.08
14.03
25.07
48.39
20.14
15.56
14.53
13.84
17.25
38.4
17.42
16.22
21.2
16.08
17.71
23.18
27.07
31.08
22.62
24.55
23.08
24.35
23.54
26.7
20.25
25.86
27.46
25.06
24.8
21.11
26.33
33.13
27.75
18.13
22.91
25.07
24.09
26.98
16.24
21.61
29.24
37.61
24.65
17.42
19.57
18.58
26.63
21.1
21.12
20.78
23.71
28.21
22.7
21.26
17.06
21.58
38.44
26.18
22.38
23.47
23.83
20.57
32.01
20.08
24.26
17.53
29.7
35.96
24.59
20.85
14.53
53.17
27.72
23.38
54.34
19.24
21.76
38.94
29.72
30.46
25.36
19.29
22.72
40.71
22.1
41.29
61.75
17.94
20.95
23.58
24.02
25.46
40.69
22.65
20.63
65.61
26.23
26.32
23.83
33.7
23.28
24.85
23.06
23.5
24.97
25.09
24.1
20.31
17.19
27.9
19.57
31.1
20.76
20.69
41.6
17.33
33.96
23.23
47.85
22.14
21.76
16.79
20.27
22.96
22.24
33.43
28.26
19.16
20.56
21.88
23.54
20.32
23.55
20.04
22.04
30.11
16.59
21.78
19.11
25.28
22.05
39.96
23.19
22.22
26.56
29.58
26.94
26.6
41.79
25.05
25.58
18.61
15.16
31.12
20.06
24.16
21.38
17.41
38.92
21.41
23.72
21.83
17.11
17.61
25.25
37.69
29.6
20.12
27.07
26.01
19.96
24.72
25.57
27.27
28.21
21.09
24.47
18.04
14.62
33.51
43.81
21.35
16.3
48.21
18.12
18.51
16.41
16.71
30.21
23.36
21.38
21.81
22.86
21.65
21.82
40.3
23.05
17.17
25.57
24.07
34.45
22.08
20.1
28.23
25.8
34.9
25.92
40.46
25.37
23.96
25.52
43.88
28.21
24.17
25.7
23.38
27.79
30.16
24.7
25.62
46.6
24.44
25.86
25.37
27.43
34.47
23.61
27.77
22.09
48.18
26.97
20.83
42.05
26.57
22.06
22.58
26.17
37.41
20.08
19.06
22.17
24.19
22.17
20.93
20.63
17.68
20.62
23.35
23.94
19.82
19.38
16.29
20.79
19.63
29.38
18.22
27.68
21.59
26.11
31.11
26.11
17.11
22.57
27.15
20.08
30.66
21.06
21.09
26.6
33.73
24.18
19.1
24.64
22.08
29.68
18.13
22.05
17.56
40.13
22.07
21.08
21.05
14.56
22.55
21.58
21.08
24.18
20.73
20.03
38.65
22.4
14.55
13.56
15.57
16.04
29.7
27.41
15.7
16.14
15.73
15.67
17.18
40.14
23.82
15.06
20.83
28.15
30.22
17.56
22.06
15.03
16.56
21.15
23.09
26.89
21.17
15.56
14.56
15.05
22.68
18.63
27.04
21.22
13.62
24.07
28.58
15.54
19.08
18.06
16.05
23.07
31.12
15.19
17.83
17.62
17.55
14.09
13.53
35.86
18.38
22.11
14.63
25.75
19.22
21.15
17.68
12.55
14.72
20.41
19.13
24.59
17.12
19.14
21.89
19.63
20.59
25.29
19.67
23.24
16.99
40.35
16.66
16.28
14.53
13.75
12.99
23.71
18.65
19.22
23.65
15.15
16.56
23.59
20.07
18.05
16.17
16.29
10.88
14.62
14.6
30.49
20.07
15.62
21.01
13.36
15.5
22.87
23.24
20.59
21.03
28.94
49.59
14.5
16.08
13.56
14.35
22.0
28.61
14.7
15.56
12.54
15.76
23.36
18.01
29.41
15.43
18.29
16.8
20.1
19.07
23.65
18.61
17.23
46.66
19.07
36.72
16.75
13.02
15.53
13.54
21.17
22.68
17.79
20.4
18.37
18.24
36.25
18.05
14.81
14.61
12.12
16.36
22.92
15.04
20.07
19.19
17.71
15.23
38.63
16.82
21.78
13.75
15.19
13.55
12.62
43.78
20.3
15.94
9.02
23.66
52.77
18.18
19.84
25.55
49.23
17.64
17.21
24.5
14.28
42.93
19.08
16.54
18.59
13.32
13.79
37.53
16.09
13.12
14.38
11.21
14.07
12.04
22.35
18.07
18.57
29.56
15.82
16.33
9.53
22.23
20.56
17.63
18.66
20.39
13.65
13.2
30.72
16.25
12.57
13.84
10.1
13.62
12.25
22.35
18.15
21.68
14.68
12.75
11.6
12.64
12.54
22.85
18.56
40.18
12.62
11.54
11.81
14.04
23.47
27.54
15.68
24.78
12.74
13.32
20.06
21.66
19.54
19.38
24.32
11.86
14.88
40.3
14.97
12.78
12.63
13.08
16.11
27.6
18.16
18.35
12.64
28.76
11.57
32.62
20.55
20.09
12.39
11.61
12.08
11.15
25.59
17.58
34.78
12.04
10.1
14.61
10.88
18.65
19.1
26.59
14.27
13.67
12.24
12.31
19.23
26.82
21.9
21.18
14.3
11.17
13.52
14.75
28.19
22.11
21.85
11.27
12.56
13.51
22.55
16.04
32.16
14.51
12.56
12.28
11.02
25.1
19.58
22.07
20.53
12.83
13.07
11.11
10.12
21.18
22.64
20.01
11.02
15.08
21.08
20.07
22.43
14.04
11.53
13.01
12.09
13.6
22.69
29.07
14.58
12.19
13.96
11.74
18.32
22.69
14.93
13.63
12.34
11.73
8.64
12.69
12.59
27.26
17.52
21.63
12.3
11.04
11.13
10.57
14.33
32.42
17.91
19.81
12.72
14.28
11.02
20.12
24.66
15.7
15.4
10.78
10.03
9.64
14.04
22.42
21.28
19.32
14.57
13.54
13.04
11.07
32.79
30.9
13.59
11.97
11.84
10.11
14.22
26.08
20.58
18.57
14.55
12.03
14.08
11.73
11.54
19.84
21.11
21.82
19.2
11.13
14.15
10.02
26.63
19.8
30.9
24.8
11.0
13.62
17.58
19.07
19.7
16.57
13.35
12.06
10.54
12.56
25.81
23.42
17.68
15.09
15.18
16.09
25.73
19.15
22.58
17.56
18.12
13.03
9.12
31.0
15.53
18.09
25.25
12.66
11.31
9.27
18.41
21.2
24.69
20.55
11.53
12.65
12.53
19.55
41.0
15.47
15.02
11.99
14.63
17.21
35.63
15.06
19.98
12.58
12.56
11.05
20.87
21.63
19.38
18.57
19.24
17.27
21.31
21.92
18.21
20.86
19.42
14.34
11.75
19.81
33.47
15.83
18.29
15.24
14.63
20.84
22.26
19.53
18.92
17.79
14.56
12.14
12.52
31.02
18.86
12.77
9.49
11.27
10.67
11.67
28.26
16.54
26.76
15.43
10.23
12.13
14.46
19.71
17.47
20.95
22.08
12.75
11.79
10.1
9.69
21.96
38.66
17.07
14.04
17.66
11.03
17.98
21.66
20.19
31.66
11.05
11.17
36.63
14.7
16.69
21.25
14.17
12.08
11.03
33.52
16.91
31.36
14.57
14.52
12.31
21.56
21.58
29.57
13.04
13.56
12.05
10.65
10.53
17.62
20.17
17.23
16.05
16.98
18.7
12.67
23.19
27.9
12.64
15.25
13.02
11.55
10.58
13.62
32.96
15.03
17.41
11.72
10.24
9.64
14.15
16.65
22.54
22.71
12.55
14.04
13.87
9.86
13.46
35.56
16.94
20.7
13.05
14.1
11.11
13.69
32.62
17.56
16.44
10.13
13.07
10.59
17.05
38.64
18.04
24.6
22.62
10.74
12.51
18.7
34.66
17.17
13.54
10.52
13.03
11.16
36.39
18.3
23.2
16.49
14.05
14.87
22.1
19.09
17.96
27.15
13.67
15.25
48.59
16.68
12.04
10.53
14.11
13.63
10.64
13.55
22.09
21.05
23.06
32.67
11.03
22.79
20.81
41.78
14.55
13.03
11.03
23.09
20.98
19.64
19.71
19.39
17.34
13.76
12.17
20.88
18.57
21.13
20.82
23.5
22.03
33.34
16.06
12.55
11.02
13.53
11.03
15.18
42.21
16.06
13.27
31.91
51.1
32.19
28.91
27.94
28.03
30.12
30.91
29.64
24.71
31.0
27.27
27.64
23.21
24.25
29.98
22.23
23.86
21.63
21.09
34.29
24.63
27.15
25.42
46.15
22.36
21.29
19.72
19.16
25.12
33.7
20.24
16.36
19.95
27.73
21.06
23.57
23.59
19.06
29.87
21.14
24.14
20.23
20.27
18.55
37.74
19.64
18.73
16.15
16.8
18.19
23.4
33.8
18.64
19.36
21.48
24.89
21.18
22.08
16.6
17.24
11.18
12.56
12.02
20.22
34.14
12.04
16.06
15.59
14.88
13.31
35.89
16.71
12.86
12.33
17.56
14.15
13.54
21.04
23.45
20.02
13.02
12.03
15.54
12.54
19.37
19.05
23.22
17.63
15.69
14.81
18.02
21.2
18.75
19.91
19.85
13.17
16.14
16.05
41.98
19.07
16.62
13.54
15.65
14.29
20.3
33.38
17.54
14.54
15.22
15.71
17.26
19.13
19.23
21.63
20.63
14.13
14.29
20.59
22.07
20.91
16.55
16.65
15.06
16.42
22.08
20.07
27.11
20.16
16.84
16.33
22.08
20.05
20.68
15.21
16.21
15.17
31.66
22.05
22.67
16.7
16.63
15.56
17.37
23.02
18.06
20.15
18.48
14.41
15.24
16.33
37.19
18.8
17.19
12.95
15.31
29.49
19.75
22.47
17.65
16.35
16.66
15.78
24.27
20.64
21.48
14.09
15.0
16.0
26.54
20.89
20.63
15.88
16.31
14.57
16.73
22.72
21.46
19.29
16.76
14.22
15.67
15.12
38.34
20.97
14.55
14.05
14.58
18.56
14.98
33.46
19.48
17.17
15.62
13.04
34.18
20.63
18.47
15.11
13.83
18.25
17.8
23.23
19.81
19.08
14.26
12.02
16.06
16.35
22.33
31.42
18.25
18.71
15.37
18.55
18.59
22.31
18.94
17.6
15.76
14.71
27.16
20.19
22.52
13.03
16.03
16.56
17.4
23.07
20.15
18.47
16.03
16.57
12.55
17.49
17.19
20.21
21.52
14.26
17.82
15.55
18.26
18.93
21.31
19.25
17.53
16.43
13.22
20.53
22.02
22.65
19.1
17.55
13.14
18.88
18.71
27.23
19.24
18.54
16.9
16.05
22.05
32.19
16.3
14.41
16.16
13.61
16.44
22.13
21.79
18.8
16.54
15.06
16.56
13.69
26.55
21.57
18.02
16.69
20.8
16.42
23.82
21.36
21.53
17.3
13.51
16.94
15.7
20.73
22.25
21.1
14.32
15.6
15.84
31.77
19.9
18.77
13.61
18.73
16.7
25.65
38.22
17.86
14.19
16.82
16.79
25.15
23.27
16.78
13.07
15.62
16.22
32.9
20.55
20.85
24.63
15.56
12.55
32.9
18.43
18.41
34.17
14.69
16.46
24.76
20.11
16.6
22.59
20.47
15.51
23.21
22.63
17.22
19.73
21.53
26.29
45.73
17.14
19.29
33.21
39.43
23.71
20.96
66.98
35.2
48.09
21.76
21.38
19.82
22.09
17.57
45.9
18.18
33.22
17.15
14.53
19.18
20.1
19.6
21.61
20.67
30.88
53.21
17.65
14.23
15.57
13.52
39.01
19.41
17.15
29.12
14.71
15.84
20.29
29.19
22.07
18.09
14.05
13.18
21.02
20.09
18.68
33.48
16.27
16.78
32.12
17.04
17.62
16.59
17.0
16.27
23.6
36.4
17.19
19.3
12.11
12.18
24.56
29.72
18.98
32.8
12.11
12.07
21.75
20.73
21.79
24.14
17.77
17.08
48.74
18.26
30.6
12.56
14.79
18.94
35.59
19.25
14.56
13.06
15.58
36.8
16.58
18.09
12.12
14.0
14.68
17.57
26.5
21.43
19.81
25.06
14.43
14.6
33.31
17.57
14.05
13.66
14.95
11.13
16.22
18.25
26.4
15.8
13.36
13.53
13.14
12.5
12.6
19.81
19.09
20.69
22.89
16.01
15.37
19.41
15.55
24.58
17.57
14.72
13.35
11.54
13.03
20.57
31.61
16.54
13.39
14.06
14.34
13.7
21.65
20.52
20.14
21.66
19.91
14.13
27.7
16.55
22.71
17.89
17.7
13.64
25.47
20.7
17.72
13.09
13.26
14.58
12.13
34.64
20.86
15.64
15.07
14.02
12.13
12.52
17.76
31.92
18.78
18.61
14.03
12.88
15.17
38.63
16.56
16.06
12.05
15.08
11.53
44.74
19.57
13.6
12.05
13.68
14.16
12.5
33.19
19.53
15.41
15.3
12.6
16.13
12.7
21.35
18.9
18.36
29.6
13.25
12.66
12.13
14.85
24.49
17.93
17.55
15.57
15.59
16.69
20.01
16.55
20.04
16.09
12.37
16.58
12.4
13.89
18.63
22.08
19.08
15.05
12.54
15.05
11.64
19.3
20.65
22.51
15.79
12.13
14.12
15.6
49.26
24.59
20.3
20.26
26.55
34.73
21.57
16.72
17.42
25.25
20.06
16.59
22.52
16.63
30.15
21.82
21.44
17.1
12.67
12.15
16.64
25.42
20.66
17.12
12.85
16.57
14.16
14.91
19.27
18.46
20.74
18.75
11.53
18.36
14.13
20.14
21.27
18.65
14.84
17.46
12.55
11.06
12.57
23.71
19.11
19.07
14.01
11.23
15.54
14.21
18.91
18.32
21.92
14.55
11.04
14.03
12.82
42.61
18.07
15.05
12.68
14.5
12.64
11.02
14.04
21.57
19.57
20.07
13.55
11.04
13.27
14.42
20.08
24.09
16.86
16.63
11.2
13.65
11.67
35.77
18.06
21.1
22.11
15.62
14.3
39.62
18.58
16.7
12.61
14.3
11.6
14.11
18.13
24.41
17.86
14.75
13.56
14.57
13.56
15.3
17.3
20.52
22.34
18.2
16.56
14.56
35.27
18.66
21.59
13.65
14.2
14.45
12.18
28.73
17.05
22.64
15.94
13.57
12.04
37.76
14.55
20.92
17.56
14.21
10.21
15.2
20.85
20.03
19.97
22.59
20.36
12.2
25.22
22.7
15.84
22.6
15.66
12.22
16.24
31.65
34.9
15.02
13.59
11.51
15.12
20.02
20.56
20.23
26.63
23.52
15.81
14.53
21.63
20.91
18.74
18.96
17.57
15.24
39.39
34.44
17.33
14.02
16.88
28.6
18.56
17.56
22.08
16.74
17.55
15.31
19.79
24.79
17.54
19.75
22.18
15.13
20.67
20.06
37.64
14.06
13.64
14.13
19.62
20.71
18.57
22.06
19.12
14.04
18.56
27.71
21.38
23.05
20.89
13.71
15.94
21.36
20.61
17.6
18.57
14.75
14.54
13.02
21.86
19.17
20.86
21.27
14.9
16.57
20.1
21.93
18.96
23.62
15.24
12.02
16.05
20.55
18.78
19.1
19.54
18.04
13.06
43.34
17.04
16.65
13.1
14.62
13.81
28.74
16.09
34.26
13.02
13.57
13.69
16.75
21.49
19.45
21.27
18.16
23.86
13.09
23.03
18.19
25.33
25.67
13.33
19.49
22.73
20.05
15.64
16.78
13.28
15.54
14.39
19.53
18.77
20.66
17.23
14.28
11.96
16.65
28.84
20.1
17.32
16.7
13.47
15.04
14.06
19.05
20.45
19.29
18.65
18.03
16.98
25.39
19.61
17.73
14.39
14.64
11.55
14.71
14.64
19.8
21.06
21.58
16.48
11.66
14.15
12.53
20.3
20.52
23.7
16.74
12.0
15.77
14.2
34.86
19.51
12.53
15.71
13.18
16.13
13.64
19.34
19.72
22.08
15.87
15.59
13.18
13.16
22.54
23.28
20.71
14.2
13.34
13.8
13.97
20.77
21.16
24.9
13.21
12.52
14.09
12.05
14.13
20.56
20.09
24.45
21.09
16.58
12.83
21.56
20.18
31.69
15.55
12.53
13.39
41.68
20.13
13.03
13.39
13.64
13.43
15.34
25.23
17.82
20.96
16.19
11.8
15.21
14.64
24.32
20.08
19.69
20.36
18.85
16.01
18.16
19.25
20.5
20.7
25.44
14.57
26.71
17.86
19.31
20.26
28.71
14.45
23.81
20.23
17.52
19.52
19.15
16.56
19.08
18.5
26.85
14.56
14.03
14.14
13.11
23.72
17.66
25.65
17.44
16.68
12.12
12.12
17.05
22.46
19.62
20.77
16.82
13.55
13.55
27.48
20.07
16.16
14.93
14.05
14.62
13.55
29.0
32.0
18.47
16.0
13.24
11.1
17.75
21.18
28.74
17.15
14.05
15.06
12.03
13.06
21.09
18.66
19.99
17.47
21.09
12.57
22.65
26.71
19.27
15.74
12.54
13.86
13.03
40.14
18.79
27.92
17.41
12.03
21.72
19.03
20.99
22.61
29.11
54.85
18.3
15.41
16.35
14.72
20.24
38.83
18.6
44.72
20.54
21.65
32.36
15.24
15.54
14.54
21.07
23.34
20.9
19.18
27.08
15.53
26.08
21.07
30.69
21.9
13.2
14.43
21.69
34.66
18.61
12.15
11.8
15.63
12.43
22.13
22.59
20.67
20.99
20.49
14.57
20.11
19.18
20.05
22.91
17.83
44.44
20.08
19.07
18.84
26.7
23.99
19.95
19.49
20.96
19.47
23.82
39.48
18.7
18.86
22.35
20.88
13.67
19.55
22.84
18.05
20.07
19.51
13.71
25.32
24.65
22.71
22.06
25.62
15.51
21.57
24.07
18.56
16.02
17.56
12.14
51.48
19.76
18.01
15.14
14.82
15.89
26.7
32.23
18.06
15.73
18.21
18.35
37.04
22.87
21.12
19.83
16.72
18.57
34.84
22.93
17.44
13.7
16.54
24.14
23.23
18.54
19.22
17.7
15.38
20.07
19.27
21.17
15.93
14.8
14.07
12.07
26.17
21.14
20.05
20.05
15.28
17.53
15.2
22.32
19.78
19.63
30.67
15.25
13.68
23.06
19.73
33.52
16.3
14.35
18.66
20.81
20.62
21.25
20.81
23.09
16.04
21.08
26.11
23.73
18.4
12.62
20.07
18.83
21.08
21.8
17.11
15.55
13.52
13.56
23.93
22.09
17.56
16.03
14.53
12.69
14.11
21.27
20.98
19.76
18.27
17.6
15.65
27.48
33.47
17.14
15.03
16.57
13.61
17.12
23.34
19.38
21.11
15.66
15.21
14.2
45.68
18.61
16.27
14.06
14.55
13.57
45.64
17.22
17.14
13.54
17.03
13.04
25.8
19.08
19.86
15.22
14.24
14.62
14.53
14.51
32.7
20.04
18.81
51.88
33.72
31.26
43.98
43.07
19.07
26.11
19.03
17.48
30.75
24.75
20.41
20.39
18.79
16.22
22.09
17.88
26.36
22.58
17.57
15.66
21.68
21.45
16.58
20.19
14.05
16.02
15.42
22.9
19.47
22.58
18.05
21.56
16.26
21.46
41.71
16.65
13.84
16.02
24.82
23.65
20.64
18.05
14.05
17.07
13.06
17.71
20.6
19.06
20.05
17.08
16.15
16.7
19.73
21.4
19.36
20.06
19.82
13.8
28.82
19.45
24.85
15.62
15.33
15.71
15.55
24.01
20.81
23.96
30.97
16.04
40.65
18.07
19.08
14.55
14.16
16.54
25.48
20.35
20.07
22.09
14.68
13.13
42.22
20.55
20.05
17.05
17.83
18.3
25.04
18.72
20.06
20.62
17.42
14.14
15.62
22.17
20.58
22.36
23.19
14.73
32.96
19.12
27.34
14.06
16.41
13.54
39.5
17.58
20.55
22.18
14.59
12.04
17.42
23.06
18.37
34.33
33.61
44.54
19.37
17.25
15.59
14.06
16.78
13.53
20.28
20.04
22.73
23.29
18.42
18.24
36.69
19.97
17.54
15.15
13.0
18.0
21.03
21.07
19.69
17.78
13.59
15.35
13.52
21.62
20.24
20.17
20.57
15.93
11.03
15.32
25.25
22.13
20.21
16.23
13.01
20.06
22.46
19.07
20.95
15.04
15.51
14.77
14.56
19.55
22.28
20.27
16.37
16.65
13.02
14.67
14.13
21.23
21.26
23.94
17.33
14.19
13.1
21.85
20.16
19.66
15.56
15.73
13.26
15.89
19.47
22.05
22.26
16.59
13.7
12.57
13.5
19.85
34.34
17.05
15.19
13.68
10.69
15.78
20.63
28.63
17.82
13.87
14.28
17.72
25.25
20.55
18.76
15.66
12.62
14.68
12.91
13.09
43.38
20.19
19.17
15.6
14.34
21.57
17.56
26.02
14.89
15.41
14.4
15.16
22.55
20.78
18.11
17.02
15.59
15.06
15.53
22.38
22.91
17.88
13.11
17.6
14.12
14.65
22.48
18.78
20.07
19.69
20.19
16.28
22.87
22.06
18.66
14.61
14.44
13.17
17.9
20.35
21.99
21.36
16.68
15.82
13.9
32.25
26.08
18.67
15.24
17.24
12.12
16.29
21.13
19.54
21.92
14.61
17.46
14.93
15.74
19.8
42.78
17.72
13.92
15.34
12.12
23.59
24.09
22.16
22.03
16.28
14.65
22.59
32.73
19.46
14.66
12.32
14.58
16.11
20.18
20.64
20.31
22.35
15.22
16.47
33.41
18.16
20.97
18.31
13.74
15.56
51.24
16.11
11.95
12.2
16.8
44.36
17.1
17.07
15.63
14.5
15.5
16.77
20.07
20.34
20.64
18.09
20.44
12.09
16.13
24.13
21.27
18.12
22.27
19.8
32.68
21.58
17.42
12.7
15.11
14.54
13.14
32.56
20.07
19.08
25.84
15.61
14.05
15.21
30.86
15.83
20.21
24.24
14.62
22.23
18.29
18.91
19.57
17.18
15.71
16.22
19.19
20.27
17.48
32.46
15.63
12.85
23.69
35.59
16.79
12.03
14.29
14.62
34.75
21.04
15.41
14.75
13.94
14.52
15.1
20.06
19.37
21.48
15.02
16.56
16.74
14.25
20.35
19.2
25.07
14.05
14.57
12.03
16.74
19.73
18.33
24.23
16.28
16.09
13.06
15.37
35.57
18.48
16.67
19.77
14.15
13.25
21.81
19.78
21.51
18.76
16.04
16.56
14.04
21.69
18.98
20.08
22.61
20.16
15.01
19.57
21.58
21.66
18.74
13.34
12.1
14.61
22.66
18.43
20.05
20.04
19.25
14.03
15.11
21.35
35.31
17.67
13.15
13.05
15.89
24.47
19.09
21.61
16.62
14.04
14.68
14.55
22.7
19.06
24.67
15.54
13.37
16.08
13.53
44.51
20.08
15.05
16.54
14.52
38.02
20.16
16.45
16.55
14.82
11.57
16.08
21.35
20.73
22.45
16.2
15.44
15.17
16.21
19.37
24.45
17.75
16.14
14.3
14.52
15.63
37.85
31.2
16.81
15.54
11.54
25.81
19.66
21.08
16.26
17.1
16.26
14.62
21.14
19.21
18.63
21.36
28.15
14.87
24.08
16.72
20.17
19.51
21.52
13.94
16.75
21.58
21.01
19.92
21.65
19.59
15.65
20.08
23.08
18.55
22.69
17.55
45.27
24.31
18.99
15.88
14.04
12.04
41.28
16.05
14.81
12.03
10.74
12.93
10.25
14.86
21.58
20.02
21.07
15.25
12.24
12.02
14.56
20.52
17.1
32.72
14.75
13.12
15.14
13.27
24.86
22.61
19.83
14.37
12.91
10.71
12.8
23.64
22.61
17.59
12.94
12.56
11.04
10.04
14.14
13.04
20.38
22.15
22.6
16.08
10.83
15.35
33.91
17.58
13.56
10.03
14.03
12.91
9.54
14.04
22.36
20.06
19.17
12.13
13.82
12.55
10.64
18.36
32.72
15.7
14.4
11.82
11.67
10.68
22.76
17.1
20.26
11.31
9.65
8.61
10.11
10.12
9.35
12.03
11.16
18.17
17.04
20.25
10.69
10.83
11.75
10.1
10.03
14.83
21.1
21.17
12.8
10.31
10.02
8.76
8.22
12.54
26.83
24.81
14.87
8.62
13.35
11.65
8.57
13.68
39.05
15.57
9.89
12.35
11.02
10.23
7.52
12.09
40.19
13.09
12.85
10.29
9.75
10.68
7.51
7.52
11.88
16.87
23.09
16.02
10.01
8.51
8.24
10.44
10.35
8.05
12.6
18.58
17.89
31.75
10.03
13.56
13.28
11.37
19.87
24.81
48.82
12.59
13.55
14.64
12.56
23.68
16.62
23.8
16.75
14.06
13.67
32.31
14.77
13.79
13.53
13.21
12.8
11.74
14.05
22.09
19.81
17.83
12.88
11.46
14.09
12.07
21.87
21.17
20.17
13.54
12.58
15.07
11.56
12.7
39.23
14.59
13.57
11.06
10.5
12.56
12.35
13.53
37.16
14.6
11.07
11.55
11.55
10.04
12.02
21.8
28.37
15.15
21.03
16.83
12.23
17.73
19.21
19.09
11.11
8.91
8.17
9.16
8.52
7.03
9.02
37.22
13.65
18.31
10.75
9.02
7.01
7.68
6.67
7.17
8.05
12.03
18.73
22.48
24.36
10.53
8.51
10.76
8.59
30.66
17.55
16.63
10.05
20.07
8.54
10.93
11.52
10.59
46.91
12.69
21.3
20.8
14.83
23.4
19.59
22.11
20.8
12.05
14.2
16.55
35.15
17.56
21.58
23.89
12.17
14.67
33.26
30.62
20.87
15.67
14.03
13.38
16.03
21.65
23.22
19.29
20.38
18.06
14.53
29.61
18.59
20.73
17.31
13.21
14.58
12.17
26.76
26.13
16.7
12.73
14.24
12.86
15.13
21.83
21.97
25.9
17.56
14.06
12.57
23.84
21.88
19.8
20.71
20.65
14.57
14.57
21.84
22.87
19.67
17.75
30.25
36.68
21.09
21.25
27.61
14.06
11.57
16.21
21.85
22.61
19.26
21.34
18.21
15.17
15.61
21.69
19.72
21.19
19.73
14.78
16.62
15.8
21.26
21.73
18.81
24.36
15.72
13.05
39.53
17.07
23.11
11.55
11.05
16.55
13.05
21.86
22.62
20.61
22.86
14.57
14.57
27.29
25.7
17.91
27.93
13.22
12.81
23.41
19.21
20.99
14.82
15.9
14.77
15.17
14.71
12.61
18.81
23.78
21.11
13.55
14.03
42.68
18.88
12.03
14.12
11.52
14.07
15.86
21.04
18.6
19.06
49.26
39.36
21.68
34.77
21.28
20.84
30.91
38.79
15.25
19.19
19.08
21.6
21.08
22.41
19.89
14.54
13.51
23.97
34.34
23.77
14.96
14.04
14.55
31.66
18.59
17.57
17.25
12.58
14.03
14.08
19.1
19.11
31.82
15.09
17.05
12.11
28.6
18.69
20.56
20.57
14.06
14.08
14.21
26.65
19.83
26.15
21.62
11.51
22.6
43.83
17.45
12.29
13.18
12.14
19.94
19.26
19.33
35.98
13.16
15.1
25.39
19.58
19.64
28.84
12.2
12.05
29.32
20.41
18.98
29.54
14.04
13.57
30.35
27.92
22.55
12.02
11.21
15.26
13.62
23.05
19.04
18.1
19.09
16.07
11.06
16.05
22.64
25.49
16.43
15.21
14.11
14.72
11.65
21.89
17.79
19.3
12.83
16.37
13.6
11.75
13.6
20.69
24.09
16.8
13.52
13.62
13.55
37.78
20.05
17.08
20.2
14.27
14.64
15.06
22.69
27.58
24.14
15.12
16.74
14.62
16.1
21.11
23.08
19.1
16.57
12.67
12.82
25.12
18.68
20.55
14.52
13.58
15.54
12.02
36.11
17.84
16.76
14.24
13.2
12.66
12.56
15.8
19.8
20.2
18.78
15.27
13.65
11.87
15.67
22.69
23.74
19.22
20.15
15.13
15.02
16.55
11.23
40.43
18.08
22.41
15.32
13.1
35.79
21.34
15.31
16.53
14.33
15.56
18.68
19.34
21.28
17.77
13.25
15.93
15.24
21.57
21.6
20.29
23.69
15.03
12.03
14.17
11.53
14.09
15.03
38.62
19.07
14.26
12.7
19.15
21.55
17.6
15.21
12.63
12.68
12.65
21.68
19.78
19.7
14.66
15.46
13.64
13.2
11.63
20.42
20.9
19.85
15.63
15.67
13.56
16.6
21.08
17.07
24.3
19.63
15.2
15.42
30.44
22.86
16.32
11.04
13.59
14.78
14.1
13.65
20.76
20.9
17.63
15.66
13.66
15.8
14.53
31.35
19.63
16.7
18.33
10.68
13.56
18.7
21.45
38.12
13.06
13.58
15.66
15.19
19.79
18.06
22.37
16.35
17.19
15.29
19.32
20.42
22.05
13.74
12.55
12.62
11.61
34.73
19.08
16.57
12.65
10.06
15.66
17.14
15.54
17.59
19.92
19.91
22.63
14.58
13.63
16.15
16.03
13.03
13.54
23.12
30.28
16.03
17.73
15.56
14.36
18.8
19.42
21.58
17.93
16.28
14.36
14.04
20.13
19.5
25.12
14.89
10.29
14.72
14.22
16.91
19.36
20.71
18.53
16.09
13.55
11.03
39.71
18.31
14.67
15.24
15.58
11.59
12.52
20.18
18.04
19.77
22.26
13.18
15.84
14.16
12.53
21.83
20.96
17.93
16.63
15.0
13.84
18.56
25.64
19.63
17.85
12.53
12.53
15.18
41.01
18.16
20.82
12.48
11.69
14.17
11.11
24.58
17.43
21.4
15.62
12.67
17.09
15.13
20.08
18.39
21.88
21.46
18.76
12.03
33.74
19.69
21.26
16.03
12.03
15.06
14.53
21.55
22.08
33.22
13.78
15.69
14.55
13.03
36.5
20.55
16.05
16.03
16.1
21.6
21.1
21.06
13.63
12.52
14.26
12.53
14.27
23.08
23.56
19.7
18.06
14.11
14.06
24.22
19.57
17.37
17.17
16.39
16.59
12.55
42.66
17.04
28.5
55.16
17.57
20.17
17.68
19.79
50.63
18.63
41.49
16.5
17.56
35.23
18.66
16.16
21.2
58.1
20.16
16.72
23.1
16.73
48.44
31.57
35.07
24.71
30.35
12.07
11.58
20.25
17.88
30.97
12.0
13.1
13.71
11.7
19.71
22.66
19.16
16.75
16.72
15.11
11.04
10.08
23.7
25.76
16.45
11.58
12.08
13.69
12.21
15.73
22.05
19.64
19.25
14.07
12.08
13.57
23.61
18.65
22.53
25.7
33.32
15.59
23.84
16.05
31.85
16.04
12.44
19.16
31.27
14.81
19.02
30.28
11.48
9.51
9.02
33.18
12.96
30.02
10.04
10.73
8.1
8.14
19.56
19.76
19.31
10.15
8.02
9.15
8.08
8.54
8.88
13.66
26.75
15.65
20.1
10.04
11.05
11.57
8.79
9.26
41.15
13.06
10.05
9.04
8.04
10.21
8.61
9.17
8.72
23.17
31.81
11.19
8.17
11.74
10.1
8.15
9.1
12.17
23.02
36.65
13.59
8.77
23.82
11.05
11.05
35.11
12.54
10.42
8.74
11.03
9.14
8.06
7.64
9.02
18.6
19.09
24.07
14.29
9.33
8.77
8.51
10.04
13.04
36.76
12.09
10.57
10.86
9.53
9.51
9.67
8.64
8.52
33.25
15.38
10.08
11.05
8.9
6.6
10.69
12.25
10.13
12.74
9.32
17.57
21.77
22.5
30.03
11.68
29.55
15.14
21.73
17.73
12.03
10.07
7.59
8.52
19.71
19.41
20.09
12.64
8.09
14.74
11.67
9.1
24.73
20.21
20.26
10.11
7.52
11.06
9.53
9.03
8.53
8.28
12.22
18.59
18.09
21.57
21.09
10.03
9.03
33.76
16.19
19.53
23.56
9.03
9.64
11.08
8.52
19.85
18.07
21.08
20.06
18.06
10.04
10.53
19.1
20.07
16.24
27.45
10.11
11.05
9.03
24.13
22.57
15.57
11.32
10.63
9.11
10.22
7.62
9.07
11.05
10.69
10.1
9.61
26.67
26.57
13.04
9.03
12.04
18.37
30.1
11.68
8.52
8.23
12.52
10.55
8.61
10.19
31.92
50.56
15.07
21.45
17.79
19.76
25.23
20.12
17.17
12.86
12.61
18.58
22.58
20.67
23.18
17.62
13.55
20.45
15.56
18.08
11.55
8.54
9.04
9.12
8.11
12.08
29.01
13.55
10.11
10.65
9.09
7.39
11.63
8.52
7.03
10.7
34.92
24.13
19.92
13.16
12.05
10.53
9.68
30.48
14.2
12.21
12.06
8.08
9.07
9.6
7.09
10.55
10.04
28.17
17.59
10.53
11.37
10.03
8.53
9.53
7.52
10.05
30.6
12.54
18.58
10.53
15.75
8.69
8.66
12.23
22.6
20.79
29.13
10.63
9.16
9.39
12.1
31.21
12.06
13.03
10.02
8.11
11.03
8.54
6.52
10.05
9.54
31.32
22.06
20.16
13.3
10.64
8.69
8.52
24.77
14.6
20.28
10.59
8.61
9.65
12.0
9.09
7.51
10.78
31.75
25.43
18.66
7.0
13.43
10.98
8.52
8.58
17.97
18.7
29.14
21.53
8.89
11.54
10.02
9.03
17.54
20.11
30.19
10.5
9.54
11.52
8.03
22.1
29.85
13.04
9.03
10.01
10.95
9.73
8.62
11.01
35.38
13.68
12.11
9.01
11.07
9.59
8.16
10.97
10.06
21.08
22.6
19.08
10.01
9.04
10.05
10.03
7.58
12.1
20.28
19.15
19.12
21.25
12.85
23.44
18.35
17.81
9.52
7.51
10.98
9.71
8.62
8.14
8.13
32.8
15.64
12.95
8.94
8.58
11.95
9.13
9.0
11.62
24.16
24.31
13.11
10.73
11.52
10.03
11.38
7.49
7.16
14.44
36.18
12.99
18.78
9.26
9.28
8.04
10.24
12.21
30.32
17.66
19.43
21.45
24.76
32.38
18.53
22.41
19.15
14.03
17.57
18.57
28.02
20.38
16.26
20.05
14.67
15.03
22.44
19.75
21.3
21.62
21.33
28.04
17.7
21.62
22.1
21.11
20.5
40.18
35.15
21.14
19.7
27.28
29.85
19.97
18.62
20.06
24.07
38.98
19.32
25.81
22.22
18.06
42.91
18.2
19.92
20.81
15.26
15.08
12.53
23.72
22.24
16.6
14.64
13.56
10.03
13.55
14.57
19.34
21.57
22.16
12.54
12.74
14.26
14.11
24.42
21.21
16.99
22.23
18.17
15.73
22.43
20.57
21.09
20.76
15.1
10.66
13.54
11.93
18.82
17.7
31.59
14.55
65.95
30.67
26.97
25.7
20.54
22.07
25.56
24.48
24.77
20.01
23.96
21.8
26.4
37.94
21.21
18.26
20.15
24.65
23.23
22.1
32.84
29.11
21.59
23.58
20.41
18.1
37.22
23.07
19.06
18.17
20.55
22.69
22.97
18.78
20.9
21.26
18.85
18.92
23.91
20.72
18.57
19.05
19.1
17.07
38.02
21.71
18.77
17.63
18.22
30.51
20.19
18.59
18.58
15.3
12.51
10.06
19.06
25.56
14.59
10.05
11.06
12.58
10.05
12.05
10.05
24.31
16.2
21.8
15.7
14.69
11.56
10.11
11.68
32.61
22.09
17.58
13.27
15.71
12.77
14.11
19.59
17.26
20.82
18.76
14.74
12.42
17.07
35.2
19.88
17.77
11.67
12.05
15.73
13.03
33.69
19.6
18.72
29.87
16.91
19.65
20.63
20.81
22.23
16.35
14.52
44.21
17.55
14.07
13.54
15.56
15.54
12.55
25.19
19.59
20.1
15.06
16.09
14.15
13.23
22.14
23.35
17.28
15.21
13.65
17.95
28.3
20.54
23.75
24.32
13.75
13.18
11.72
15.23
24.35
31.29
18.3
17.74
12.83
28.17
18.08
35.16
15.58
15.56
14.04
29.88
18.33
17.41
27.24
14.56
14.74
21.36
21.35
17.35
16.21
14.33
15.23
14.1
39.91
20.13
15.66
13.13
14.65
14.63
24.18
18.11
21.2
21.89
14.11
15.77
16.73
21.29
20.64
23.29
16.64
15.74
11.74
16.24
21.2
21.2
17.69
18.76
20.84
13.61
20.86
19.57
19.55
16.63
17.57
14.04
34.66
19.31
27.47
19.12
14.1
14.02
13.05
20.14
19.15
22.55
16.69
19.12
15.06
24.75
24.18
18.06
21.05
22.08
14.15
21.62
30.63
18.24
21.38
14.63
14.55
23.26
19.37
29.84
20.39
33.62
21.77
18.81
21.66
24.08
32.34
14.06
18.21
23.29
16.29
20.25
22.71
13.68
15.41
37.21
17.59
23.35
13.63
18.67
36.07
15.71
20.1
16.56
12.04
13.54
13.04
18.09
22.26
17.74
22.66
12.51
13.16
12.14
20.94
18.26
40.74
14.02
13.55
13.03
35.67
37.19
12.02
12.55
12.04
14.04
25.75
21.66
19.2
17.77
14.77
11.54
16.16
41.72
16.27
12.78
14.16
12.69
9.88
38.92
22.86
20.27
15.14
10.11
12.75
11.18
13.16
46.93
16.19
12.6
9.97
13.02
14.99
11.52
11.52
17.74
19.74
22.4
19.69
12.02
22.9
21.81
18.65
14.65
10.58
14.22
13.04
14.54
21.12
24.32
14.37
14.05
17.92
24.35
24.64
21.09
19.89
15.59
14.07
12.05
12.02
22.61
20.07
21.09
12.08
12.68
11.51
15.09
12.04
22.13
19.8
18.16
13.12
13.26
12.67
12.05
12.72
16.09
24.83
19.54
19.25
17.63
15.08
15.05
21.08
21.72
22.66
18.61
16.77
14.21
23.15
18.3
21.12
15.57
17.59
14.62
14.62
14.53
14.65
21.74
22.29
20.59
16.06
41.24
22.45
23.34
20.27
17.46
19.57
23.39
30.17
18.14
17.49
19.92
14.09
20.69
23.57
20.47
24.61
16.93
23.01
18.8
20.43
15.87
14.83
15.25
15.75
22.1
21.57
21.82
17.44
17.39
16.28
15.68
65.66
35.78
23.43
30.94
51.59
21.24
41.95
19.08
20.13
22.63
17.57
23.45
36.61
15.74
25.52
17.55
19.71
21.7
21.37
22.73
19.24
19.11
28.19
21.96
21.19
18.36
19.89
15.58
16.52
19.06
33.32
18.14
14.67
18.12
26.95
21.55
22.59
16.63
16.34
16.69
14.12
19.64
23.09
19.06
14.55
17.65
17.99
14.72
22.08
19.42
19.76
16.61
22.59
18.86
20.33
18.27
22.6
21.62
23.79
14.56
22.11
19.43
21.83
18.71
18.74
17.83
25.52
22.58
44.7
93.14
26.72
29.2
47.09
30.05
64.3
22.08
25.95
25.67
24.71
22.08
20.62
40.75
24.19
22.08
20.1
19.09
18.08
31.23
22.09
21.72
20.43
43.65
27.09
23.45
20.95
21.15
32.12
21.07
22.64
20.05
17.02
21.57
22.3
22.05
23.67
19.34
24.77
20.78
20.73
20.04
17.62
42.6
20.84
18.54
17.98
15.54
19.06
16.54
38.74
20.27
19.66
15.83
17.72
23.22
45.49
15.65
15.12
16.63
20.66
19.27
18.03
19.27
21.72
12.13
8.53
42.73
17.08
20.69
11.62
12.61
13.25
15.16
23.81
24.96
18.32
21.54
12.56
14.29
31.07
16.67
27.04
13.65
13.03
11.51
13.55
20.83
23.05
18.62
30.09
27.19
16.54
22.27
27.09
17.06
18.6
15.21
15.2
28.46
18.68
22.33
19.26
14.1
13.25
15.65
26.19
20.69
19.83
16.65
13.44
15.66
38.85
43.26
25.1
21.11
47.96
24.14
25.66
20.87
29.22
22.24
21.86
19.2
21.23
17.32
23.21
22.8
20.6
20.08
14.04
15.06
20.7
20.55
22.12
19.17
14.13
16.73
15.54
20.22
24.45
18.23
20.64
14.78
21.08
21.06
21.06
20.06
17.07
13.53
19.13
23.44
31.57
16.04
19.23
13.76
23.3
20.02
21.32
17.27
15.0
15.32
14.09
22.18
21.56
20.16
18.54
13.59
17.77
13.62
22.98
21.37
17.62
19.56
14.05
15.3
12.62
23.61
41.72
15.02
14.43
16.13
14.54
32.69
18.56
21.05
18.05
16.56
12.03
33.62
21.86
20.08
21.83
18.81
48.45
18.69
20.25
12.18
18.03
15.32
18.95
20.66
18.61
15.66
17.36
16.69
12.11
25.15
19.36
16.21
21.01
13.56
14.22
24.99
20.56
19.06
22.04
14.6
13.02
15.69
19.86
34.82
13.18
16.04
17.64
13.8
37.77
19.35
15.03
16.54
14.02
15.05
13.03
22.33
17.47
21.63
21.1
22.91
14.28
16.38
22.34
32.08
19.85
17.71
12.29
13.7
24.56
34.97
17.19
14.03
13.55
13.02
40.2
20.18
15.12
21.21
13.03
13.54
21.62
32.89
19.79
14.65
13.22
14.11
21.25
21.71
21.53
16.11
15.31
14.1
13.62
38.16
18.08
17.79
11.61
14.05
13.6
16.84
18.18
19.3
18.71
17.39
14.64
14.03
15.05
24.06
22.6
16.11
15.77
14.71
14.12
14.54
25.34
20.1
18.54
15.03
14.57
14.53
12.16
32.13
19.37
18.04
15.51
12.54
15.05
13.78
29.25
21.32
25.81
16.62
14.61
14.7
22.25
25.13
21.77
21.26
18.79
14.63
21.31
18.31
20.73
17.64
14.02
16.78
15.59
21.08
18.42
21.11
19.82
14.02
15.03
25.6
20.56
20.1
17.73
15.23
12.18
12.56
23.08
20.06
26.6
20.2
12.03
15.1
14.08
19.79
24.89
17.26
18.75
14.14
15.11
13.22
21.64
19.16
35.58
16.62
16.71
32.45
20.74
20.68
16.56
13.62
12.54
14.03
15.15
23.34
20.28
18.54
18.39
18.52
17.65
40.45
18.7
18.5
12.27
12.6
13.95
13.65
24.11
23.38
24.01
21.08
16.57
14.02
21.85
18.57
21.86
19.2
17.95
16.41
24.61
21.04
19.24
16.41
13.16
14.75
14.13
21.33
20.0
21.03
15.68
13.23
16.63
15.95
22.37
20.78
19.55
19.05
16.49
14.54
41.72
17.72
18.15
17.1
14.14
15.11
25.78
28.29
22.52
20.13
17.51
16.34
23.73
20.91
37.08
14.06
13.03
13.6
27.08
44.96
51.56
21.14
36.74
19.18
11.44
38.57
18.02
9.43
18.04
31.95
16.48
24.92
17.03
28.69
15.79
14.91
11.03
21.07
20.23
20.53
17.64
20.21
12.55
13.58
19.68
22.83
22.01
16.02
15.04
21.59
20.71
20.54
14.55
13.02
10.03
11.53
14.02
22.17
20.08
20.1
12.41
11.78
14.52
13.08
20.27
32.64
15.12
11.15
12.06
12.76
13.02
20.07
22.07
20.67
33.58
16.17
12.02
13.51
24.2
18.06
33.47
14.04
10.03
32.39
18.03
15.28
21.75
12.94
10.65
15.4
18.22
31.82
21.14
14.69
11.11
13.31
13.61
36.17
17.47
18.52
17.46
15.29
11.11
42.91
15.1
13.64
12.44
14.36
11.11
10.01
21.61
21.24
20.6
19.38
21.6
21.25
27.85
20.98
18.35
13.45
13.18
10.95
11.16
14.51
26.47
22.97
19.06
21.41
10.51
13.55
13.53
21.87
19.03
20.05
25.04
18.77
15.83
22.38
18.22
37.04
13.78
11.55
13.68
18.51
19.78
23.2
16.61
21.81
14.16
23.35
17.32
18.48
14.67
14.75
12.1
13.28
10.97
15.03
17.61
27.33
16.62
30.52
12.62
24.53
17.21
19.1
19.62
13.65
11.02
13.02
21.66
34.39
15.87
14.23
11.06
10.31
12.1
25.86
17.15
16.6
21.16
12.63
12.03
13.95
23.56
20.15
18.96
19.54
14.03
15.77
14.13
21.36
20.35
19.9
18.23
21.64
13.62
14.62
19.11
20.85
17.79
23.41
18.99
12.82
37.73
15.04
18.53
13.53
14.19
11.45
16.13
22.14
39.61
15.71
14.61
11.14
11.77
13.33
20.41
18.32
20.0
12.53
14.55
13.03
12.54
24.6
20.07
26.66
14.6
13.99
13.53
13.09
18.29
20.68
22.18
17.76
23.97
11.02
13.08
23.15
19.32
20.88
21.28
17.77
16.19
22.09
22.11
22.04
14.64
12.51
12.6
14.57
18.25
19.68
31.61
11.18
13.2
13.04
11.02
28.57
20.67
16.23
14.13
13.0
12.23
14.19
34.07
16.68
16.83
15.81
14.1
16.14
14.15
21.71
16.07
23.06
16.67
20.96
17.17
15.43
20.84
18.02
28.97
20.53
14.96
13.87
24.94
18.53
16.76
20.72
19.58
12.54
14.76
31.58
15.83
31.94
15.24
11.51
14.37
21.43
19.03
21.07
27.78
14.03
12.02
35.77
15.54
22.05
12.49
15.25
10.15
16.7
20.21
20.8
22.72
14.64
15.21
11.74
14.13
17.55
19.05
28.85
13.19
15.53
12.55
11.77
35.69
17.05
14.48
12.85
13.63
13.85
10.51
38.61
16.18
15.55
17.16
15.88
12.19
11.03
13.61
20.09
15.04
19.5
13.22
14.6
11.67
11.59
21.76
30.08
14.75
12.06
16.56
13.51
12.53
20.15
19.17
19.15
17.03
12.02
14.46
10.3
13.27
23.49
19.05
30.41
13.09
14.44
10.1
14.93
20.25
20.18
33.33
15.21
13.91
11.65
42.46
18.04
23.69
15.25
10.32
10.02
38.55
20.6
15.42
35.72
42.09
28.96
13.09
9.14
11.16
9.09
8.13
10.24
8.98
8.34
15.73
19.37
8.03
20.55
10.2
8.1
11.04
7.01
8.23
23.47
33.13
11.12
23.43
30.38
11.53
11.03
8.03
45.97
15.03
25.59
10.03
25.24
32.7
12.65
10.92
12.32
7.17
8.13
9.0
11.84
20.36
38.3
20.16
10.03
10.05
8.02
11.12
35.94
14.52
23.66
9.01
9.7
11.12
8.87
9.58
9.12
7.33
24.93
36.08
13.53
8.87
7.52
11.02
21.56
13.95
24.05
26.04
34.77
15.08
14.25
20.69
18.56
21.37
23.01
21.84
36.95
21.18
17.65
19.24
16.39
22.04
23.64
18.56
25.48
33.93
43.89
15.64
24.62
34.11
12.04
19.56
22.11
20.86
19.96
19.82
35.06
28.93
22.44
33.26
31.59
39.66
20.74
23.09
29.52
16.54
23.59
21.54
43.55
17.65
20.06
33.83
21.58
24.6
16.44
19.01
20.26
28.61
36.19
18.77
21.24
47.22
24.88
21.41
21.77
30.14
20.37
19.19
20.13
18.57
19.16
23.98
24.15
18.41
21.64
16.5
16.71
26.02
33.73
21.16
20.14
18.84
23.1
20.08
22.16
21.24
19.45
22.11
19.73
23.68
25.05
20.03
18.91
19.05
30.16
20.8
21.3
27.59
23.6
22.78
24.09
19.61
22.49
18.9
20.23
32.58
23.83
21.77
17.62
40.33
20.81
25.86
19.12
21.59
29.18
20.89
22.56
21.56
16.34
20.92
25.08
22.36
23.29
27.34
17.72
22.1
22.41
23.14
19.82
23.61
17.7
70.27
39.3
26.59
40.29
26.84
23.6
19.66
20.69
26.06
30.29
25.99
20.8
21.86
42.17
23.77
18.68
18.6
19.09
20.26
22.22
25.71
21.17
16.71
19.53
20.32
20.84
16.68
20.44
22.82
18.54
21.45
23.3
19.31
26.73
18.37
17.93
23.06
21.95
22.53
18.88
17.92
16.72
20.35
21.06
19.94
21.07
20.87
28.9
41.01
20.3
23.7
17.59
17.63
16.15
23.08
17.03
21.19
19.68
18.98
43.11
20.08
13.12
12.21
10.02
8.59
13.18
12.33
10.15
19.75
38.43
14.03
14.2
12.59
11.51
11.63
21.42
20.97
18.2
37.06
17.0
23.09
20.14
22.64
18.63
15.7
14.21
15.54
16.04
21.09
22.09
18.64
20.84
17.86
17.41
19.1
24.17
16.82
13.26
14.93
14.05
19.58
30.89
18.73
14.89
15.64
13.74
13.82
22.89
21.59
27.89
20.16
13.54
14.04
18.2
20.27
32.48
17.36
15.98
12.26
13.52
20.75
19.41
20.25
21.09
17.84
14.29
14.11
19.66
22.75
32.76
15.47
12.57
13.66
41.89
18.54
14.33
13.89
11.61
14.66
25.17
20.08
18.05
22.31
14.6
14.04
14.52
68.29
23.62
22.6
34.34
26.68
23.09
23.05
16.74
23.95
29.68
22.24
21.59
18.7
18.31
24.65
20.56
17.39
22.48
16.49
15.78
34.27
22.57
23.77
14.16
13.57
15.73
20.73
21.08
35.98
15.67
13.18
15.14
20.56
19.86
22.27
23.39
17.1
16.47
14.52
22.11
17.38
25.47
19.43
13.66
15.54
17.33
17.39
20.21
18.56
20.09
12.53
14.65
32.36
20.03
17.19
16.6
12.56
16.56
14.13
22.36
35.61
17.06
16.48
19.86
36.1
17.18
15.08
12.55
15.54
13.12
16.56
24.61
18.57
20.08
19.62
15.03
13.06
12.59
12.05
14.87
20.09
18.59
33.13
18.04
14.55
20.67
21.88
16.39
22.8
14.26
15.32
35.35
21.35
14.77
15.62
13.84
17.17
15.04
20.07
22.61
19.08
16.57
14.56
17.56
23.19
26.23
19.84
14.67
14.15
14.66
16.75
23.25
22.36
21.16
16.72
15.12
12.61
17.42
20.4
24.16
18.62
14.05
14.66
16.65
15.06
18.68
18.64
21.68
16.22
14.25
15.28
14.25
23.26
20.07
21.06
17.97
14.55
13.03
14.64
42.12
20.14
17.2
16.18
12.64
14.7
20.82
21.25
18.1
18.07
14.63
14.62
14.05
28.31
23.07
19.24
14.1
12.02
15.06
14.59
22.08
20.12
22.07
17.63
15.03
14.61
32.6
21.18
16.68
13.57
15.56
12.3
15.17
25.74
18.42
19.64
15.63
17.17
15.12
13.73
15.15
20.25
17.57
22.09
16.1
16.53
15.04
18.58
20.07
20.14
16.6
15.04
12.03
14.53
15.06
21.31
21.05
18.57
20.57
13.08
16.2
16.04
22.08
19.59
23.61
17.45
17.61
14.84
21.86
16.42
23.71
14.65
14.78
16.54
36.05
18.9
18.21
17.79
13.51
14.27
14.67
43.67
14.61
14.62
14.1
14.73
11.59
25.64
30.76
20.21
13.07
16.04
14.74
20.74
23.86
18.78
17.2
15.07
16.12
19.36
22.56
21.1
18.65
15.56
13.78
19.5
21.65
24.11
16.07
16.54
13.29
13.54
14.55
14.75
19.66
24.71
19.16
13.64
14.63
16.02
37.52
20.08
16.99
16.22
13.11
17.9
16.06
21.58
31.72
18.05
12.51
14.55
13.03
24.73
19.3
37.43
15.04
15.04
12.55
24.15
17.83
35.49
15.09
18.59
13.03
20.36
17.57
22.61
20.16
22.08
14.03
43.99
19.89
16.54
14.55
13.02
14.54
28.99
21.22
22.79
19.21
13.27
16.56
12.54
25.12
20.05
27.58
32.12
14.03
20.04
19.24
18.22
16.79
13.37
16.23
17.56
45.94
16.61
16.49
15.09
13.05
10.04
23.16
27.58
14.53
11.04
14.01
10.03
12.55
14.02
37.59
18.07
21.03
15.16
9.52
11.02
14.13
24.07
20.14
19.96
13.74
13.53
10.51
9.03
26.95
17.07
19.09
12.51
17.1
15.07
12.03
13.5
38.55
15.55
12.57
13.14
11.54
9.02
11.54
12.07
42.61
15.68
10.03
12.33
12.13
11.53
10.02
39.02
16.6
12.66
9.1
12.68
10.13
15.24
12.17
20.64
15.74
18.66
14.14
12.36
15.78
12.52
72.36
33.7
27.39
18.67
23.73
20.8
34.13
21.29
54.28
23.1
17.56
18.09
21.06
20.07
14.54
16.65
15.55
17.59
23.14
18.56
19.07
15.08
21.09
20.33
18.77
24.14
17.07
14.55
18.59
26.11
36.71
16.57
15.08
14.56
28.79
19.6
14.52
22.68
23.59
15.11
15.54
25.2
36.01
14.68
18.34
16.33
15.56
40.14
16.06
28.19
14.55
16.09
23.15
20.76
25.1
20.09
14.07
14.05
13.06
32.71
16.56
32.1
16.55
14.06
15.77
23.42
19.23
16.56
15.57
14.21
13.17
14.16
21.74
19.08
24.11
12.17
10.62
10.04
13.54
43.38
15.55
11.54
13.55
12.04
13.55
12.55
13.1
31.57
11.7
21.85
11.55
13.02
12.35
36.4
16.21
12.62
13.23
12.29
12.67
9.59
10.7
11.19
11.19
19.57
18.69
21.28
18.07
21.68
13.65
11.55
20.13
31.11
13.17
22.88
47.66
15.82
30.56
33.11
13.56
35.64
18.0
23.65
13.53
15.53
13.86
14.73
14.13
14.17
12.84
14.04
22.22
54.17
20.6
26.29
24.44
31.83
20.77
20.07
25.14
21.59
20.58
12.7
17.63
15.47
18.42
18.55
19.09
18.53
16.7
13.07
11.05
9.83
21.23
37.76
15.23
14.66
12.54
11.55
11.92
40.81
17.1
12.62
16.24
12.69
16.79
14.69
42.0
18.21
23.03
22.68
17.02
22.55
18.81
19.57
23.59
21.27
12.17
11.2
17.76
22.86
16.55
16.88
19.14
13.12
12.57
29.1
18.29
18.24
17.07
12.04
14.06
13.06
11.23
19.07
19.01
19.23
20.18
21.79
14.15
22.01
18.55
28.79
21.58
13.8
10.07
26.17
19.52
17.63
22.22
20.55
13.76
29.79
19.11
20.24
17.56
17.51
14.14
12.24
23.31
37.63
17.54
12.54
12.79
12.54
23.89
20.58
19.0
12.54
12.12
12.09
12.05
13.03
20.59
19.33
24.16
15.89
14.63
13.76
10.84
34.74
14.9
16.72
13.15
11.6
10.66
12.13
12.64
21.18
20.72
16.78
15.2
12.62
11.04
10.58
15.19
16.27
31.93
14.28
14.58
11.56
15.53
13.18
21.26
19.15
22.93
29.88
15.63
13.54
22.11
19.1
19.11
21.6
13.04
15.03
11.88
23.16
20.21
34.59
14.18
12.59
11.25
38.36
14.97
20.38
16.23
11.34
10.59
14.08
23.22
19.06
20.92
20.77
15.16
10.33
13.08
14.29
22.6
28.22
17.02
13.29
10.94
14.02
13.55
20.59
17.91
21.06
13.99
13.77
12.67
10.09
13.59
19.79
27.35
12.57
16.46
11.75
13.52
15.54
19.54
19.6
20.13
14.15
12.53
10.68
12.11
14.54
21.1
22.07
18.63
13.54
12.03
13.11
10.31
14.04
20.1
19.07
24.56
18.63
14.15
12.53
23.27
17.1
21.1
24.74
13.09
13.69
12.22
22.67
20.08
18.75
21.84
18.73
13.23
14.64
13.2
20.57
18.55
20.56
29.62
42.62
17.87
21.82
30.61
14.58
29.35
30.03
21.2
16.19
18.47
21.59
24.97
54.45
31.57
19.43
16.56
23.26
23.78
21.76
21.5
14.32
12.73
13.61
15.96
18.09
18.73
19.07
14.74
15.07
12.24
48.72
16.59
14.05
15.03
25.07
20.45
19.07
21.08
18.09
14.55
15.43
20.09
19.63
20.24
14.08
14.56
13.33
12.67
14.67
14.71
27.22
20.31
20.04
10.01
9.27
9.51
18.51
20.35
8.23
13.73
11.95
8.59
9.71
9.51
10.02
10.05
21.57
8.84
14.63
23.3
21.55
13.03
10.76
10.62
20.07
19.18
19.56
15.7
26.06
21.58
22.1
21.47
24.62
20.04
19.79
41.86
20.29
32.41
29.75
6.6
10.04
38.34
14.58
24.59
49.97
13.56
20.81
17.58
27.95
9.62
31.64
27.16
17.89
7.52
6.44
11.05
8.03
6.48
8.52
10.03
10.03
18.02
23.45
32.77
10.53
9.39
7.01
7.12
8.22
13.61
9.04
16.75
19.89
12.17
8.53
6.52
8.71
9.78
8.51
19.07
25.4
17.93
13.16
10.54
7.51
7.53
6.52
9.52
7.97
9.04
18.08
32.18
11.64
8.18
8.09
7.35
8.67
8.52
19.68
30.57
15.64
16.66
11.03
7.52
7.05
7.62
6.9
30.27
18.8
9.81
9.68
7.1
6.31
7.73
7.52
8.1
6.5
7.06
19.84
16.66
20.7
19.83
14.75
7.52
8.11
8.08
8.94
11.51
21.5
17.97
14.67
8.2
7.64
7.61
10.13
9.13
7.52
14.84
21.56
7.61
16.88
13.05
8.04
9.04
10.03
6.51
7.88
9.84
19.58
35.79
17.07
13.01
10.04
7.53
9.95
36.76
11.61
19.08
7.02
7.01
8.01
9.03
6.51
10.03
8.52
31.49
18.98
10.05
6.8
6.64
8.26
8.61
7.09
12.53
9.05
7.67
7.52
33.48
13.69
9.04
13.05
19.8
10.85
34.63
16.69
19.86
8.1
10.16
9.53
8.18
8.65
7.15
21.26
22.05
19.54
19.57
20.25
8.34
9.52
9.53
15.36
29.92
15.75
6.1
10.57
8.58
6.09
8.16
8.62
18.56
16.19
12.08
20.38
8.57
9.02
8.01
8.27
7.52
6.03
8.17
41.52
16.48
20.07
7.62
10.02
8.67
7.38
8.53
22.09
23.21
10.2
9.61
7.26
8.13
8.56
9.39
11.65
19.15
19.76
23.36
23.39
8.07
7.64
19.72
10.05
10.54
9.42
7.03
8.52
8.53
24.75
14.97
21.76
12.71
12.51
10.13
8.68
11.7
15.72
20.55
24.2
12.19
7.11
10.12
9.52
7.54
10.03
9.06
12.61
40.66
14.96
8.52
7.0
10.05
6.52
8.54
9.05
11.06
31.56
11.92
10.03
8.09
11.05
8.3
7.53
11.88
26.58
11.27
22.35
9.03
9.65
8.1
5.51
8.73
8.33
8.52
8.59
15.16
19.9
20.82
9.71
8.04
10.0
8.6
7.08
8.52
21.05
22.09
19.31
18.12
10.67
7.52
11.06
9.05
7.6
10.05
12.56
29.99
9.58
12.03
7.59
7.21
6.52
9.02
7.08
7.18
36.25
13.57
8.55
6.01
9.04
9.08
7.51
8.52
6.52
9.01
33.54
16.68
9.03
7.62
8.07
8.16
7.09
8.1
6.51
7.02
9.03
14.8
19.06
14.56
10.16
9.0
6.51
10.04
8.33
7.16
6.52
11.38
9.52
16.06
23.22
22.55
17.79
8.12
7.11
7.15
20.93
19.48
19.06
10.04
9.15
7.52
10.04
7.52
6.53
9.03
9.95
22.89
24.09
11.59
8.87
7.65
10.04
9.62
6.81
10.51
21.09
28.11
12.33
17.06
8.08
8.51
8.04
8.05
9.05
16.05
33.11
14.04
10.03
8.05
8.86
7.52
7.05
7.04
35.66
14.18
20.27
7.88
9.04
9.04
7.63
7.51
6.03
10.12
26.27
14.54
10.04
10.6
7.62
7.63
8.8
21.12
22.19
17.58
7.55
12.03
8.52
7.53
10.04
8.02
10.04
33.74
14.55
11.26
6.5
9.04
8.04
7.0
8.01
7.94
10.91
15.77
19.57
16.06
12.04
9.52
7.52
10.59
8.52
6.57
9.02
29.78
22.67
22.63
12.3
9.71
8.1
6.33
9.04
9.66
17.42
19.22
19.08
22.07
13.03
8.64
7.0
11.2
10.03
27.01
20.66
16.67
15.33
8.2
5.51
9.54
17.15
20.12
20.04
18.55
8.12
7.09
8.09
7.26
6.68
10.11
22.4
30.36
10.38
6.84
6.52
9.19
8.13
6.51
5.51
12.56
34.1
20.07
18.29
6.52
8.54
9.2
5.52
8.04
19.27
14.57
20.14
11.57
31.7
10.04
8.14
9.08
12.52
23.59
22.14
23.19
18.63
8.52
6.01
11.54
14.38
17.75
8.5
18.58
21.18
13.9
7.8
6.57
21.65
29.04
11.55
27.55
9.0
9.0
7.58
6.51
9.32
11.13
17.31
39.13
10.62
11.05
7.53
7.03
8.52
10.59
18.3
19.26
24.23
22.68
9.6
6.53
6.55
11.03
21.88
12.27
20.45
7.04
12.03
7.09
7.39
8.13
8.05
8.05
19.28
21.33
19.07
19.02
8.49
10.41
6.53
6.52
9.53
23.72
20.27
20.36
11.04
8.52
8.02
7.58
6.18
7.17
21.69
39.75
14.55
11.05
7.94
6.51
7.06
8.05
8.04
7.51
15.4
8.04
35.32
11.94
10.35
6.0
8.53
8.53
7.54
7.04
16.16
26.59
11.04
8.04
9.04
7.58
8.27
7.03
5.51
11.04
20.32
29.95
17.06
12.04
11.55
7.05
8.52
7.04
10.05
28.13
19.14
20.56
10.04
21.05
10.04
7.03
9.04
19.11
16.1
20.07
8.43
10.51
7.97
7.02
10.03
8.05
20.51
12.65
20.46
17.52
8.02
12.07
11.36
8.51
7.66
9.32
18.23
21.5
20.62
12.17
7.14
9.1
7.6
8.14
8.1
7.12
18.8
20.58
16.22
8.06
10.02
10.75
8.03
8.76
7.59
8.11
14.08
23.56
19.07
7.58
11.51
20.08
68.22
25.34
14.51
11.61
13.7
14.29
41.4
18.85
13.54
14.55
11.47
14.02
34.24
23.49
14.04
15.66
13.15
12.06
14.53
13.48
19.96
32.57
16.58
12.98
14.68
13.51
19.09
23.62
33.18
18.04
14.56
13.58
24.58
18.91
19.93
19.28
16.76
13.55
12.05
34.5
17.68
21.83
26.6
14.06
11.54
19.26
20.64
20.76
19.14
18.61
13.78
12.3
22.29
38.88
16.27
13.94
12.36
11.58
14.18
29.52
21.14
21.97
17.18
14.37
13.05
19.83
20.04
21.09
16.99
17.56
14.76
10.81
11.54
22.08
22.07
19.67
14.17
13.15
14.63
25.78
18.58
21.93
25.1
14.15
13.45
27.45
24.29
23.87
13.35
16.12
14.68
12.2
44.4
20.08
16.1
62.33
26.38
25.27
30.46
46.4
29.22
24.01
23.37
19.45
27.25
23.4
20.38
23.55
25.35
22.72
20.66
22.1
18.1
23.46
22.72
31.09
35.63
21.09
19.69
31.26
22.08
20.62
19.12
18.55
28.35
20.08
20.66
21.12
21.01
17.48
22.59
21.6
21.43
21.56
18.08
16.8
21.6
22.29
19.09
19.98
21.11
27.1
45.12
14.25
11.7
9.55
8.6
8.06
10.74
9.02
9.18
14.21
29.29
11.52
13.04
9.05
9.03
9.05
9.18
10.12
10.04
21.28
19.36
29.41
11.16
28.61
35.17
20.09
19.62
16.54
11.02
12.03
12.55
15.52
20.25
14.2
21.96
26.79
13.11
12.02
35.65
13.03
20.07
25.6
24.09
20.06
24.11
25.19
25.58
11.08
13.02
11.07
20.07
21.08
16.68
20.56
16.59
14.58
27.13
19.07
24.86
20.46
12.58
15.82
26.78
16.04
21.07
28.33
13.51
14.09
12.03
22.2
19.08
19.23
16.43
13.33
14.49
14.06
16.1
20.17
23.2
20.15
14.71
15.74
11.6
10.68
19.19
22.18
22.15
18.28
13.03
13.15
14.64
19.55
28.8
38.18
22.08
21.21
21.7
25.09
18.07
24.1
28.62
15.67
21.83
21.81
22.11
17.59
38.84
18.59
13.56
15.18
13.38
14.64
29.74
19.63
16.62
13.58
13.04
13.06
11.52
14.21
19.17
23.28
16.8
29.26
11.1
12.53
14.55
27.9
19.13
30.92
30.41
12.18
10.52
20.04
34.96
16.52
10.11
12.7
11.95
23.68
19.09
19.1
16.06
13.12
10.18
12.68
10.6
17.19
24.61
28.2
13.03
9.62
10.03
11.05
10.56
19.68
19.08
17.57
23.6
11.02
8.52
10.17
11.31
14.79
23.43
34.27
36.72
49.9
43.75
41.72
43.23
23.25
21.9
24.38
26.92
30.34
46.79
47.42
29.87
24.19
23.65
25.97
19.22
18.88
43.94
25.64
19.14
35.73
21.7
19.09
19.58
26.61
22.08
18.21
20.67
22.23
18.92
21.12
23.13
20.08
18.19
20.74
18.57
20.09
20.1
21.63
27.62
21.85
18.85
21.38
22.71
21.62
19.86
18.29
19.19
21.6
19.09
16.56
21.67
19.38
20.13
17.71
24.12
29.12
18.54
36.62
21.61
19.08
18.09
23.34
19.64
33.85
29.79
24.36
16.12
23.01
16.31
16.06
16.08
16.09
19.18
34.15
14.56
16.43
15.1
11.73
11.62
13.46
13.13
20.11
20.95
25.73
14.55
15.14
17.56
18.07
20.72
16.25
12.04
12.05
11.03
13.57
11.55
23.02
17.09
20.97
16.58
15.15
11.69
35.42
15.04
15.04
11.83
17.59
13.05
14.74
35.77
17.46
16.2
8.57
10.06
7.52
8.05
7.09
10.51
28.44
25.24
11.61
8.53
8.04
9.93
8.42
8.0
13.01
35.68
13.03
11.12
8.07
10.32
13.43
9.82
11.02
13.23
9.51
19.63
26.37
9.08
9.17
8.15
10.66
9.56
6.63
8.15
17.57
36.75
15.93
15.69
13.05
11.12
10.56
27.27
24.07
14.06
13.59
11.13
13.53
11.54
12.54
17.65
37.84
13.18
11.14
13.71
11.39
11.17
12.69
19.32
19.89
19.66
12.76
13.86
12.61
11.61
35.13
19.75
15.56
13.09
12.1
11.55
10.05
13.05
20.06
18.93
18.76
18.3
17.96
10.64
13.42
24.58
16.06
21.39
22.83
13.27
10.05
12.12
27.57
37.85
12.89
12.67
10.12
12.33
12.2
21.8
40.0
15.53
11.51
10.85
12.52
12.32
17.17
20.86
19.72
27.25
17.54
10.63
13.19
37.86
14.58
22.95
15.15
12.2
11.22
22.99
37.93
14.75
10.95
12.68
11.31
9.18
14.06
55.54
25.82
19.6
20.16
53.47
14.69
21.27
16.61
21.85
22.39
21.12
23.49
16.06
14.65
17.27
26.17
20.71
18.22
24.79
14.79
14.66
22.41
26.21
19.21
23.78
52.46
17.6
24.21
18.44
50.21
22.77
21.59
19.58
25.13
54.48
26.81
23.11
59.9
31.82
21.72
18.82
48.7
19.61
16.07
14.77
16.25
18.59
16.57
19.1
19.59
23.1
16.59
24.27
26.18
18.45
21.24
19.08
19.68
16.6
22.28
34.32
14.69
20.91
13.24
16.75
17.5
19.81
16.55
20.78
13.52
12.56
31.14
19.15
19.65
21.62
14.5
13.44
24.59
16.58
35.1
13.66
15.08
15.07
20.65
18.6
18.62
13.46
14.17
12.73
14.14
12.13
13.45
19.07
30.95
14.55
14.28
12.94
12.52
23.56
23.56
19.61
24.15
16.56
11.55
15.02
21.58
17.81
16.04
21.12
23.8
14.2
18.22
20.89
20.23
13.7
12.22
13.72
12.11
15.66
30.37
16.7
19.08
21.75
13.55
11.51
22.67
34.18
28.6
36.66
33.59
16.63
20.7
22.76
13.12
11.49
10.51
26.62
34.79
13.55
11.81
10.06
9.5
12.01
10.01
21.55
21.07
21.62
17.95
16.19
12.56
28.07
19.69
21.65
19.22
18.64
14.85
12.43
21.86
22.16
17.9
32.8
14.22
16.92
23.49
18.55
17.11
17.52
13.65
13.84
12.05
20.15
19.61
21.21
21.65
20.06
12.52
26.94
19.75
19.13
20.7
23.19
29.17
22.15
36.76
22.21
23.01
14.34
14.52
18.41
19.09
22.08
20.55
15.08
15.04
44.18
16.64
14.07
14.87
12.04
14.0
11.04
25.21
25.72
16.56
16.06
13.68
12.57
12.63
15.88
21.56
30.63
21.67
16.85
13.75
11.6
22.78
23.2
20.63
20.83
13.04
11.04
24.61
19.97
19.82
18.32
12.6
14.14
11.89
16.97
19.79
22.32
18.2
18.49
13.53
14.56
15.07
46.57
19.28
14.77
15.08
13.87
16.18
38.79
16.21
14.05
16.4
11.95
15.04
15.68
19.62
19.83
24.96
17.56
14.54
11.7
20.07
20.62
21.83
36.29
17.37
13.57
35.66
15.55
16.77
14.75
14.31
12.55
15.04
37.92
16.56
15.06
23.07
12.62
11.75
36.42
18.58
16.06
13.03
14.53
11.89
13.55
41.7
16.09
15.57
12.95
13.55
13.55
16.05
21.08
20.57
18.07
14.58
15.08
13.72
15.94
52.28
30.63
25.64
38.91
21.11
18.08
18.12
15.05
15.03
19.35
19.59
21.61
21.09
18.45
29.22
21.09
19.36
16.21
15.66
16.52
26.4
20.09
24.61
26.09
14.65
13.94
15.21
23.34
17.66
19.14
13.54
17.78
14.66
15.58
17.7
20.09
21.06
16.75
17.09
13.55
23.63
21.22
15.89
17.4
14.56
14.62
12.02
16.06
24.46
18.54
21.53
15.21
16.2
12.79
17.54
38.29
18.95
16.17
12.69
15.97
10.63
33.3
19.42
14.52
16.56
12.03
12.45
12.04
13.54
21.19
17.89
30.74
14.95
13.53
13.56
22.28
17.13
20.78
18.08
24.51
13.55
26.08
17.05
19.62
33.74
13.31
13.64
12.04
20.07
18.52
19.11
32.64
12.55
15.45
21.44
21.47
17.79
16.56
12.58
10.97
13.31
24.51
16.15
20.32
16.54
15.33
11.54
12.84
13.37
11.63
33.71
17.75
14.04
16.05
13.08
12.17
26.58
19.08
18.04
15.56
14.52
15.87
14.47
20.07
20.38
18.57
16.58
14.55
12.24
17.2
41.61
18.3
14.18
13.14
11.88
12.74
14.18
28.14
21.02
15.1
16.22
12.58
16.13
14.54
21.09
20.73
19.41
15.52
14.57
16.09
13.05
21.1
19.08
21.06
17.61
14.05
14.55
27.13
19.07
16.06
14.49
17.24
11.02
14.5
15.57
21.16
21.21
23.4
19.11
24.67
13.77
15.15
20.22
17.74
20.7
18.16
13.04
14.05
21.65
25.81
21.58
14.73
13.11
14.07
11.04
16.03
20.79
17.62
31.13
16.72
35.92
20.47
30.08
26.56
15.7
15.79
13.07
17.8
18.64
24.94
18.71
14.09
13.43
13.65
24.01
34.87
15.67
22.36
13.93
16.33
19.13
20.7
22.67
21.09
14.73
17.19
24.69
22.19
17.67
30.94
14.52
15.06
31.88
15.98
20.08
23.56
13.86
12.54
22.46
18.53
19.55
18.07
16.08
13.03
13.55
32.84
18.23
15.22
15.83
12.19
12.55
17.01
23.52
21.19
19.88
17.58
15.56
15.79
13.61
18.72
21.91
23.06
20.02
12.65
15.6
27.72
19.08
16.59
15.09
12.2
15.08
13.53
18.08
22.72
29.23
15.66
16.68
11.1
13.43
13.67
28.1
19.21
16.13
13.14
12.64
13.69
15.47
22.09
20.17
21.06
15.57
14.08
12.05
14.3
20.41
21.07
18.87
17.07
14.55
12.04
11.52
24.29
19.79
21.58
21.2
17.8
15.02
35.66
16.28
16.1
15.33
13.77
12.05
13.65
14.14
19.57
20.18
19.76
15.62
17.25
12.03
14.56
20.1
22.58
19.64
21.19
21.67
20.81
26.4
27.1
18.51
14.39
15.08
11.17
37.62
20.6
19.74
15.49
15.06
12.68
13.6
33.32
14.54
16.58
16.71
11.62
14.7
16.18
40.05
15.56
18.77
15.49
15.06
14.53
19.73
31.98
19.07
15.06
13.67
12.66
26.63
25.53
18.56
28.06
13.57
15.56
24.58
16.57
21.09
32.73
12.03
15.0
25.65
23.57
16.8
14.02
17.2
13.57
12.22
21.7
36.89
17.73
12.56
15.03
14.54
13.03
36.66
15.84
14.8
14.15
14.04
12.51
18.64
26.47
17.06
18.16
13.54
14.31
13.58
14.55
26.81
21.21
19.3
29.65
14.13
27.52
26.39
19.07
27.58
30.24
30.35
18.06
24.69
11.55
9.64
11.57
9.03
8.03
13.18
13.55
20.58
17.29
9.87
10.19
7.51
9.91
7.63
10.37
41.44
20.16
9.09
9.85
8.04
10.12
11.05
8.02
10.1
9.81
21.16
20.69
16.03
10.27
12.06
11.57
11.19
26.81
18.15
20.13
13.64
9.79
10.9
9.12
8.57
12.66
31.76
15.53
13.57
11.02
12.04
9.04
7.52
13.52
14.56
19.61
20.99
11.69
12.55
9.03
9.57
10.52
24.7
22.31
27.62
13.36
11.58
7.52
7.67
9.51
12.11
22.15
28.7
12.66
10.59
8.48
8.91
9.53
24.7
18.99
24.18
16.6
10.92
11.38
9.04
8.04
12.05
16.76
11.03
16.03
16.54
12.03
9.51
11.53
10.14
9.1
19.78
16.18
22.75
10.67
11.83
9.52
8.77
8.6
7.51
35.12
15.54
19.06
19.54
11.55
9.77
8.0
21.1
32.77
18.87
23.23
12.19
10.65
10.2
20.41
18.59
33.85
12.58
9.22
12.66
8.03
8.87
28.13
16.06
11.05
11.54
12.04
9.07
11.09
9.55
8.9
17.31
19.06
20.09
11.16
9.91
10.65
10.37
10.64
9.81
30.7
14.08
14.58
12.06
11.05
9.73
11.16
13.72
36.77
14.57
9.03
15.03
10.53
9.91
11.52
9.06
11.17
19.21
23.1
11.02
9.77
11.58
12.37
10.63
7.53
9.04
36.81
14.37
9.65
12.52
13.65
8.0
11.68
8.87
9.06
18.55
20.32
20.61
12.57
9.53
10.04
11.05
10.05
20.29
14.53
25.88
10.12
10.11
36.66
37.16
15.37
11.75
17.46
16.79
15.07
33.08
27.93
13.59
10.82
10.04
13.39
10.06
16.06
18.11
20.17
33.65
16.64
20.07
14.03
11.12
22.58
21.62
16.22
27.54
13.2
33.6
17.5
25.55
12.03
13.24
10.52
11.03
31.71
18.03
13.06
9.52
10.05
10.03
12.95
9.03
38.57
17.74
17.49
20.23
10.23
9.85
9.12
20.67
17.08
27.29
30.64
21.21
10.03
18.55
32.52
12.17
20.34
21.59
12.07
35.85
14.78
24.78
9.53
8.73
11.61
9.6
7.51
24.6
16.58
35.16
13.47
13.29
12.19
9.11
9.85
11.14
17.31
19.12
27.84
18.79
9.02
12.64
24.24
20.65
9.54
25.19
19.55
11.54
11.04
23.13
30.65
17.96
19.32
13.54
10.05
10.52
20.42
19.3
30.67
17.31
10.51
9.08
9.1
15.14
22.77
29.33
18.21
47.67
22.5
59.21
16.58
26.0
30.23
30.67
53.47
26.21
38.02
21.36
32.76
15.4
26.75
24.2
25.66
27.74
21.69
22.6
14.57
26.19
24.24
25.59
19.43
13.02
16.39
26.89
49.24
17.18
21.19
16.22
16.14
48.05
30.92
26.99
30.19
33.83
17.56
24.4
12.65
12.16
35.95
17.2
21.03
14.67
13.54
13.55
13.42
20.77
20.58
22.63
21.45
17.32
23.75
15.83
32.11
18.94
25.03
18.24
13.68
14.32
23.06
22.58
19.11
20.59
24.62
24.11
31.2
15.4
23.63
17.17
13.18
37.94
19.31
15.08
16.1
14.76
13.76
11.53
19.13
19.1
21.37
21.61
20.68
12.11
12.37
37.6
15.9
20.0
21.37
14.68
11.59
31.21
18.17
23.9
24.12
14.21
12.03
14.67
19.06
21.11
40.74
14.15
15.01
21.59
20.09
20.12
15.26
21.46
13.14
15.18
30.09
47.62
22.62
20.72
18.7
35.77
19.76
20.07
17.58
18.06
31.82
17.5
19.25
18.83
20.88
19.29
20.71
17.63
37.15
25.1
31.0
19.73
18.16
21.8
15.55
17.25
25.18
17.25
29.17
19.12
18.61
14.06
25.79
18.08
32.17
14.58
16.7
12.67
11.08
20.21
20.19
19.75
16.35
15.51
12.56
12.04
11.82
25.51
20.63
24.92
20.7
15.09
14.06
21.56
17.15
19.81
21.75
20.1
24.11
17.05
22.19
20.56
20.09
19.17
21.14
52.98
31.18
15.65
15.27
15.09
34.91
19.27
20.41
17.04
15.76
16.56
22.63
16.59
26.61
19.11
29.16
18.06
15.62
28.13
20.56
18.04
20.11
33.3
23.12
18.6
21.12
21.35
15.05
23.3
24.46
19.53
22.93
16.59
18.33
11.57
14.67
24.24
19.72
15.25
21.26
20.22
14.46
23.57
19.65
16.18
21.55
15.09
12.52
17.21
22.94
23.07
17.31
20.18
17.88
18.59
24.16
19.08
23.64
15.08
13.4
14.72
14.53
21.62
19.41
21.72
20.1
19.65
18.28
27.7
20.23
20.71
14.75
15.11
11.42
17.27
19.86
19.33
18.88
17.2
15.61
12.76
16.66
19.08
22.07
18.57
22.17
20.25
14.96
14.46
28.38
21.06
22.29
24.67
60.88
44.17
26.67
27.4
32.12
45.26
26.45
46.9
23.08
27.05
34.44
28.43
22.25
22.7
34.14
23.23
23.77
24.77
27.74
42.63
24.63
25.62
18.61
39.15
20.88
25.09
20.01
20.57
24.98
24.37
19.26
18.79
21.57
26.31
22.89
24.39
25.78
18.39
38.05
22.23
22.57
24.25
20.77
33.72
32.21
20.11
22.51
48.99
18.12
18.09
19.16
16.54
17.11
45.22
20.77
16.88
20.13
16.41
24.62
22.1
22.0
18.24
24.32
16.63
24.66
21.07
19.59
19.07
15.71
19.9
24.73
19.6
18.1
20.06
18.04
16.07
16.05
21.09
20.69
21.12
16.78
19.82
14.76
21.63
23.1
19.67
17.6
15.85
17.18
19.7
18.36
19.55
19.45
13.64
14.05
16.37
17.07
24.62
19.8
18.66
15.05
16.04
14.23
29.89
23.56
23.1
14.59
16.05
15.57
37.07
18.78
25.37
15.5
16.31
16.33
22.14
22.35
19.12
17.61
26.86
17.3
18.99
21.08
16.08
32.24
38.69
24.56
25.13
19.09
19.04
17.08
19.14
38.66
17.92
20.14
20.12
16.57
17.62
21.83
22.69
22.25
16.06
19.17
14.04
17.56
27.62
17.05
21.19
19.19
20.68
23.16
19.6
22.56
15.37
16.73
14.04
13.54
20.75
19.67
26.37
16.8
11.09
8.03
10.02
8.94
18.55
28.41
22.61
23.46
12.64
11.13
10.58
21.9
24.49
18.07
19.25
18.34
10.66
8.67
20.69
18.54
22.63
8.52
28.68
12.55
10.55
34.42
16.06
22.1
15.57
14.06
12.61
11.54
19.38
20.09
19.58
19.08
21.58
14.23
24.04
18.59
26.76
22.04
16.03
15.62
25.84
21.69
16.75
21.3
23.18
12.74
22.76
17.06
29.12
18.55
17.1
15.54
14.05
26.11
22.05
17.92
21.33
14.25
14.62
14.54
13.15
41.18
18.34
20.23
16.32
23.59
22.99
15.04
24.6
18.1
30.68
32.68
22.58
21.11
21.59
17.95
22.58
22.99
19.13
23.32
17.72
15.25
25.05
21.59
20.66
20.05
22.27
16.55
24.3
24.54
16.7
21.1
17.57
16.68
43.03
21.04
18.26
15.57
16.94
13.74
25.97
20.17
18.07
16.7
15.05
16.53
15.56
21.95
22.6
21.57
17.25
15.31
16.03
44.04
16.55
15.98
16.12
14.09
12.63
34.47
22.49
17.68
18.75
16.5
17.08
15.17
21.17
14.04
15.57
20.9
21.07
15.44
25.01
22.17
17.71
21.81
15.58
15.44
37.67
19.75
22.33
55.94
41.23
25.68
19.92
58.15
41.6
51.31
39.58
18.22
22.36
21.13
54.51
20.29
22.13
20.8
22.53
19.6
23.56
19.02
21.83
26.62
20.47
19.06
17.13
20.35
21.98
20.25
18.64
19.73
18.08
24.41
19.15
20.88
20.54
17.76
19.07
23.41
18.66
21.44
18.05
16.54
15.23
37.86
19.19
19.23
15.6
15.28
16.77
33.93
17.65
20.09
16.11
13.57
17.04
23.1
23.04
18.83
17.08
14.21
16.82
16.92
18.11
19.24
24.25
16.87
14.57
14.92
15.22
40.91
17.59
26.93
14.52
18.08
22.71
18.07
18.11
23.6
15.06
15.05
14.96
22.58
20.08
40.68
37.21
22.12
18.59
22.3
31.93
10.97
9.82
12.76
20.13
20.58
15.25
10.71
21.26
24.86
23.1
21.44
30.07
17.41
25.06
36.23
20.31
21.8
15.22
18.2
14.99
20.55
20.18
20.09
18.46
19.23
18.04
23.56
22.14
16.57
15.68
14.49
14.84
14.09
33.22
19.31
25.62
18.17
18.06
14.06
22.29
24.39
19.61
16.61
17.07
14.53
35.12
18.15
15.44
14.22
14.2
14.56
15.04
26.38
21.6
16.03
15.46
17.08
15.05
15.16
23.33
20.01
19.14
16.03
14.31
16.1
15.05
21.62
19.66
23.93
15.06
15.57
17.29
35.91
27.23
15.53
16.38
13.55
14.03
14.08
20.59
37.87
15.13
14.56
13.7
9.13
21.57
21.06
22.89
11.13
9.04
10.03
10.03
8.52
8.51
22.17
26.02
11.64
10.67
11.52
12.07
10.12
10.64
14.55
30.04
16.3
17.74
16.09
14.64
13.35
23.23
20.08
21.55
16.63
14.1
15.14
14.24
24.51
32.22
19.15
15.07
17.09
12.06
14.55
26.66
17.54
26.58
20.5
14.33
14.02
25.07
21.46
19.25
15.53
15.59
16.8
16.05
20.07
20.66
19.1
19.07
19.77
13.25
21.72
21.01
25.19
21.85
17.0
14.02
17.57
32.61
18.07
19.57
18.22
21.57
29.37
31.27
19.57
29.08
17.57
23.42
27.62
20.56
24.34
14.61
12.55
80.22
21.08
21.1
20.11
32.46
24.67
17.55
24.24
43.32
25.44
21.94
21.52
22.23
33.26
21.81
22.14
17.35
20.63
16.31
21.76
18.88
22.58
19.34
47.82
19.02
17.03
17.06
18.28
22.12
20.34
18.62
17.34
15.02
15.77
14.62
17.81
19.76
19.61
14.05
16.28
14.7
16.51
18.16
20.71
19.07
21.93
13.69
15.78
16.22
20.71
18.28
18.31
14.75
17.34
13.64
15.5
21.28
20.4
22.91
16.16
15.17
14.95
14.06
19.1
17.09
23.26
14.67
17.8
14.73
16.7
25.2
19.83
18.22
15.1
13.22
16.92
15.7
43.74
16.26
13.89
17.48
14.14
17.11
19.93
23.52
19.01
17.07
13.31
19.11
25.7
20.09
22.67
28.24
17.02
14.18
22.71
18.07
19.61
20.1
19.67
14.6
15.39
19.07
21.21
25.7
26.65
69.48
50.57
23.09
31.6
22.11
36.07
21.08
24.57
31.92
25.44
31.08
34.38
30.21
33.74
28.41
26.58
33.42
24.06
22.46
22.06
19.78
24.64
22.62
31.43
23.68
21.55
29.86
24.2
23.14
25.76
20.01
17.65
21.09
52.36
19.63
20.67
17.58
38.45
19.57
24.07
19.95
20.06
18.17
21.61
22.61
32.69
20.08
41.08
55.45
19.21
62.85
19.27
18.76
21.74
35.97
51.43
19.08
19.14
20.08
55.31
18.28
17.79
18.42
30.79
50.25
21.3
22.8
20.17
49.32
15.6
39.58
28.73
16.84
19.68
23.41
21.19
30.79
14.93
14.69
26.11
20.01
18.05
29.91
29.71
23.16
28.88
16.08
14.55
13.09
14.19
28.72
16.58
21.8
25.97
23.61
32.05
30.12
16.03
18.28
12.15
19.3
20.68
35.73
14.58
16.49
15.25
20.51
25.54
18.16
23.08
19.92
20.82
41.66
21.58
19.83
18.28
21.28
31.1
42.33
19.55
21.98
34.8
39.15
21.16
21.72
20.08
17.38
23.97
20.62
22.91
29.98
19.08
18.87
37.4
20.49
23.54
16.57
17.37
24.24
23.5
19.84
19.56
17.06
19.07
24.09
26.16
22.02
18.38
17.68
17.1
22.82
21.57
31.84
20.83
15.96
24.5
21.09
21.08
20.73
20.24
16.94
18.86
19.07
21.09
19.58
19.05
19.17
17.58
23.09
18.66
20.99
21.71
20.38
31.52
22.84
20.75
20.56
17.92
18.06
22.77
28.01
18.08
20.07
16.12
20.57
22.42
23.1
22.63
22.55
19.17
35.73
18.96
20.47
20.24
16.14
17.89
39.29
17.56
35.44
17.66
19.13
20.09
34.6
20.08
19.08
17.53
15.27
23.6
20.71
22.06
20.65
20.09
17.56
35.65
21.65
34.23
17.54
17.73
25.5
22.41
20.44
24.51
18.21
16.67
22.61
22.1
18.33
19.07
15.86
16.19
16.11
19.7
23.22
20.76
16.53
16.57
15.36
24.12
25.85
24.3
18.85
56.97
22.07
22.63
19.88
22.26
22.79
23.91
22.62
20.69
21.18
20.85
22.32
20.76
17.92
20.02
22.43
31.23
21.13
20.1
17.22
17.18
28.2
22.65
35.18
17.56
19.74
23.57
34.15
18.81
16.42
17.28
31.58
20.77
20.31
21.12
17.55
27.55
21.9
27.08
17.1
19.14
47.64
12.36
14.8
15.75
22.24
17.67
14.56
12.0
15.96
11.2
15.72
22.25
17.76
20.83
23.73
15.51
15.45
19.57
21.11
30.82
26.46
35.25
16.87
18.69
32.54
29.74
7.74
9.02
22.54
30.03
17.2
12.7
13.47
11.6
12.03
13.82
23.11
18.82
20.12
19.55
35.6
35.33
15.92
12.41
10.6
13.28
11.18
22.46
16.56
21.59
33.74
35.44
22.7
14.65
21.49
20.34
16.49
10.93
14.13
20.55
22.39
18.98
30.57
15.09
12.52
21.21
18.32
19.55
23.34
13.04
11.67
15.04
17.58
18.57
29.08
14.25
11.79
11.08
11.12
13.11
22.31
20.91
32.23
13.2
11.55
10.56
26.72
19.73
22.76
23.84
11.21
11.11
11.14
33.54
19.38
9.51
12.02
13.03
15.13
12.07
12.52
18.12
18.85
19.54
12.57
12.04
13.68
12.55
12.85
17.69
21.25
21.3
34.03
12.22
13.14
24.94
21.2
16.02
12.04
13.02
10.54
13.05
11.58
31.13
19.54
16.59
14.71
11.67
9.57
14.04
22.34
25.58
19.05
19.97
12.4
10.54
14.54
19.67
26.36
14.66
10.03
13.54
12.54
10.54
11.7
21.57
31.64
14.04
12.56
11.74
13.01
13.08
21.55
21.17
21.63
18.87
13.05
12.57
11.03
10.03
24.61
18.15
20.07
11.84
12.03
13.62
10.52
29.75
14.78
20.15
26.59
12.26
10.03
17.3
26.07
16.03
16.04
10.97
13.54
11.38
10.72
13.1
20.56
26.65
14.03
10.24
13.18
11.53
12.03
12.02
24.1
21.44
17.08
13.57
10.63
12.15
10.69
19.9
14.67
21.49
13.17
10.09
11.84
11.43
11.24
14.78
21.13
32.46
13.7
11.59
9.61
12.79
10.99
16.09
21.66
20.6
20.06
14.41
17.37
14.34
20.09
21.1
16.02
32.12
13.24
12.23
23.13
20.07
10.62
36.72
15.1
24.76
16.05
13.34
11.54
26.57
19.28
18.27
31.71
23.83
38.57
20.11
22.73
14.58
12.1
14.31
12.71
20.32
19.18
18.86
16.79
16.74
13.48
14.26
32.71
20.55
16.84
13.21
13.94
15.23
10.52
17.28
20.93
19.97
22.49
17.37
15.71
12.28
20.64
27.85
18.82
13.01
13.25
10.14
14.88
21.97
19.34
18.05
16.2
12.37
12.56
14.64
12.6
37.47
26.67
14.52
15.89
12.11
14.3
23.34
21.85
21.63
16.56
11.53
16.54
11.02
23.5
20.92
16.16
14.74
15.17
11.03
12.17
13.54
13.04
21.59
20.69
18.69
13.41
13.1
14.71
38.62
18.49
13.1
13.31
11.1
14.47
13.66
25.29
17.31
19.55
22.59
12.05
13.65
12.26
16.28
17.56
20.09
21.33
18.18
14.18
18.56
36.61
17.33
11.6
13.49
13.54
28.12
35.06
15.75
13.33
13.54
14.55
14.03
33.3
19.47
20.76
15.29
12.03
15.41
12.36
19.93
28.44
16.15
13.55
16.76
12.77
26.08
16.3
23.84
16.54
10.9
16.76
15.12
22.81
22.27
21.55
14.31
15.02
14.05
11.42
15.45
20.57
22.57
19.62
20.76
19.46
26.16
20.93
18.92
16.23
13.37
10.62
9.62
12.17
27.16
18.24
19.14
24.37
12.67
13.72
14.59
23.57
18.79
22.0
13.71
11.15
13.96
14.16
20.58
17.66
37.43
10.04
13.13
16.32
23.05
19.99
34.9
11.6
11.6
10.02
12.63
26.61
21.74
18.35
19.52
22.06
15.24
11.33
22.57
25.86
28.09
21.07
17.26
21.05
21.85
18.81
17.56
16.22
15.65
17.59
24.73
44.05
17.64
14.57
13.62
20.41
22.11
21.23
36.98
13.62
18.08
23.88
21.32
22.51
19.42
17.59
17.81
22.52
21.1
17.74
17.54
13.56
15.53
15.34
42.79
20.99
15.65
15.7
14.49
26.01
21.04
19.54
27.8
16.73
14.06
19.57
21.57
19.56
20.03
19.54
14.24
14.07
36.35
24.99
20.4
21.22
18.21
13.58
22.69
20.3
21.12
22.59
18.25
27.57
20.15
40.89
15.12
23.61
12.55
39.87
19.75
19.88
13.76
17.27
16.49
23.42
36.54
13.12
14.47
14.33
14.55
21.24
20.75
21.87
15.51
16.17
14.29
13.03
26.13
27.51
21.79
17.31
15.79
13.8
37.07
20.01
14.75
13.24
14.87
15.39
18.97
21.68
20.1
20.67
18.55
17.17
17.21
22.23
22.76
24.17
19.17
16.24
21.3
24.58
18.95
20.63
18.21
19.0
18.63
23.58
31.79
20.74
14.13
17.9
12.46
27.13
17.11
19.33
16.93
17.53
13.03
45.66
18.29
17.39
12.55
12.77
16.04
17.62
34.97
20.95
15.79
15.88
16.12
14.1
24.25
20.9
18.73
41.54
33.67
32.14
24.85
23.55
23.94
33.1
22.6
19.91
15.58
19.41
21.27
24.84
19.7
17.78
30.53
23.08
19.89
20.36
19.06
14.04
14.52
17.06
22.74
20.72
18.92
15.03
15.98
15.41
22.06
22.62
25.66
14.73
15.22
14.17
15.52
13.83
26.09
19.52
19.25
15.12
17.14
12.81
25.16
22.06
20.2
22.28
18.24
17.2
23.38
18.81
20.37
21.06
13.18
16.95
23.96
20.32
34.86
14.58
14.92
13.14
39.23
23.68
23.33
13.98
16.32
16.42
20.28
21.24
21.38
14.56
15.03
13.15
15.8
33.65
20.81
15.03
13.54
15.41
15.49
36.13
19.75
25.54
16.62
16.03
17.57
20.11
21.09
22.93
16.61
16.1
14.02
18.37
22.74
19.86
20.07
17.04
15.94
13.63
12.54
22.99
19.97
19.03
14.53
15.94
13.64
19.57
22.32
22.91
20.19
17.16
15.04
15.05
17.56
44.5
15.66
14.72
16.96
16.56
22.05
26.79
21.44
18.46
15.99
14.28
24.07
22.09
19.06
15.91
18.16
16.57
13.55
24.63
28.1
16.58
13.54
15.69
18.57
36.38
19.35
14.14
17.19
13.62
11.63
14.24
35.37
22.19
16.18
16.03
13.63
14.03
23.66
19.63
25.87
16.38
14.54
15.02
15.24
20.55
18.08
31.08
20.77
14.3
14.71
36.44
16.59
19.11
18.7
13.54
14.64
15.71
23.63
21.09
20.97
20.71
18.23
27.2
21.24
22.07
23.52
15.69
15.27
31.71
19.26
18.69
15.1
15.17
12.03
15.43
30.13
23.61
21.07
25.5
15.21
17.38
21.09
19.21
18.42
22.46
14.52
16.71
29.9
18.72
21.44
13.04
12.54
16.51
15.03
26.57
23.62
20.7
16.02
16.63
18.67
22.77
26.4
19.28
14.12
16.18
16.41
12.19
22.24
24.54
18.87
13.73
15.94
12.54
15.06
22.61
21.19
22.99
20.58
17.44
14.03
22.6
28.32
16.87
15.34
15.06
11.94
14.54
24.6
19.1
21.05
15.06
15.06
14.18
14.89
24.21
19.63
19.45
13.03
16.17
23.47
19.97
19.29
23.45
17.37
16.33
17.23
13.66
23.54
22.7
22.55
15.54
14.95
17.45
21.55
23.79
18.56
14.59
15.54
15.05
13.53
23.74
19.16
28.51
16.49
15.17
13.74
23.33
19.99
21.64
18.06
17.04
15.03
14.82
21.92
19.14
22.43
15.73
17.55
13.07
14.4
24.57
20.04
20.56
18.16
14.49
11.7
16.22
13.96
22.54
21.03
19.97
16.78
13.78
14.89
24.84
20.07
23.05
13.9
15.7
12.07
19.09
21.06
20.06
24.54
18.06
14.54
17.03
22.62
20.87
21.72
16.55
14.53
15.72
14.14
44.45
15.53
14.52
16.05
37.86
18.88
18.64
17.06
12.52
21.21
28.75
24.09
21.36
23.57
12.53
15.74
26.93
19.88
19.67
20.06
16.59
15.15
29.15
18.14
20.26
31.76
16.81
13.23
25.62
20.45
21.78
14.71
17.49
18.32
16.04
22.81
18.06
22.26
18.72
13.64
16.58
13.02
16.14
24.75
21.56
18.2
15.2
16.29
17.63
35.5
20.33
12.6
13.41
16.01
14.63
22.46
20.94
19.66
16.26
16.82
14.72
29.64
18.16
19.2
17.43
14.13
15.15
15.36
27.22
19.5
22.56
17.06
15.98
19.24
13.7
23.23
20.91
19.14
15.49
16.1
13.6
22.6
24.34
20.09
18.51
14.75
16.1
12.26
23.07
30.99
14.75
16.94
13.62
20.02
25.93
17.64
30.07
15.52
13.56
11.59
14.12
22.59
19.65
35.36
18.3
11.95
13.35
15.12
22.09
19.63
19.62
21.55
16.12
15.82
43.57
21.08
16.04
17.53
14.57
42.1
18.12
15.76
15.47
12.74
14.15
14.05
24.23
22.04
20.78
17.87
31.63
25.98
26.73
20.29
12.84
20.56
14.43
18.55
21.67
33.35
16.33
14.66
16.83
14.93
15.84
32.91
22.03
17.88
14.59
12.76
40.63
18.36
14.76
15.03
14.1
15.12
38.12
24.57
15.27
16.05
13.5
19.58
43.99
19.42
24.58
14.33
15.52
22.82
18.87
21.2
17.69
20.57
16.79
38.52
19.44
20.82
22.19
34.81
25.08
11.51
13.84
24.57
22.36
21.13
25.06
31.25
20.78
22.42
17.8
19.73
20.54
48.4
24.3
20.29
24.7
13.64
13.54
37.81
15.86
24.62
15.5
16.06
13.55
42.64
17.58
11.04
10.7
13.55
12.51
10.53
9.03
23.54
31.29
19.19
13.45
16.71
10.6
10.35
18.39
19.06
21.14
15.54
11.7
13.19
10.63
10.79
24.84
17.05
23.05
19.21
19.56
54.6
20.29
19.84
14.97
20.3
23.36
18.72
21.21
19.66
17.96
29.67
18.86
15.33
32.5
14.55
13.03
22.78
19.58
20.26
16.72
14.86
15.68
17.05
24.03
22.23
19.93
17.32
14.12
12.02
17.18
24.86
23.76
19.91
14.94
13.95
24.91
23.15
25.26
19.14
13.49
12.79
12.11
23.83
20.44
30.64
17.08
13.63
17.01
19.03
24.76
18.22
20.9
13.07
14.14
13.11
20.57
23.35
16.64
22.18
18.68
18.8
12.66
32.4
17.73
17.15
14.22
12.03
14.35
14.69
36.31
20.64
14.62
11.75
13.21
13.92
12.71
31.1
19.02
18.54
12.66
10.14
14.5
11.11
38.14
28.57
19.15
13.54
13.18
13.53
26.09
27.28
21.56
18.81
14.03
11.11
24.09
17.83
22.52
19.22
20.29
13.02
10.76
14.11
26.21
26.41
14.21
14.55
13.05
11.04
23.74
19.91
17.82
17.12
11.95
17.23
14.54
22.46
17.09
20.69
19.06
11.53
16.6
14.05
14.67
18.58
22.1
21.05
23.52
25.32
24.43
17.25
13.19
15.53
12.1
13.26
39.89
20.03
15.52
17.41
13.23
13.51
27.7
21.7
15.54
15.84
12.97
10.03
9.03
12.31
14.53
19.09
21.28
18.68
12.84
15.55
12.02
11.1
20.24
17.57
38.65
17.57
24.62
33.33
20.28
36.42
20.3
13.87
18.32
25.9
20.77
19.87
31.19
21.78
30.49
19.45
13.62
13.52
20.73
24.05
18.64
10.53
13.03
12.51
11.63
15.8
33.67
17.03
14.61
13.67
12.02
14.11
13.45
19.17
33.46
15.05
13.64
12.16
12.71
15.32
18.97
24.2
19.99
14.39
14.67
13.52
27.52
18.24
20.68
14.86
11.51
11.04
14.29
11.42
19.11
20.55
17.59
19.34
14.04
12.06
14.03
11.02
23.96
22.24
16.43
20.84
19.08
13.04
23.28
19.71
33.43
14.38
12.13
11.17
11.61
33.21
18.22
15.54
13.53
14.04
12.02
10.01
16.55
32.42
18.81
13.38
11.29
15.48
12.03
41.67
14.41
12.65
12.75
10.12
11.03
15.53
13.47
22.07
22.6
17.1
13.15
9.55
16.25
12.88
33.83
17.1
13.28
14.58
14.06
13.04
13.59
21.97
32.03
15.69
13.11
12.11
12.13
11.18
12.06
21.15
17.81
31.56
16.69
14.05
10.72
34.67
21.27
21.18
12.02
11.02
13.06
14.19
22.06
21.03
34.62
14.59
12.67
10.57
10.51
23.45
17.03
21.0
15.5
10.76
13.31
12.54
12.76
22.08
23.66
19.55
15.59
14.64
12.54
38.28
17.04
16.02
11.52
14.09
11.13
10.02
12.56
13.73
22.12
34.49
14.06
9.88
14.78
10.62
20.27
19.81
21.1
24.05
13.05
12.02
15.03
18.04
32.55
15.17
11.65
13.33
12.32
10.71
44.91
17.25
12.34
13.7
13.56
14.36
13.22
40.81
17.31
22.22
14.76
11.53
13.54
12.63
23.66
34.92
15.79
14.13
11.68
12.37
13.15
22.39
22.92
16.32
10.03
11.18
14.27
13.76
38.43
13.52
13.03
15.05
11.43
12.52
13.06
12.13
19.57
19.62
17.78
21.03
20.22
11.04
37.97
16.11
19.82
50.02
15.75
16.68
13.66
25.61
22.22
19.75
17.27
16.63
12.02
18.65
21.82
22.08
26.66
17.97
13.65
16.03
24.08
17.09
19.08
23.6
14.05
16.09
39.1
14.14
15.32
13.22
15.27
12.24
14.25
19.56
23.19
23.77
14.79
16.38
13.88
16.23
17.76
26.46
15.72
14.69
12.66
8.03
8.5
9.54
25.31
19.98
18.22
23.29
14.15
11.66
12.88
35.62
16.68
14.28
11.04
14.52
11.04
10.22
13.81
36.56
15.42
20.29
19.16
13.55
10.8
24.86
19.52
16.88
15.64
11.76
11.04
12.59
12.02
30.06
15.52
17.54
14.05
12.8
12.03
11.02
11.53
22.18
18.22
18.54
18.07
17.35
10.81
13.03
24.51
17.19
21.62
13.38
12.94
10.25
12.6
36.21
16.64
11.67
14.05
10.04
11.04
11.17
12.18
21.9
48.55
11.67
12.26
13.73
14.18
20.88
18.13
24.03
22.2
13.18
12.55
12.54
23.58
19.92
15.08
13.57
10.03
13.03
11.53
10.14
14.15
23.82
16.76
21.32
11.48
13.09
11.14
12.04
28.09
19.09
14.06
12.56
11.03
11.52
11.55
12.55
13.02
20.08
20.51
20.63
11.49
11.96
11.97
10.51
19.88
19.15
27.27
11.15
11.75
11.03
12.04
13.66
27.12
25.56
13.13
9.03
15.25
9.65
9.02
13.65
17.69
30.52
15.56
10.67
14.28
11.45
13.8
12.14
30.14
16.3
17.03
10.8
9.43
12.77
12.54
36.78
16.68
24.13
13.26
10.62
12.98
12.51
27.27
17.06
21.94
14.57
10.15
14.0
11.07
11.02
14.38
18.59
21.22
19.24
11.55
11.06
12.55
10.04
21.81
22.68
20.67
12.56
9.84
14.39
14.54
20.56
20.8
19.26
13.78
16.05
13.05
11.65
14.02
18.81
38.62
15.61
13.24
11.24
14.5
35.96
16.54
12.6
14.27
14.35
11.57
11.7
15.16
19.99
18.0
20.37
13.28
13.18
13.55
10.04
12.04
22.34
21.05
20.33
12.81
12.68
10.85
13.0
36.58
14.37
14.74
11.18
13.58
12.06
9.04
15.06
23.17
25.12
21.79
20.08
12.03
12.03
27.11
35.18
13.04
15.58
11.04
11.54
14.06
19.58
22.05
20.28
13.03
11.14
10.6
13.03
10.01
18.32
36.41
16.85
10.02
9.01
14.19
12.52
23.2
16.56
32.59
19.86
34.14
23.58
18.57
32.8
15.56
12.65
11.05
17.82
31.9
16.97
18.14
24.7
17.3
14.07
42.59
18.28
21.06
25.5
20.97
23.12
20.17
30.87
14.21
16.78
20.79
27.1
15.53
32.35
27.62
24.59
18.1
15.19
37.6
34.4
21.53
17.56
21.09
33.85
30.6
30.14
21.25
22.55
18.11
32.93
18.08
29.25
18.99
26.38
53.47
17.05
25.34
14.46
14.19
12.16
14.64
19.87
19.13
18.93
21.97
20.21
13.72
15.04
23.63
22.73
20.92
14.27
12.22
15.32
12.63
19.0
19.82
20.09
26.31
15.32
16.4
21.78
35.05
12.92
13.02
14.13
11.16
10.14
47.2
18.66
12.52
11.71
13.02
14.03
11.54
18.88
38.25
14.17
12.83
13.19
15.83
14.39
26.65
19.22
17.03
23.54
12.16
14.54
19.65
17.72
20.88
19.37
23.06
14.26
23.41
19.13
18.81
20.17
10.62
12.03
14.13
9.9
34.09
18.56
19.24
14.68
13.27
13.24
13.08
38.62
16.21
20.13
12.74
13.73
11.03
14.03
27.37
20.06
13.98
16.82
13.54
12.01
12.11
18.58
21.2
18.96
15.57
12.38
11.9
10.6
33.75
20.58
16.19
14.03
11.79
13.12
14.62
25.65
19.56
16.27
15.28
13.04
12.87
13.12
10.67
21.63
30.14
17.82
16.74
12.58
11.58
12.13
27.06
29.48
16.31
14.19
13.65
11.85
12.75
19.9
21.19
21.53
14.47
11.52
14.67
12.46
13.23
19.41
32.65
11.84
12.82
10.01
10.04
12.79
35.07
15.57
17.61
15.62
13.34
12.11
15.63
34.52
20.44
13.65
12.19
11.82
10.11
12.88
20.47
20.08
22.06
15.67
12.52
13.04
13.04
13.04
43.41
13.57
12.04
14.55
11.88
11.2
14.43
20.63
36.77
13.95
13.88
11.23
13.54
13.03
24.11
18.04
21.67
24.17
13.34
11.93
14.91
22.56
20.06
18.66
13.28
10.01
13.52
22.6
16.04
23.07
13.86
13.18
11.15
12.19
21.3
23.08
17.57
13.53
12.03
14.89
11.66
40.18
16.54
17.41
12.7
11.64
11.04
14.57
14.57
21.57
29.08
15.85
21.77
11.96
13.05
20.14
20.72
23.4
21.11
14.01
13.57
14.32
21.1
19.23
24.09
11.15
9.52
14.15
12.7
15.27
21.85
18.58
24.18
14.28
14.18
12.64
33.83
19.22
19.96
18.94
15.18
12.03
10.03
24.11
21.3
30.12
17.53
13.51
14.27
10.19
24.91
19.79
19.49
28.15
13.71
12.53
22.82
19.14
22.85
18.04
62.25
31.63
20.41
32.97
60.81
23.29
28.42
83.69
22.41
38.85
18.86
20.83
16.84
15.37
47.64
17.19
17.18
17.37
15.07
16.59
22.11
20.1
22.11
17.61
45.24
19.64
24.68
47.22
23.42
20.99
23.57
19.08
16.84
18.55
22.33
18.32
26.62
20.0
21.69
18.22
22.1
34.65
18.05
18.11
16.8
14.05
40.86
19.1
14.78
16.26
15.19
16.28
18.58
18.46
20.69
17.15
22.5
39.11
32.34
18.95
20.26
15.12
16.71
19.07
20.35
14.85
16.62
31.21
15.51
34.96
17.03
14.37
13.54
14.03
8.01
10.52
8.53
10.04
17.82
32.57
17.04
12.27
11.51
9.01
10.35
21.21
19.61
19.03
19.88
23.08
11.97
12.11
21.46
21.62
24.55
26.74
10.51
8.13
12.45
20.16
21.6
20.79
15.54
13.5
13.88
11.05
45.38
17.46
12.05
13.14
11.59
11.52
11.61
15.18
24.07
34.09
19.55
13.89
13.04
13.02
21.25
33.34
15.43
14.72
12.51
11.28
16.14
27.16
17.4
19.25
21.38
13.75
13.32
13.56
27.21
16.55
19.14
25.68
11.62
13.42
21.99
20.68
20.34
30.52
15.22
13.55
19.56
20.8
21.8
19.13
21.06
13.66
14.05
34.49
18.29
30.11
14.16
11.59
14.64
23.49
18.31
52.93
45.24
27.36
22.1
19.59
30.05
18.56
31.59
17.61
21.56
19.25
29.32
22.78
16.7
20.1
19.06
12.48
15.33
20.57
16.11
20.14
21.25
17.71
11.27
14.01
18.59
17.57
21.07
21.06
24.12
14.74
20.69
25.64
27.27
18.25
12.54
13.04
12.84
15.27
20.06
17.26
19.78
13.11
13.13
15.43
35.3
17.07
30.69
14.0
12.06
47.36
16.74
13.36
10.62
13.18
11.77
10.63
22.91
29.42
16.19
17.36
13.15
12.58
10.04
14.53
25.63
20.05
19.67
12.14
11.68
13.18
14.53
21.09
32.44
19.46
14.1
13.04
13.02
11.42
15.14
25.96
17.67
18.22
24.88
13.71
40.36
16.53
11.3
13.7
12.65
13.52
13.76
19.12
30.77
15.55
11.9
12.07
11.89
13.55
33.39
19.25
17.33
13.9
13.09
12.02
12.68
14.25
40.58
18.92
12.77
10.52
14.48
12.58
35.7
18.56
28.34
12.05
14.12
12.51
14.71
21.57
18.1
17.14
15.16
12.51
13.29
11.58
13.63
20.76
19.55
20.7
25.3
13.04
12.56
11.57
32.14
15.55
18.14
19.62
15.27
13.13
22.71
16.05
22.16
30.76
14.22
11.75
23.76
17.68
23.7
20.75
14.06
14.32
11.72
24.15
18.92
18.14
16.31
14.88
11.77
12.08
22.83
37.67
16.57
11.57
13.06
11.93
12.06
20.95
33.68
17.57
13.57
13.81
10.52
11.13
29.58
19.09
20.02
13.65
16.1
11.16
16.81
34.09
17.15
15.85
13.12
13.1
11.89
12.03
36.05
16.09
24.59
15.39
11.24
10.07
14.54
36.09
16.23
20.17
13.53
10.02
12.61
12.92
20.82
31.91
15.31
21.72
63.39
24.19
23.09
19.93
53.06
41.23
22.06
20.12
22.33
59.58
21.78
20.03
20.07
58.92
27.59
19.31
50.69
35.19
17.58
53.33
25.6
25.57
22.09
51.78
20.72
18.75
18.17
39.6
19.12
19.53
18.83
19.36
20.12
27.85
18.4
16.56
15.84
24.74
21.0
17.51
21.05
22.56
13.58
17.92
21.56
21.56
31.72
16.61
15.7
23.17
37.83
17.37
15.7
16.2
14.05
23.1
21.1
35.4
17.96
13.52
39.11
17.87
22.35
15.68
14.04
17.13
24.67
19.17
21.3
16.54
14.55
12.53
11.6
8.68
16.48
18.61
19.8
19.24
18.54
10.02
8.51
10.7
33.59
17.98
23.16
11.03
9.01
10.45
8.66
12.67
34.29
11.99
28.71
13.54
12.04
15.55
26.34
19.37
22.46
19.21
14.04
12.02
13.34
32.58
17.06
20.3
22.0
17.45
15.42
21.58
20.09
16.53
19.73
15.12
13.89
14.76
22.66
16.75
21.42
16.55
14.08
11.03
10.52
42.74
16.83
20.16
13.18
13.14
13.65
10.01
20.6
20.48
18.83
17.55
21.51
16.06
11.6
35.05
17.23
19.19
13.38
13.03
13.99
12.13
20.0
16.45
20.14
20.34
24.74
15.59
27.78
21.53
22.73
17.93
13.22
12.58
14.13
22.23
29.49
16.61
22.59
13.06
16.79
19.03
21.65
15.83
31.09
12.04
14.2
13.03
19.28
21.19
32.6
13.57
12.04
14.06
11.04
35.92
18.67
19.29
21.35
13.13
13.6
23.14
19.86
20.01
17.75
17.94
11.56
33.11
19.85
23.66
14.59
11.11
14.62
9.82
10.53
15.06
25.19
20.31
19.79
29.51
27.16
18.56
36.47
12.02
10.04
14.63
10.21
36.74
14.17
17.18
13.31
11.16
10.87
12.65
13.71
22.11
26.12
14.46
12.11
9.51
13.22
13.03
24.31
17.56
21.14
16.57
12.25
12.15
14.1
11.79
21.99
25.62
15.56
12.57
10.13
12.03
12.53
14.51
21.09
16.54
19.2
13.04
11.2
14.2
10.69
24.49
17.9
32.98
17.38
12.09
12.04
12.62
20.83
21.31
13.98
16.55
16.02
16.86
12.31
18.49
25.08
16.31
13.55
14.23
13.59
13.02
33.26
16.03
15.56
12.54
13.04
11.03
14.17
11.13
30.22
18.59
16.73
15.1
10.03
16.35
11.25
22.35
20.28
19.47
14.67
13.39
13.95
11.22
12.23
20.24
18.09
20.89
15.69
12.54
12.04
10.06
14.08
19.27
20.06
34.19
14.73
12.02
13.97
16.34
20.56
20.07
17.71
20.85
17.24
12.24
20.34
20.07
42.5
59.53
20.57
22.9
21.68
53.98
46.34
31.64
35.66
17.54
18.26
23.78
39.85
35.41
20.29
20.39
32.4
55.93
18.57
23.05
44.83
20.77
19.95
19.15
16.56
21.58
20.11
33.63
22.1
23.1
31.19
16.24
16.73
28.35
15.78
20.8
16.04
10.03
11.03
8.0
10.04
11.03
38.64
13.64
9.53
9.0
9.53
10.59
9.59
11.14
23.88
17.99
21.24
15.73
10.09
8.08
12.12
10.7
25.65
22.13
32.31
14.74
14.37
13.24
29.62
20.76
15.12
16.56
22.65
18.09
14.24
16.22
13.03
16.56
26.1
20.61
18.33
16.05
13.18
15.68
15.78
21.1
18.97
19.27
16.69
13.04
14.03
13.55
24.59
17.43
16.18
14.85
14.1
16.04
12.7
22.07
23.27
16.63
19.06
13.35
14.53
13.56
32.82
16.56
16.35
16.77
11.51
13.93
12.13
21.25
16.49
19.73
19.57
14.04
15.17
10.6
24.56
20.61
22.31
15.8
13.58
13.76
12.56
30.06
20.67
17.53
18.02
14.03
16.04
11.39
22.0
23.09
18.04
14.14
14.89
14.19
12.35
12.55
19.83
20.36
20.13
16.04
14.75
11.66
17.03
27.59
20.07
19.68
17.72
14.11
13.8
26.32
21.73
18.1
14.04
15.04
13.3
15.87
24.58
18.57
18.63
14.55
13.04
12.55
13.03
38.11
16.45
16.6
13.73
14.9
11.73
16.23
24.27
18.07
23.06
14.04
15.54
14.56
16.08
19.72
20.68
20.0
21.9
15.17
11.06
16.63
20.55
26.29
17.73
23.75
15.57
14.03
19.06
33.11
18.08
14.61
15.63
12.02
18.63
20.07
27.92
17.76
13.35
13.63
11.56
48.44
15.04
15.62
13.55
10.87
14.56
13.09
20.05
20.06
24.63
16.03
14.53
13.32
13.03
38.3
17.42
18.33
12.75
11.7
15.93
15.06
22.41
20.72
19.06
29.07
15.06
18.06
17.72
20.14
19.22
17.77
15.73
15.69
13.22
24.93
20.34
17.58
14.45
13.72
15.7
11.96
25.5
18.7
18.72
19.51
15.98
14.79
13.15
19.68
32.58
18.04
34.16
10.53
11.55
10.15
16.27
16.55
24.07
19.04
8.58
10.58
7.36
10.04
17.77
21.73
21.9
33.78
11.45
8.85
21.07
22.22
19.85
12.46
10.59
7.39
10.68
9.61
9.01
12.7
26.81
21.32
21.48
13.04
10.62
10.22
16.99
21.61
18.53
18.16
18.31
8.51
8.03
11.02
10.04
14.74
28.04
19.42
19.8
10.16
8.88
9.65
20.73
21.64
18.86
10.14
7.95
10.12
11.04
8.12
9.52
22.24
16.84
19.95
22.12
10.68
10.11
8.95
10.66
22.72
17.13
21.91
18.19
11.0
11.7
9.11
9.6
10.46
19.27
16.57
9.95
17.55
23.56
10.04
9.55
10.04
21.54
34.83
29.41
10.02
7.02
12.16
29.59
14.56
10.02
11.05
9.01
7.52
7.01
9.55
11.04
7.01
20.4
12.04
21.76
19.99
19.17
11.11
7.6
8.16
7.52
20.77
19.09
20.39
26.57
11.03
7.53
10.7
14.22
17.22
22.06
18.09
25.61
9.54
8.15
19.54
32.86
10.72
10.29
8.16
10.46
10.08
9.6
8.85
7.98
16.32
20.09
32.62
11.55
8.03
8.92
8.52
19.6
14.68
19.14
9.61
13.08
9.94
8.19
11.73
9.0
9.11
11.59
17.19
19.08
18.95
9.45
9.03
10.52
9.61
10.28
32.6
12.33
9.27
9.51
11.23
8.65
8.09
11.6
9.44
21.56
18.1
19.85
14.38
7.08
10.03
8.83
10.67
8.14
39.51
10.03
10.52
10.87
8.54
13.18
11.04
9.14
12.16
20.66
32.84
36.69
16.09
15.61
32.61
15.13
23.44
20.08
12.05
43.76
14.56
29.33
14.51
14.73
12.74
20.65
27.22
12.16
19.54
11.14
9.54
9.02
24.1
20.54
25.87
16.27
10.75
10.15
8.25
7.76
8.08
14.35
30.73
11.55
10.07
7.62
11.12
8.12
8.12
11.23
33.29
14.13
14.43
10.12
8.11
11.45
8.52
8.02
12.03
20.63
18.61
22.33
20.04
10.77
10.54
8.53
10.03
30.95
17.04
19.74
23.33
7.34
10.6
7.53
20.16
19.21
29.32
10.2
11.74
9.0
8.0
11.96
16.1
20.17
33.79
13.1
12.52
10.02
7.51
26.07
15.68
18.06
12.03
10.17
9.39
11.61
10.03
6.51
11.53
21.2
31.23
25.71
8.81
8.52
8.53
9.03
10.03
24.6
14.56
23.06
11.11
9.02
9.58
9.12
8.07
10.1
14.31
28.74
11.59
9.69
9.61
8.18
9.1
11.83
9.15
19.9
12.02
19.21
29.72
13.09
9.53
8.03
12.03
14.77
20.08
18.54
10.53
10.25
9.2
8.02
7.52
7.1
12.1
12.57
23.43
17.82
18.67
13.11
13.04
9.71
9.58
11.72
13.18
31.7
14.45
10.19
9.03
10.04
10.04
8.68
34.76
14.2
25.16
10.76
8.5
8.67
9.17
8.85
19.33
22.15
19.37
10.03
9.67
9.17
6.52
10.02
10.51
9.53
29.55
15.33
15.95
9.91
9.51
10.02
9.04
8.09
13.02
19.24
27.56
11.57
11.74
9.16
8.05
11.86
10.02
9.53
23.71
18.76
18.99
10.56
10.24
8.09
11.33
9.69
9.08
20.73
32.24
11.77
10.66
10.08
10.2
7.45
9.66
25.8
17.12
24.13
12.52
9.11
9.98
8.3
7.51
10.03
21.62
19.57
15.53
11.6
9.97
9.7
8.66
8.52
11.66
18.5
21.55
33.0
10.51
8.03
11.16
8.59
11.18
21.19
16.17
27.06
11.53
7.69
8.52
9.6
9.09
9.59
19.27
33.69
13.32
8.03
10.52
8.52
9.06
9.01
41.83
12.67
10.52
11.03
9.62
10.07
20.86
26.7
11.11
11.73
10.61
8.46
11.51
7.62
19.88
28.39
12.68
9.02
10.3
9.05
7.52
10.54
8.0
9.0
13.24
20.55
17.55
12.56
9.55
11.22
9.51
10.03
8.14
11.99
21.4
18.72
21.88
11.38
9.59
9.52
8.92
23.72
30.66
10.02
10.02
9.52
11.53
40.06
12.61
9.85
11.88
9.02
8.02
9.52
9.44
10.02
8.03
13.01
35.85
12.54
12.25
8.51
10.2
8.51
7.51
8.52
15.54
22.27
18.93
18.81
13.21
9.2
10.07
8.74
31.18
15.18
11.83
11.17
7.53
7.52
9.03
9.02
9.01
23.9
29.78
11.31
10.64
8.63
7.58
10.64
9.99
9.12
23.92
28.44
18.53
10.22
9.7
9.32
9.11
8.51
21.27
34.18
13.04
10.02
10.07
10.47
8.13
9.85
21.6
18.01
18.06
10.71
10.55
10.69
8.62
8.58
9.14
10.65
23.7
20.84
18.48
9.53
11.55
9.14
7.18
12.36
15.91
22.14
21.17
10.03
9.15
7.52
7.52
10.26
11.13
10.66
13.1
17.89
19.73
19.74
18.56
10.19
12.02
8.52
9.03
34.78
14.54
11.6
9.22
9.98
10.46
9.04
9.51
21.73
29.91
11.81
20.22
10.03
11.53
9.81
12.59
21.88
24.61
12.03
10.82
11.2
10.11
9.53
8.04
8.03
26.0
27.14
16.86
29.12
77.65
52.71
34.6
62.93
21.11
21.61
26.24
35.12
49.19
22.77
26.18
23.74
23.29
21.82
27.84
19.48
20.66
24.11
59.25
57.93
48.2
20.09
47.42
21.13
26.09
18.55
18.1
23.07
18.57
54.3
21.41
20.06
29.17
61.77
22.1
21.21
58.23
19.65
20.07
22.78
20.5
18.81
26.7
21.08
21.3
22.29
22.26
35.05
19.17
20.3
17.15
16.55
24.8
19.62
24.08
19.61
23.1
15.07
21.05
25.71
20.08
14.21
15.14
14.66
18.09
22.85
22.77
20.07
16.74
15.35
26.99
20.14
18.08
14.14
14.72
21.14
19.72
10.14
9.27
8.52
10.7
16.61
18.74
21.23
25.21
9.56
8.51
11.03
11.66
20.28
33.61
11.64
9.1
10.13
7.6
20.06
31.64
13.76
20.97
11.51
12.88
8.6
9.0
35.87
15.11
12.97
11.69
13.06
11.65
17.21
24.18
18.51
17.46
15.04
13.54
11.2
11.04
14.24
20.8
22.09
16.75
15.41
14.23
12.1
11.04
14.52
23.73
22.11
17.69
19.24
18.41
15.13
21.72
44.27
14.79
15.78
12.27
15.86
34.68
15.14
30.61
13.6
12.71
13.18
22.0
18.13
17.19
15.78
14.04
15.52
11.56
11.16
21.42
18.01
27.2
17.37
13.72
18.08
22.94
28.77
15.8
16.57
14.11
12.19
14.65
34.64
35.08
12.61
16.64
13.08
11.54
30.97
17.05
22.05
19.84
17.57
11.53
23.2
34.47
13.29
14.72
12.52
13.38
11.83
38.51
15.05
13.02
13.09
12.54
13.54
15.56
22.09
19.74
22.66
13.75
14.04
13.19
12.54
32.89
16.55
28.62
13.51
10.03
13.36
13.7
17.66
26.43
18.56
15.46
15.19
13.56
13.09
19.7
20.0
30.28
14.56
13.03
14.04
10.03
26.07
17.88
21.66
16.01
14.04
14.03
11.53
41.69
17.4
13.08
14.51
13.56
11.03
13.54
22.57
20.3
17.91
22.23
21.58
44.89
20.06
38.38
16.64
13.95
12.55
18.9
20.08
18.2
34.07
15.65
14.89
24.7
21.97
17.94
13.61
14.54
14.81
13.04
20.12
20.72
23.11
15.3
16.68
13.61
27.23
19.28
24.23
13.72
16.18
13.73
12.61
44.1
14.74
15.67
13.14
12.11
15.04
14.97
14.04
38.28
18.32
25.33
13.56
13.73
21.06
18.23
38.31
15.61
15.3
12.71
19.43
34.79
17.56
18.82
17.07
14.71
37.65
18.47
21.27
17.06
13.05
12.55
39.35
15.71
19.7
17.18
17.94
13.72
22.17
18.6
21.41
16.6
22.16
14.11
16.65
23.73
27.21
39.62
14.59
13.82
23.86
20.73
18.34
15.25
15.04
12.11
14.12
25.9
17.78
18.62
14.36
14.53
13.59
12.53
21.22
35.68
16.15
13.42
14.17
11.1
14.3
33.07
17.59
15.37
14.82
14.05
12.13
15.1
22.59
29.54
16.66
15.05
15.54
12.55
14.04
17.83
18.9
21.29
14.17
17.57
13.75
14.1
21.54
18.03
20.55
16.78
14.63
12.67
15.51
21.59
19.9
19.67
16.56
15.53
15.03
13.13
23.64
21.08
20.04
14.54
18.04
14.43
14.36
19.31
25.31
19.2
15.15
14.1
15.05
12.52
15.69
18.62
17.74
20.64
18.05
18.74
14.55
20.08
20.93
21.7
26.73
51.77
36.66
23.62
17.83
22.81
25.3
24.61
20.12
20.15
19.61
26.28
68.59
24.61
21.34
21.97
22.7
22.24
54.64
29.38
54.94
33.6
33.13
24.81
102.71
47.13
26.45
26.3
26.57
46.67
20.85
25.72
29.99
22.72
27.14
27.47
27.93
24.72
25.77
23.2
20.45
35.67
30.42
24.29
28.99
39.29
27.25
30.8
24.19
17.17
27.67
27.05
20.12
25.59
23.06
24.83
19.76
21.44
18.12
18.02
21.33
42.54
22.09
30.18
22.05
17.74
17.33
22.57
26.68
19.54
17.65
15.53
21.58
20.83
19.38
21.7
16.72
15.21
20.79
24.03
18.67
21.83
22.57
24.8
26.55
20.24
18.87
28.63
21.87
23.07
25.08
19.07
20.29
16.36
38.01
19.14
20.41
25.72
17.78
38.17
22.1
32.01
15.72
15.55
31.68
21.54
19.21
20.06
14.55
15.31
36.88
18.78
14.27
14.82
13.49
18.25
51.02
24.16
25.44
16.33
14.52
33.1
19.27
18.7
19.35
16.19
38.95
28.65
14.59
14.75
16.47
14.56
29.22
30.48
23.04
13.88
16.57
15.74
25.13
21.17
19.24
18.07
13.44
12.24
12.54
37.65
14.61
12.52
13.01
12.15
12.04
9.61
26.58
19.63
19.5
14.57
14.05
48.65
12.84
16.06
13.06
13.17
20.09
13.59
22.18
23.43
18.07
18.25
13.28
15.58
15.05
20.29
29.87
19.1
16.03
13.58
10.17
15.57
24.09
25.09
16.56
14.58
14.05
11.56
25.61
19.59
19.04
17.57
13.79
15.32
12.57
26.17
22.56
19.1
17.27
25.96
16.31
30.0
23.1
17.72
19.26
13.54
14.65
12.21
41.49
16.62
15.21
14.78
17.77
11.22
13.3
23.32
16.64
20.09
16.08
14.56
15.52
47.72
16.74
14.14
15.65
10.68
14.27
12.29
21.36
19.37
21.7
17.1
16.09
13.05
16.56
40.66
16.58
14.57
16.56
13.74
14.17
23.89
35.41
14.66
14.6
14.66
11.61
29.42
32.46
14.13
13.8
15.32
12.23
12.24
27.61
21.1
30.36
15.79
12.72
12.57
22.31
37.65
16.2
14.04
15.77
19.36
16.82
20.62
20.57
20.09
18.09
14.05
17.58
19.64
20.17
18.89
26.3
15.82
11.66
24.39
17.58
22.61
14.05
15.18
12.69
11.23
34.85
20.16
14.41
11.05
14.21
11.19
15.08
46.63
17.09
15.04
15.59
11.05
14.24
14.56
20.8
23.46
21.38
14.71
12.65
13.05
16.1
19.68
29.14
16.09
13.05
13.57
11.03
14.56
20.09
21.09
24.95
14.68
18.43
15.86
15.88
19.38
27.84
16.26
16.12
15.64
12.18
24.56
23.11
14.61
13.8
15.77
10.04
14.56
13.56
21.1
19.57
20.18
17.57
13.74
15.22
14.64
29.82
15.73
17.33
15.2
15.71
13.22
15.13
16.78
19.37
30.35
16.63
13.58
12.05
24.61
33.1
16.05
17.58
12.69
13.26
13.18
22.19
19.82
20.09
13.05
16.1
13.21
12.57
23.1
34.2
17.06
16.03
15.57
15.09
36.66
16.54
16.03
15.57
13.58
14.06
14.09
29.12
24.08
18.57
14.05
12.57
13.05
22.59
19.56
21.11
21.11
15.05
16.6
24.63
14.8
18.81
15.27
14.83
11.23
13.75
11.18
35.14
17.04
16.76
15.22
14.73
13.14
12.75
42.57
17.74
20.89
13.2
14.23
14.22
21.35
22.66
18.57
19.09
22.2
12.22
12.24
14.78
14.16
19.74
19.09
25.1
18.09
21.07
17.56
22.61
17.93
22.43
15.67
16.09
39.66
18.09
16.09
70.95
74.21
30.9
40.2
29.2
30.38
22.61
28.95
26.17
28.72
20.12
34.89
32.76
29.69
21.14
34.28
37.82
21.45
21.75
44.38
22.38
30.05
25.26
26.36
33.11
18.8
21.52
28.78
37.37
18.31
20.68
21.9
25.03
26.74
24.93
23.59
20.1
20.57
18.58
26.36
18.12
16.33
20.24
19.27
39.66
22.62
21.09
21.87
22.47
20.89
19.57
22.59
26.33
19.03
15.17
20.61
53.37
20.2
17.9
21.12
19.57
20.06
20.87
20.05
20.06
20.33
19.24
41.21
19.57
22.57
23.24
17.54
17.57
16.59
15.52
16.04
17.58
21.8
31.73
18.28
16.56
19.81
22.6
20.58
21.98
18.09
21.1
16.57
45.71
21.87
20.16
20.57
23.63
25.77
20.55
15.06
15.77
29.14
22.11
17.05
15.03
16.34
13.15
14.71
34.69
19.16
19.93
21.09
14.55
13.3
42.11
16.51
14.09
21.81
17.22
16.87
23.96
22.08
22.1
17.36
19.42
15.25
15.74
17.03
21.49
19.04
15.17
14.06
12.52
22.08
19.06
18.5
16.02
15.12
19.68
18.18
30.07
18.98
20.18
19.63
15.23
26.42
19.59
19.33
17.61
14.16
13.04
12.03
11.93
37.66
31.34
16.57
10.05
12.56
12.4
41.75
17.36
18.57
18.84
13.08
16.11
15.23
16.04
22.65
32.47
18.71
14.05
31.7
16.21
20.9
16.1
11.03
17.08
16.05
21.1
22.32
16.21
22.07
22.13
13.91
16.35
21.69
40.14
18.37
14.24
13.22
13.83
22.31
19.73
19.14
34.44
12.52
25.48
23.68
22.94
20.57
15.88
14.73
23.13
21.58
41.09
15.06
16.73
13.05
20.89
18.88
18.78
27.09
14.57
14.64
25.37
18.57
19.49
20.17
18.58
14.11
37.32
17.17
17.32
15.75
13.19
15.66
39.0
14.55
21.15
21.73
13.03
14.43
15.55
20.14
18.44
26.61
21.88
17.48
15.81
20.82
23.39
17.67
17.18
15.7
10.26
14.85
25.39
14.7
13.82
14.05
12.85
14.07
15.56
12.58
22.28
19.19
29.8
14.39
15.75
14.04
21.8
22.14
16.12
16.42
13.77
14.71
17.08
24.06
21.46
17.23
16.84
12.66
17.57
12.06
14.96
21.6
28.5
17.58
15.05
14.22
36.64
15.91
14.63
15.39
13.58
14.91
13.64
17.68
23.65
28.36
14.14
12.31
13.76
14.33
31.61
16.77
12.05
15.63
13.56
13.3
14.5
18.24
21.59
16.75
12.33
15.98
13.04
16.57
23.91
21.26
20.85
15.19
15.09
15.54
14.41
34.99
16.04
13.22
14.14
14.23
14.68
14.61
16.26
21.81
19.04
21.55
16.35
15.0
13.94
19.81
23.38
16.75
14.06
14.56
14.53
14.05
19.75
23.43
20.08
19.73
15.13
14.57
14.16
32.87
32.92
58.27
17.21
38.13
19.16
20.18
21.69
52.61
23.37
23.45
32.39
19.1
17.57
25.76
17.83
35.31
18.03
16.25
24.38
18.73
19.82
19.57
21.04
44.81
21.02
19.64
17.31
27.61
88.28
37.53
74.77
31.71
29.04
28.55
49.15
31.81
58.52
30.58
25.68
31.62
37.51
25.57
54.3
55.59
59.46
45.03
64.68
33.67
19.54
45.67
23.56
25.74
17.81
45.33
27.74
19.62
22.97
20.06
39.86
22.29
22.69
22.07
29.63
31.57
31.2
27.5
26.14
23.03
43.86
22.02
24.08
39.68
23.57
20.04
24.44
18.01
26.5
23.54
21.21
21.74
17.21
30.56
31.17
17.69
21.46
17.66
55.56
20.73
16.18
13.02
17.12
13.39
17.66
33.73
14.02
17.47
15.82
16.12
16.32
14.23
35.22
18.91
21.98
25.6
22.56
25.08
24.25
19.85
19.48
14.51
21.09
22.97
25.61
20.06
17.05
15.03
28.36
25.7
28.8
20.73
24.08
32.0
35.18
25.62
24.72
28.45
37.08
21.45
25.58
25.44
26.07
21.27
42.1
60.66
26.68
57.86
28.02
32.78
27.7
26.13
70.08
19.86
27.16
64.35
28.65
29.05
64.82
20.15
25.66
51.85
23.58
25.11
21.63
37.72
21.33
22.07
34.67
18.07
20.6
21.47
24.31
31.06
21.86
18.61
17.14
32.65
25.65
37.81
56.79
19.09
18.2
21.73
19.02
37.32
16.58
22.28
20.11
39.69
23.11
20.1
36.28
14.65
12.8
13.67
19.43
19.49
27.26
17.57
15.07
11.03
15.95
19.07
24.07
26.86
17.21
17.24
18.7
21.86
20.28
22.17
18.72
16.78
13.24
16.78
19.57
21.68
22.57
19.91
19.04
24.2
18.98
19.87
35.14
15.56
11.08
13.57
20.78
25.35
20.2
18.6
17.69
16.05
52.85
17.55
19.55
76.17
36.65
25.2
30.12
24.19
20.06
31.59
25.62
38.13
23.31
23.09
24.82
28.32
28.07
42.69
28.1
21.01
18.06
24.06
27.69
28.1
19.77
22.57
23.33
29.2
27.37
26.66
18.06
23.34
36.63
25.58
19.07
14.56
35.6
22.07
19.07
16.04
16.54
16.07
20.3
20.63
23.31
20.62
20.06
24.57
24.05
27.67
17.62
21.63
13.13
16.72
22.04
24.05
21.56
20.06
14.04
14.55
22.16
36.65
23.72
21.94
19.15
29.62
22.06
22.57
18.3
18.74
41.54
21.06
17.53
15.02
20.08
23.07
22.63
20.84
20.06
15.74
18.38
18.56
20.08
16.77
21.81
15.1
12.66
14.54
27.84
19.17
23.09
20.91
30.78
16.3
21.77
25.37
15.37
24.1
18.09
15.04
24.62
21.05
19.04
18.56
15.56
17.55
40.94
17.22
70.08
30.76
45.17
33.11
30.27
26.07
32.1
29.1
25.09
27.37
27.7
26.01
24.59
23.76
25.24
34.26
23.49
21.07
21.26
53.25
31.62
24.59
21.14
31.06
21.86
22.8
22.24
24.18
33.69
29.62
22.58
23.07
32.35
32.09
40.14
21.59
35.58
22.59
22.07
19.09
21.58
20.06
25.07
38.29
26.15
28.15
29.32
26.71
24.06
20.08
18.12
30.09
30.1
22.08
19.07
19.68
21.89
39.84
21.73
23.76
18.16
26.76
25.22
27.64
24.06
19.73
42.37
23.61
23.81
20.43
17.56
25.08
27.64
23.13
27.36
23.31
20.13
25.75
20.05
20.79
24.55
41.67
16.04
15.03
17.66
12.62
14.6
13.48
14.56
21.07
21.7
25.57
19.61
21.67
25.7
24.17
23.71
21.07
18.62
16.32
39.7
27.77
25.66
19.37
20.41
36.54
20.84
20.14
19.07
13.03
25.67
21.82
25.72
28.75
28.3
41.77
23.13
20.33
20.16
18.06
20.58
21.05
26.56
19.07
18.8
15.54
19.05
31.61
29.57
22.8
18.64
27.73
21.12
19.76
20.06
20.55
18.83
37.58
28.57
26.08
32.37
21.18
46.8
21.69
20.76
26.58
45.13
21.29
16.64
15.72
27.47
20.7
26.86
18.17
17.73
16.56
22.91
30.57
20.06
18.55
16.04
16.57
45.77
21.07
19.3
21.57
18.07
39.97
38.02
25.57
16.05
23.56
19.05
21.05
20.06
22.06
59.13
43.8
38.83
21.54
56.57
39.86
43.21
53.76
34.13
63.13
47.7
52.42
26.13
51.82
46.08
21.83
31.6
15.36
29.13
50.58
42.37
26.61
32.11
17.66
17.04
16.74
15.02
17.38
21.94
22.58
19.19
22.15
15.64
15.48
28.37
23.25
20.36
20.7
16.18
14.81
22.12
23.1
23.13
28.14
16.91
39.94
22.33
20.05
24.03
17.59
28.88
32.56
23.64
27.12
17.34
22.48
31.34
13.62
12.83
13.57
10.52
12.55
21.76
19.15
17.15
21.44
13.51
13.64
19.23
20.56
21.2
19.05
12.27
11.88
11.4
11.32
12.68
33.25
24.73
12.51
12.08
10.19
10.13
9.05
10.12
20.58
21.21
20.41
10.53
11.05
10.05
13.07
14.03
25.6
24.6
12.57
10.04
11.05
10.06
8.52
12.73
10.23
22.78
31.15
14.04
8.04
12.18
9.12
9.13
10.69
35.14
14.58
26.13
12.04
9.52
10.05
9.04
8.04
25.13
14.57
16.57
11.03
8.52
12.05
10.04
8.52
11.52
10.56
9.52
13.04
20.09
32.13
20.61
13.56
10.04
11.12
10.61
16.18
24.82
29.12
65.6
20.55
46.31
30.09
23.07
20.84
25.58
38.61
30.69
24.59
26.81
29.21
23.05
28.58
16.56
18.18
36.83
28.11
21.33
28.08
24.28
23.5
25.11
18.06
16.72
21.23
39.73
19.22
22.33
18.07
21.3
17.79
24.73
19.63
18.54
21.29
18.05
53.17
30.18
18.16
18.7
16.22
23.08
16.05
24.6
19.87
20.14
15.72
46.45
23.58
15.26
16.36
16.7
25.96
21.7
17.51
20.07
17.54
15.08
21.17
20.18
22.17
15.35
14.54
14.03
16.07
19.06
21.75
18.28
16.72
14.04
14.55
18.05
23.77
22.58
17.04
14.52
16.55
17.09
24.81
22.55
21.62
20.35
29.46
27.3
23.77
19.71
21.08
21.08
18.35
22.18
20.58
23.86
27.38
16.36
76.31
63.25
34.64
38.66
39.99
32.34
37.09
32.43
37.33
51.17
37.75
39.73
36.95
29.11
43.74
25.25
31.78
27.76
30.19
37.8
34.1
27.28
23.72
23.96
31.27
24.32
22.82
32.32
32.08
24.06
22.07
45.15
27.59
28.1
23.07
23.56
21.86
22.13
21.06
27.1
22.8
25.27
20.67
22.74
21.07
40.12
31.55
21.05
21.86
19.62
55.32
22.59
19.6
24.57
43.28
22.06
20.06
29.09
23.57
23.77
31.73
21.07
22.06
19.65
25.21
23.56
21.74
19.1
20.05
30.69
25.65
16.6
16.04
14.6
11.59
17.14
26.65
22.04
22.08
25.89
15.15
16.73
23.25
20.75
21.97
16.59
14.4
18.12
20.1
27.37
21.39
17.35
15.4
18.06
47.87
22.84
14.21
17.4
15.27
29.17
21.82
22.01
21.59
22.62
15.06
45.97
20.59
19.93
18.09
20.1
20.84
20.84
45.5
22.69
17.07
24.64
21.03
22.5
22.6
24.59
15.53
27.58
23.32
22.71
22.06
25.3
26.45
24.82
19.69
20.34
17.05
17.18
28.97
26.81
23.97
17.36
20.36
27.63
24.59
20.75
20.26
20.05
22.84
21.25
21.68
17.93
19.76
22.45
24.02
23.03
22.0
19.5
19.81
13.71
24.83
23.67
23.11
25.62
17.7
31.25
29.62
22.34
20.08
20.04
36.87
25.59
23.22
21.34
22.61
23.67
23.62
22.43
22.55
16.62
21.19
24.94
21.08
26.57
24.41
20.9
24.9
31.22
25.18
19.55
24.93
30.01
24.58
16.72
23.57
19.59
36.66
23.12
19.05
21.07
22.27
40.27
24.75
24.82
16.14
16.54
17.28
24.7
27.25
21.66
19.64
19.21
47.33
23.69
18.49
16.57
23.46
21.61
27.72
21.05
21.06
17.94
28.93
25.16
21.84
20.23
21.71
19.03
24.23
23.49
24.15
18.69
23.01
18.78
28.01
36.68
18.62
17.07
37.51
26.79
19.71
19.28
20.1
40.36
23.89
23.96
23.08
19.17
48.17
21.08
19.0
16.2
18.09
28.49
20.63
24.17
16.59
17.31
15.22
24.71
23.88
21.46
21.92
18.05
16.54
21.33
22.65
23.76
24.33
17.73
18.8
23.99
27.4
24.84
15.84
19.27
47.21
25.82
19.05
17.61
22.44
21.75
24.75
23.25
18.99
20.08
16.71
26.19
24.12
25.71
19.63
18.0
22.86
24.11
19.57
18.58
19.46
23.14
22.15
19.85
28.35
20.17
19.22
31.1
26.24
25.73
21.21
23.97
23.85
29.65
20.67
19.2
17.34
16.21
23.6
31.62
19.09
18.76
15.17
16.66
24.68
21.2
18.87
19.67
16.23
14.73
19.4
21.24
22.3
19.78
20.39
14.79
18.76
21.19
21.16
21.09
26.55
15.58
17.09
32.64
24.79
19.37
17.24
16.27
15.36
21.1
20.41
20.78
18.24
18.58
17.6
24.12
23.56
22.62
17.56
16.57
15.57
15.07
27.6
32.32
19.65
17.9
15.65
28.03
20.77
20.24
21.49
16.67
17.29
32.96
31.84
19.19
19.1
13.81
15.05
25.11
21.56
28.46
21.71
49.85
21.3
19.17
17.14
15.21
16.09
16.73
17.34
15.13
24.92
24.83
21.66
21.2
15.9
16.85
22.77
25.41
19.87
38.88
16.58
48.23
22.09
19.56
16.57
22.45
22.85
22.7
18.69
47.73
21.83
17.21
19.96
33.01
19.38
19.86
35.63
16.77
16.56
13.04
22.08
22.63
19.2
17.08
15.55
15.53
17.11
22.4
23.82
20.16
17.59
15.8
16.62
30.35
19.06
22.65
18.09
18.1
14.57
19.15
21.44
31.62
18.58
19.08
15.59
24.59
32.25
17.1
15.07
14.05
17.57
16.09
38.19
19.1
71.42
25.2
18.05
19.57
15.33
17.57
18.14
41.46
21.27
20.56
20.1
20.09
22.09
22.61
21.56
32.81
21.62
23.07
19.7
22.62
20.09
18.24
21.16
19.82
22.09
17.09
22.07
26.76
26.68
22.27
39.3
18.08
14.61
22.72
16.92
21.97
21.24
22.39
41.37
18.67
21.4
25.08
18.09
46.33
18.28
17.56
39.19
46.47
22.0
23.42
17.91
14.57
12.85
40.09
15.82
21.19
18.32
15.38
17.84
25.62
20.1
19.09
19.05
21.09
19.09
19.62
18.57
20.56
17.57
16.57
15.58
31.63
18.57
15.53
13.57
14.58
14.05
14.09
16.27
24.81
18.61
19.57
14.58
17.08
12.52
22.63
19.11
26.13
16.24
14.63
15.09
16.56
19.18
20.09
17.57
13.04
16.08
15.03
13.05
24.15
21.09
20.92
18.18
13.4
13.13
14.77
41.94
18.29
14.69
15.34
14.22
11.69
18.68
21.88
34.24
14.24
15.66
12.04
15.67
19.32
17.83
33.47
11.28
8.51
9.12
12.63
21.8
17.26
23.37
13.74
13.63
13.58
12.04
16.57
22.09
17.57
18.1
18.09
13.56
13.57
13.16
23.93
16.56
14.58
13.05
13.57
13.04
13.57
23.08
23.25
18.18
13.88
16.19
11.52
14.22
12.28
12.09
38.06
15.62
15.68
13.17
14.83
14.15
19.38
16.57
24.11
14.1
13.04
17.05
28.14
19.1
20.09
16.57
12.55
13.54
12.56
11.56
31.15
18.1
19.08
15.57
16.57
12.05
12.05
26.62
31.62
23.63
19.1
25.14
26.11
17.58
19.25
26.29
30.95
16.29
17.44
20.3
17.79
18.64
19.78
22.99
19.67
15.78
17.73
13.24
16.76
22.44
23.35
17.3
14.04
15.86
14.09
18.24
33.14
16.09
15.56
13.05
15.59
12.05
17.58
20.1
23.61
19.66
16.09
13.05
15.08
20.07
18.56
21.6
14.66
14.81
14.75
13.29
21.4
22.77
18.64
14.82
13.68
13.67
13.15
11.64
20.81
17.69
19.26
16.24
14.24
14.56
12.05
32.76
17.14
14.76
13.73
13.72
12.75
11.14
21.44
19.86
20.74
19.81
17.77
12.64
14.57
32.2
16.09
14.59
13.05
13.55
12.05
16.06
13.06
20.1
17.91
21.28
16.78
14.77
16.22
24.99
20.95
19.37
15.73
12.8
13.2
14.57
12.03
38.14
17.09
13.58
13.05
14.08
18.55
34.14
16.58
16.09
14.56
14.14
10.52
14.59
20.31
21.29
16.74
16.63
15.08
12.15
10.62
12.7
12.14
21.34
22.16
21.88
17.27
14.31
14.25
46.99
16.67
13.64
12.64
12.34
12.05
25.12
23.19
15.65
18.79
12.66
14.16
12.21
14.06
21.09
23.59
15.27
22.77
14.57
14.05
11.56
26.62
17.56
30.61
14.05
13.77
14.55
38.24
16.57
25.13
15.66
12.71
13.81
24.31
17.78
32.36
14.75
17.56
12.12
17.67
19.83
20.57
25.63
17.78
19.85
14.37
33.32
15.74
19.23
24.37
14.74
16.17
17.79
30.7
14.05
14.59
14.22
13.61
11.05
25.15
22.08
19.57
22.22
14.15
13.05
25.29
16.56
23.1
14.05
15.2
17.16
21.88
25.73
16.38
13.68
15.34
12.05
14.67
35.66
16.56
17.09
13.64
13.81
13.14
14.58
23.53
18.5
22.41
13.31
14.25
11.64
11.78
29.87
21.09
17.09
12.05
14.58
12.04
10.52
14.06
19.09
18.59
20.71
15.32
16.82
14.57
39.17
20.57
13.56
16.57
13.57
11.05
14.56
22.58
22.09
22.62
16.05
12.57
13.03
10.04
14.05
20.09
21.61
16.05
15.59
14.06
13.52
15.09
20.1
19.09
20.1
15.56
15.55
14.05
14.57
13.78
20.81
20.75
18.38
21.78
22.99
21.27
24.83
31.4
63.51
39.84
41.02
35.4
57.76
42.01
36.21
36.94
27.16
25.72
19.06
24.25
21.63
20.25
21.2
19.05
20.92
25.55
22.38
21.85
18.08
18.56
16.63
36.01
20.3
22.32
17.21
16.99
70.1
40.57
31.6
46.01
27.84
51.99
25.58
57.33
24.11
20.29
43.71
35.63
18.6
33.11
48.63
45.36
22.51
18.54
18.07
16.93
21.7
22.1
17.92
15.56
16.75
16.95
22.68
31.37
17.29
17.07
18.05
15.53
15.93
24.07
24.73
50.16
25.18
17.55
16.53
22.54
22.2
15.66
13.56
19.6
19.05
23.76
13.67
13.51
11.91
13.47
14.34
25.8
15.04
22.77
31.19
14.58
13.31
22.82
21.82
20.58
26.13
24.08
27.85
19.3
23.22
17.5
23.49
38.27
19.52
25.62
25.88
40.87
25.58
23.7
17.46
23.33
52.59
18.71
22.02
18.21
13.65
25.34
20.14
23.73
17.56
15.83
13.55
23.71
27.47
21.79
16.55
16.55
12.65
47.57
16.58
15.78
14.58
14.03
12.73
23.36
18.84
28.03
16.19
17.49
15.8
14.09
13.62
25.61
23.4
23.72
16.75
15.14
20.05
17.24
23.47
20.74
16.1
15.56
15.19
20.35
24.77
17.27
14.57
15.22
19.1
23.24
30.78
20.92
18.56
16.47
46.78
17.61
18.13
16.75
12.82
13.52
11.57
32.69
17.26
22.05
18.51
17.09
22.1
23.71
23.21
19.12
18.2
34.89
21.98
22.19
19.72
14.05
19.08
22.61
22.61
19.58
22.92
19.56
52.33
27.32
35.89
19.95
20.8
28.45
19.57
20.77
24.45
22.06
19.36
28.77
22.43
21.5
22.18
20.1
37.6
44.29
38.19
11.82
23.15
21.3
17.1
11.03
10.53
10.1
12.14
12.57
17.94
23.65
23.37
18.45
14.07
14.33
17.28
20.0
40.57
18.65
12.44
13.49
38.85
15.86
18.42
24.04
15.05
42.74
18.72
29.83
17.42
11.88
15.32
11.88
19.2
25.64
18.07
11.6
13.59
9.77
11.14
9.62
17.66
36.0
16.46
24.87
33.6
17.89
35.57
47.56
23.78
25.56
38.5
28.25
37.36
34.86
31.8
31.14
27.12
43.07
34.15
16.57
22.07
22.2
31.24
29.05
57.61
22.28
21.1
75.38
22.62
26.63
15.57
15.05
21.1
18.58
40.19
43.73
22.09
22.62
20.07
23.18
17.9
21.88
52.7
19.11
20.61
18.07
48.99
21.35
19.57
23.1
15.56
14.57
21.08
21.61
17.56
24.61
46.12
20.79
16.82
16.96
14.67
18.32
15.65
23.09
19.62
17.69
14.63
18.1
15.57
15.04
20.58
20.28
21.07
18.58
19.09
13.56
22.1
19.09
23.1
15.57
20.09
16.57
30.7
22.61
19.08
19.1
23.07
21.08
22.1
22.52
20.81
17.79
17.31
18.21
21.52
21.56
23.72
18.74
15.76
11.27
20.57
23.4
26.13
22.62
12.31
7.61
11.04
16.41
27.39
19.09
33.14
14.05
13.55
15.05
22.85
22.67
17.82
14.07
15.22
13.83
19.66
20.1
21.77
17.33
13.19
12.36
15.93
11.52
25.38
31.87
28.19
23.21
21.07
21.31
43.19
23.09
19.1
30.14
30.1
19.09
25.1
20.69
18.11
21.1
27.13
19.79
14.29
15.26
24.72
19.28
23.62
20.09
18.57
11.04
12.57
35.15
16.6
15.56
12.05
15.58
12.05
11.55
13.05
19.33
18.58
24.2
13.8
17.24
13.77
22.84
22.46
17.77
14.79
12.69
14.21
13.73
16.57
22.09
18.26
18.27
18.09
12.05
14.59
14.66
20.81
33.67
16.36
16.2
13.24
15.83
21.97
19.41
17.27
16.25
12.78
12.14
12.96
36.1
15.57
18.2
21.56
15.09
13.05
13.57
38.84
18.91
15.66
12.37
14.19
11.69
12.63
19.67
17.57
23.6
18.09
19.57
12.57
26.1
22.79
19.9
16.79
13.27
10.66
14.76
14.8
28.75
15.66
17.23
18.15
13.75
15.16
24.57
21.11
17.56
16.69
11.74
15.05
13.37
13.15
17.15
21.21
18.58
17.56
11.05
13.16
12.23
14.29
13.19
45.16
16.58
17.09
11.04
25.62
17.39
18.76
14.85
15.22
11.16
13.05
16.19
22.83
19.9
15.59
15.22
11.52
13.58
12.05
11.04
23.46
20.34
21.77
17.09
15.39
14.15
15.87
18.79
21.81
18.9
13.28
12.75
15.14
13.37
19.91
20.69
16.52
21.69
11.7
14.52
12.66
21.55
22.56
20.87
14.33
15.31
12.13
15.81
20.26
31.13
16.74
15.43
10.16
13.03
12.03
22.08
23.7
22.04
12.22
14.24
14.2
14.04
16.79
21.34
20.19
20.77
15.79
13.84
14.27
24.72
23.62
17.14
16.16
13.77
23.99
23.19
23.19
17.24
12.25
11.54
14.14
20.96
16.64
19.11
14.05
13.57
13.05
15.09
13.05
25.8
21.19
21.6
13.53
11.05
16.64
11.52
14.09
38.8
18.31
14.2
12.57
12.04
15.56
25.6
18.65
19.57
16.09
16.2
14.17
12.68
20.62
18.57
21.09
22.8
16.77
15.47
23.26
16.79
18.8
15.34
13.89
12.66
13.3
11.67
22.88
22.47
19.9
12.52
13.67
13.62
12.67
40.58
17.57
19.08
13.04
16.56
12.06
25.65
19.1
17.08
14.04
15.06
11.56
15.57
12.56
19.08
24.07
21.12
15.05
14.22
11.03
13.04
34.53
17.97
20.86
20.58
24.59
16.57
33.14
20.09
25.09
20.57
16.05
11.68
35.46
20.67
25.6
17.56
13.59
14.56
21.67
18.11
21.1
22.62
20.89
13.31
28.39
18.58
17.59
14.08
19.16
13.16
14.67
13.64
31.9
19.67
19.87
15.09
15.57
32.52
19.74
18.28
14.33
15.76
12.66
13.85
26.84
22.34
20.49
24.16
13.56
18.3
15.68
35.81
20.57
18.58
12.05
17.1
26.32
25.1
19.08
17.15
13.78
12.73
16.83
18.79
18.01
20.87
19.38
14.65
11.56
15.57
24.14
21.07
20.57
22.63
15.56
13.57
21.72
22.5
24.56
18.27
18.8
15.7
13.85
38.14
20.11
21.1
15.57
15.04
15.07
22.57
23.63
19.19
17.65
21.98
15.29
38.65
19.3
18.85
16.77
17.1
21.1
20.09
23.6
15.55
18.84
13.14
15.13
22.29
20.68
21.27
26.62
13.75
14.56
28.94
22.69
19.13
15.88
15.19
12.12
34.54
19.22
18.2
21.76
14.29
13.05
14.77
44.59
21.76
22.38
14.73
15.99
13.33
23.0
19.92
19.09
17.88
19.42
30.69
23.17
16.82
15.16
13.76
17.07
14.03
28.16
19.96
18.57
17.09
14.57
15.04
15.38
20.09
20.78
19.39
15.36
15.18
15.3
13.67
19.77
22.11
20.31
17.76
13.75
11.65
16.96
19.86
21.07
21.07
16.05
15.57
14.09
14.04
22.6
20.56
22.1
15.81
15.92
16.2
35.0
18.9
19.07
14.57
15.1
13.04
36.15
19.56
19.33
15.56
16.57
12.04
15.09
40.19
18.07
19.56
16.3
14.26
13.57
13.25
13.89
38.25
17.67
14.16
13.66
12.26
22.21
20.2
20.44
17.23
17.37
11.61
14.7
23.09
26.6
18.09
13.55
16.65
12.15
16.69
17.26
20.03
19.56
16.57
15.05
12.58
15.03
22.31
20.38
17.38
17.76
14.64
13.21
11.26
17.81
23.3
18.73
19.28
17.15
13.04
15.09
21.1
25.14
19.08
19.73
12.17
15.65
13.19
18.67
20.94
21.0
17.37
18.88
21.36
16.81
20.28
20.78
19.91
21.4
20.48
44.26
21.72
16.25
13.68
15.26
12.22
15.44
19.68
20.45
31.89
15.24
15.91
13.26
25.37
19.47
16.67
15.79
18.47
12.72
14.08
20.79
22.6
19.6
14.74
13.84
14.14
17.32
20.81
21.83
23.26
25.62
15.66
14.93
13.15
22.76
22.87
22.9
19.61
13.75
32.86
18.2
19.67
18.52
15.73
13.64
15.19
27.4
20.87
19.47
20.88
13.76
15.81
14.78
41.72
19.08
18.58
12.61
16.79
20.7
20.22
17.8
15.75
18.08
12.52
17.59
37.19
18.1
24.1
14.52
18.1
13.57
15.95
18.68
18.7
21.84
25.59
19.06
20.09
19.09
20.09
15.67
15.13
15.82
15.78
38.97
18.09
15.07
13.03
14.16
21.5
20.56
18.57
19.19
17.27
15.13
14.7
21.89
42.7
19.36
16.05
14.08
41.64
19.62
15.77
16.25
13.23
15.32
24.8
30.14
14.65
17.33
15.28
16.05
17.56
30.14
22.09
20.07
14.61
14.84
13.3
38.66
21.33
15.68
12.23
14.66
15.65
42.52
16.57
15.09
14.16
12.66
14.64
14.88
22.17
19.82
16.74
15.73
15.58
13.31
15.38
20.52
20.78
23.22
22.94
15.77
14.63
23.03
20.7
18.74
17.8
13.75
15.56
16.08
21.57
26.61
18.1
16.09
17.08
13.23
23.32
21.31
19.08
19.1
21.6
15.05
12.57
15.04
49.69
17.57
22.62
67.75
21.09
25.11
63.02
25.81
40.17
57.28
24.61
34.13
19.58
30.15
32.11
22.61
19.09
18.26
31.79
22.18
22.1
20.1
18.08
15.56
18.59
16.58
16.11
30.14
44.7
15.56
19.09
16.56
18.08
19.57
21.1
20.09
17.1
17.1
39.99
17.77
16.09
16.29
19.09
15.22
17.87
21.09
21.17
18.96
11.71
10.04
8.53
9.52
17.7
22.74
18.77
11.05
11.23
12.78
10.64
11.16
11.21
20.4
22.28
21.39
13.8
14.27
14.78
13.04
23.62
20.31
19.29
14.57
14.56
13.57
11.04
12.04
21.61
19.1
22.1
16.58
11.04
13.04
12.05
38.67
33.37
13.04
15.28
12.52
12.72
20.84
21.1
33.67
16.06
15.53
12.06
24.11
22.64
25.53
21.51
62.0
28.83
25.2
44.63
24.08
24.93
20.38
54.38
23.62
31.12
46.2
16.14
17.23
15.2
24.18
21.79
18.68
20.89
16.77
53.86
20.61
21.57
21.62
20.21
18.73
20.42
41.84
75.36
22.42
28.02
31.87
18.21
21.57
20.09
23.1
17.08
17.08
17.56
21.62
20.57
19.09
25.12
20.56
31.14
33.67
21.08
36.27
27.12
34.7
19.09
25.6
12.05
10.05
9.05
9.57
14.56
38.0
13.16
11.14
10.64
9.66
11.19
13.17
12.04
31.89
12.53
20.81
21.68
12.04
15.1
22.1
24.11
29.59
10.05
10.04
10.04
15.61
30.61
30.11
19.57
16.1
13.05
16.14
14.56
19.56
22.6
20.21
20.75
23.32
35.31
19.34
22.11
18.58
11.06
14.74
14.36
19.85
19.77
17.09
17.09
12.57
17.57
14.56
15.92
21.7
20.86
20.36
16.26
16.19
12.17
13.84
20.82
23.46
20.1
16.56
15.16
28.94
20.25
16.25
17.87
14.17
12.52
13.57
13.67
21.69
17.28
21.04
60.83
24.14
65.78
32.14
27.62
33.13
26.57
27.14
23.34
58.84
31.72
25.49
51.76
26.31
23.86
27.82
25.62
31.14
19.09
25.08
21.61
24.09
32.66
54.18
22.87
21.84
23.18
70.55
23.7
24.56
49.62
22.42
22.28
20.82
17.37
16.14
47.9
19.08
20.99
17.26
19.35
39.79
21.6
20.11
21.6
19.5
19.43
20.82
20.7
22.71
25.09
21.2
18.76
19.31
24.29
33.66
18.09
18.79
18.37
16.88
17.76
31.14
19.66
20.62
17.57
16.09
21.21
19.0
18.98
30.14
76.88
30.39
25.6
34.61
26.63
20.1
21.07
39.61
22.52
37.08
26.14
22.88
21.4
19.33
16.57
25.52
30.07
19.19
16.89
37.07
21.68
19.1
17.07
16.31
16.84
45.89
18.77
14.73
14.17
13.75
14.6
20.57
18.09
18.1
18.09
17.23
16.76
16.73
19.91
21.8
38.19
16.05
13.57
17.09
27.65
22.09
19.1
22.17
15.05
21.15
21.11
21.08
18.76
17.73
17.57
22.83
19.56
34.69
16.05
16.59
13.07
14.28
38.59
15.56
24.6
15.95
15.52
19.71
21.28
23.93
17.65
12.74
12.72
12.14
16.79
20.57
33.78
14.24
12.72
12.57
12.05
35.66
14.56
21.81
13.04
14.76
33.22
16.27
15.18
12.31
11.24
11.13
7.26
21.35
10.28
35.45
9.65
9.16
7.05
7.05
8.17
9.64
7.53
16.05
20.09
19.98
8.28
7.53
8.53
7.65
10.04
9.16
8.52
8.05
8.05
9.67
8.61
35.29
15.69
17.56
12.56
8.77
10.06
12.05
8.04
11.05
27.62
16.56
12.08
11.04
9.05
9.27
10.04
11.04
8.04
13.18
20.1
19.1
20.07
13.04
12.57
10.05
9.05
22.63
16.05
22.6
13.52
12.58
15.56
12.05
11.06
20.1
22.56
21.1
12.58
12.04
21.1
76.31
18.17
18.36
35.85
18.72
19.21
17.66
13.24
12.13
12.3
19.81
19.76
23.63
18.58
15.58
14.57
15.12
18.09
21.14
19.55
13.27
12.63
11.16
9.16
25.71
18.8
18.95
13.43
11.63
8.08
12.06
9.05
22.1
16.15
20.38
13.39
12.18
10.28
9.67
8.15
11.05
11.05
8.55
16.76
19.27
10.04
13.05
19.11
18.1
33.34
14.14
29.2
11.56
10.17
12.2
17.13
37.2
19.64
21.17
12.05
16.22
14.69
31.64
17.7
19.56
36.14
13.78
14.79
20.03
18.67
36.23
15.88
15.68
14.05
19.74
51.81
14.74
13.78
14.2
40.79
28.15
17.57
15.57
15.56
37.31
15.94
20.25
20.7
14.53
14.26
13.68
43.66
15.2
21.86
15.42
14.3
36.86
21.66
28.96
14.62
14.88
12.04
14.57
19.1
21.01
18.85
16.58
20.1
46.38
16.04
20.95
16.55
16.56
12.57
22.47
21.72
19.42
27.37
18.1
20.11
19.56
21.11
16.82
19.56
22.86
17.29
20.86
17.68
21.6
16.03
23.61
17.1
24.55
35.65
18.34
16.39
13.76
14.79
17.49
29.12
24.72
17.82
18.58
13.56
14.14
11.69
12.24
28.75
20.89
17.57
16.55
17.07
12.57
12.05
20.1
26.61
19.1
15.05
14.59
16.83
15.65
18.29
19.42
22.67
15.09
15.55
12.57
18.09
20.56
22.84
16.91
14.28
16.81
15.14
15.23
20.82
20.07
21.57
16.1
14.56
14.57
36.17
17.57
22.42
33.16
16.66
16.22
12.22
15.69
14.27
20.78
17.82
18.9
17.29
19.21
14.23
26.28
21.63
22.1
17.09
21.09
17.58
13.58
20.23
21.18
18.36
21.57
16.56
16.83
18.8
18.71
20.28
14.04
13.79
14.14
12.56
36.19
14.04
21.61
14.04
13.82
13.04
18.9
41.68
19.07
20.26
14.03
17.05
39.68
15.05
20.09
20.09
15.04
13.05
22.1
22.62
23.09
23.1
17.29
16.39
15.25
14.04
14.57
42.98
15.69
13.33
14.57
16.1
15.57
36.27
17.34
16.11
15.57
17.09
13.04
15.56
19.57
16.58
20.09
20.09
17.29
11.27
12.13
21.83
21.1
13.05
16.82
26.45
15.25
22.84
18.79
18.44
17.71
16.18
15.34
12.76
23.36
19.97
30.14
16.17
11.8
10.15
17.05
21.85
19.42
32.11
14.92
12.98
15.83
37.28
15.3
15.86
15.87
15.46
13.05
21.11
20.11
29.52
19.16
12.58
9.53
14.58
16.73
20.66
19.08
17.57
12.7
11.64
8.23
13.05
17.56
20.21
18.06
12.05
9.52
8.04
11.28
10.05
8.53
15.67
18.18
30.4
10.63
13.17
11.24
7.52
9.16
24.16
14.71
18.26
21.62
22.38
11.03
12.38
24.58
19.91
17.04
30.64
10.53
11.55
9.05
27.77
35.69
32.65
20.08
17.58
29.35
22.06
20.27
22.56
17.4
24.04
23.38
18.24
28.76
18.6
16.08
29.18
16.98
20.22
24.12
17.22
10.86
18.62
22.84
18.75
27.33
11.55
10.03
12.4
34.68
16.7
18.04
14.22
10.66
15.78
10.17
24.43
30.37
23.56
14.06
12.2
12.63
14.24
18.11
18.82
20.46
27.55
22.75
40.93
16.22
20.01
21.33
12.2
11.19
14.62
26.71
16.74
19.03
21.14
14.04
10.55
16.56
23.44
33.66
17.61
15.53
12.2
11.55
19.81
21.09
19.55
16.24
11.96
11.06
11.05
11.71
12.75
13.61
13.54
13.72
14.0
19.08
18.56
16.71
24.71
17.43
10.66
37.85
16.06
18.05
14.57
11.91
15.2
27.26
17.71
14.6
13.64
10.18
14.67
12.85
16.88
12.03
21.89
17.7
18.05
22.19
22.82
15.28
20.86
21.93
20.91
28.77
13.74
22.08
15.84
21.52
41.44
14.92
12.86
12.86
10.73
13.75
10.97
23.21
17.06
19.99
19.31
11.94
13.78
12.26
13.76
20.98
20.13
20.09
20.58
14.92
13.85
20.77
20.55
20.86
13.47
13.47
12.21
11.24
13.16
13.03
33.66
18.03
25.22
15.6
15.33
42.62
18.09
14.28
10.64
12.05
11.2
13.7
12.04
22.53
31.28
15.61
13.39
11.67
12.77
12.5
24.63
17.56
17.76
37.16
12.54
13.05
24.14
30.75
14.55
12.64
9.52
12.56
12.05
25.17
16.56
21.98
16.1
12.18
12.94
13.04
9.52
30.11
17.79
30.31
15.44
13.51
13.04
20.29
21.08
23.49
25.46
11.93
12.18
14.63
37.67
14.36
14.26
11.82
13.67
12.55
14.52
20.27
35.13
15.05
12.03
15.6
13.73
36.73
16.06
13.96
11.53
13.58
11.92
10.03
13.08
36.04
15.69
20.87
25.41
13.91
15.92
20.21
22.83
15.6
30.69
13.35
42.36
15.66
12.57
17.44
13.57
11.72
10.85
12.19
19.84
16.56
19.72
19.91
26.12
13.3
14.09
25.96
21.21
34.33
12.73
15.06
35.11
15.66
27.33
17.64
13.28
12.43
18.95
19.8
18.97
26.64
13.36
12.23
13.24
39.94
14.81
13.54
13.1
12.36
11.27
13.17
16.76
35.4
15.17
15.04
12.53
13.04
13.54
39.18
15.54
25.83
14.19
12.15
11.05
13.54
31.17
16.54
26.17
13.54
13.48
14.03
23.69
23.6
19.94
12.54
22.08
12.04
26.58
16.74
21.34
20.27
16.72
25.58
34.69
17.53
20.68
24.56
24.8
16.78
21.15
22.83
19.36
19.82
25.55
22.84
23.66
41.53
19.19
17.91
17.17
30.21
20.56
23.51
31.37
17.46
27.61
23.0
20.62
17.43
15.37
18.0
16.71
20.08
21.61
28.08
20.27
17.55
23.6
21.62
22.39
23.44
27.14
16.65
28.92
21.6
22.05
29.58
57.82
18.16
19.3
19.2
33.59
15.19
16.96
41.83
18.18
21.16
29.63
36.27
18.56
23.07
17.55
16.56
24.37
52.75
31.03
25.09
17.05
24.64
37.51
18.06
40.53
20.14
23.6
17.56
22.07
31.47
35.89
21.04
20.47
19.93
21.72
17.9
22.95
22.69
20.12
18.6
16.89
51.46
19.96
22.19
17.59
18.66
18.2
21.02
31.0
21.45
22.39
39.34
34.86
20.7
17.8
14.92
15.81
42.13
16.59
15.06
14.09
14.24
13.09
13.44
30.31
20.07
22.09
17.64
13.64
16.31
39.9
16.51
22.42
16.53
17.9
22.06
22.44
17.83
21.44
21.27
21.54
36.62
16.75
20.06
19.1
13.24
14.04
22.19
21.18
21.14
17.0
16.05
13.64
13.04
19.58
19.97
19.1
17.72
14.68
11.54
14.07
12.76
24.99
18.33
17.41
15.52
20.42
13.25
49.15
19.08
12.83
12.06
15.04
12.24
44.63
19.56
18.04
14.03
14.06
15.02
14.17
20.59
20.09
19.21
25.21
14.89
16.05
23.24
20.08
20.07
15.13
15.57
13.56
16.54
23.33
18.3
22.01
21.15
40.27
18.15
18.14
23.03
16.2
15.31
24.35
19.7
24.71
16.56
14.65
14.71
38.03
17.17
16.05
16.61
15.05
16.41
15.22
19.56
20.05
21.28
16.81
17.8
13.18
12.17
49.29
17.78
34.52
59.12
24.58
22.63
19.98
20.68
35.22
23.5
16.94
14.94
16.85
22.58
30.83
20.4
18.99
18.65
16.05
18.15
18.57
20.21
21.83
18.84
18.54
15.56
20.44
33.93
17.65
13.52
13.45
13.58
15.57
23.09
21.17
20.53
15.32
14.17
13.79
40.27
16.78
15.85
14.62
13.03
16.55
14.06
12.56
22.26
21.29
16.56
20.08
14.03
16.56
25.09
18.46
19.84
16.91
15.04
13.55
15.24
23.33
18.74
19.04
16.97
12.63
16.29
15.03
31.52
16.59
17.62
19.03
12.03
12.34
16.43
21.72
18.05
23.9
15.21
16.68
13.04
21.3
21.0
16.49
19.07
14.48
15.66
14.55
37.78
17.13
17.36
15.27
12.02
15.02
15.99
22.17
17.9
19.3
21.94
18.62
16.7
19.99
21.16
21.77
17.68
18.08
13.01
16.69
31.66
19.07
19.56
14.44
16.66
16.1
42.91
17.7
15.54
12.02
15.79
11.63
13.05
25.08
22.74
36.24
14.28
14.06
31.01
31.06
20.29
21.97
13.04
13.43
23.37
21.09
19.6
16.04
14.61
13.63
14.5
22.35
21.99
20.25
19.17
19.36
14.68
16.59
26.47
19.53
34.12
15.04
18.05
18.67
21.72
20.36
15.22
14.79
14.16
16.51
21.84
20.29
34.64
17.54
13.03
15.29
21.58
24.09
21.06
21.53
22.58
13.68
40.28
17.23
19.3
17.13
12.75
14.97
23.59
19.89
22.07
31.93
15.13
17.63
18.81
21.13
23.02
20.23
16.1
13.14
13.7
43.21
17.58
13.23
15.39
13.08
15.79
19.12
18.86
22.16
16.06
14.62
15.15
12.01
21.47
21.54
23.17
19.77
15.69
13.75
14.24
20.69
22.5
17.05
16.54
15.52
14.16
14.19
21.64
18.57
18.89
16.58
14.33
13.71
12.32
39.38
15.64
15.48
15.28
15.43
13.56
20.11
18.1
21.31
15.54
16.76
13.72
16.05
20.25
23.82
20.48
14.84
14.2
14.8
14.42
22.63
22.01
39.25
15.79
12.41
14.67
40.01
18.13
14.04
15.1
14.06
15.9
13.98
21.26
20.56
19.07
16.56
15.72
15.03
15.15
24.57
20.21
17.92
15.68
14.05
12.54
23.38
35.25
17.09
14.14
14.15
12.3
16.74
20.99
23.07
18.52
15.54
13.03
14.58
14.29
37.68
31.9
15.79
13.15
14.25
23.69
19.27
25.14
17.53
12.6
13.04
14.46
25.02
19.68
16.95
20.56
23.03
15.28
37.57
18.28
14.49
14.78
14.66
15.22
13.76
20.62
22.12
19.75
18.84
13.03
16.05
13.37
19.55
22.07
32.14
15.8
14.74
14.09
24.57
18.81
24.92
17.87
21.71
15.28
15.54
22.43
32.81
18.4
19.58
16.55
23.54
19.86
18.75
18.36
19.12
14.54
13.84
19.77
19.18
19.38
26.77
15.72
14.9
23.13
19.96
20.26
20.88
21.5
17.03
38.27
17.73
23.79
15.3
15.71
15.63
21.95
20.57
21.06
22.23
14.7
12.64
17.06
22.88
22.69
20.58
22.73
31.37
22.78
23.12
22.57
25.14
42.16
14.97
25.61
21.43
24.56
19.53
35.99
33.74
22.82
35.47
16.44
14.94
39.68
18.26
18.7
20.69
18.85
21.74
24.36
21.49
16.75
23.99
15.04
15.03
21.99
16.06
16.65
37.02
20.88
18.18
15.13
13.24
13.61
21.91
22.89
25.8
19.87
17.16
13.66
27.8
21.21
43.85
17.05
14.43
23.8
19.08
25.07
20.56
21.57
14.55
28.15
20.15
21.54
17.48
21.19
18.7
41.76
18.13
19.7
28.42
17.58
21.57
33.41
23.52
35.02
18.03
16.13
17.03
29.91
18.98
47.25
24.13
21.59
21.08
30.4
30.36
27.9
32.11
30.23
49.23
27.57
48.17
24.65
23.58
30.73
23.74
30.02
26.77
30.0
22.69
48.21
29.05
22.14
22.92
40.5
26.58
18.24
20.07
20.65
15.55
25.08
29.1
23.59
30.85
18.57
33.19
32.11
24.81
15.81
23.18
26.7
26.09
26.9
30.39
19.78
23.22
22.64
18.7
35.87
12.33
12.62
12.57
11.53
21.53
32.53
19.18
13.51
12.03
11.67
36.23
15.15
16.04
10.07
10.52
14.58
10.62
13.11
23.25
18.54
19.14
18.07
11.04
12.57
10.54
13.11
28.82
17.59
14.2
12.02
13.55
10.16
13.04
25.11
18.75
20.56
20.05
12.04
10.03
14.66
22.26
18.85
21.65
21.66
17.19
28.72
9.93
17.59
21.75
19.79
15.58
11.47
11.03
12.14
16.48
20.58
25.04
11.02
10.64
11.53
10.08
12.04
11.49
42.15
16.57
22.99
11.72
10.53
15.67
22.82
18.14
19.67
13.7
11.29
11.42
10.04
11.12
31.02
15.71
44.75
17.37
22.59
30.22
25.39
20.72
22.17
17.58
19.09
21.69
19.96
22.07
25.36
28.45
15.07
21.6
21.22
19.29
15.09
33.26
18.84
21.79
21.8
12.52
10.22
10.19
11.32
24.17
17.23
20.0
21.17
24.13
23.25
19.1
20.37
22.07
11.56
12.05
11.21
9.03
16.61
32.77
19.4
17.66
11.08
9.06
11.64
33.97
14.56
20.35
12.18
10.13
11.38
9.78
11.71
22.25
23.64
16.7
24.11
12.07
11.53
12.07
18.21
18.06
20.69
21.83
18.83
13.67
11.95
21.76
32.28
18.25
14.47
9.81
14.04
35.11
19.4
20.9
9.62
13.35
10.34
10.16
11.69
20.07
24.15
19.09
20.09
13.18
12.18
9.25
13.06
18.19
15.04
18.87
12.81
11.11
14.11
10.03
10.12
18.58
35.62
12.95
11.03
12.73
11.04
10.52
12.69
19.77
24.78
14.61
10.12
13.23
11.23
8.24
10.6
41.76
13.8
11.19
11.03
11.94
9.03
8.68
13.55
21.09
29.66
12.54
10.79
11.04
8.84
11.11
9.22
20.14
16.08
20.83
18.05
20.22
11.04
9.03
14.55
31.58
13.14
13.22
9.52
11.11
12.3
10.51
12.89
21.73
22.0
30.08
12.04
9.04
11.53
11.05
21.62
20.25
19.82
19.47
17.56
13.05
9.03
10.14
34.6
14.71
15.03
10.53
10.03
10.03
11.03
12.94
21.62
16.58
23.58
13.51
10.68
12.81
11.52
22.06
20.2
38.39
11.04
10.96
11.13
10.1
9.11
12.6
24.59
24.66
12.73
10.61
13.56
12.47
20.09
21.1
19.62
15.6
9.51
12.17
11.68
9.41
22.85
19.67
18.77
19.82
21.13
11.05
11.16
8.06
13.03
19.19
22.65
16.68
21.6
12.04
11.03
10.03
40.79
12.46
16.58
22.97
46.89
23.39
17.71
19.62
22.31
14.09
33.7
24.03
19.64
17.71
16.15
14.5
22.55
23.2
18.57
27.27
21.27
15.69
24.51
22.3
23.07
24.6
17.68
15.02
23.58
32.13
17.57
16.56
16.08
15.03
20.68
21.43
20.66
19.07
17.9
15.59
27.16
29.14
20.31
20.1
15.72
15.63
39.8
39.37
16.54
15.64
13.6
23.54
22.63
19.55
20.08
19.09
15.57
25.13
21.76
20.79
20.77
14.82
16.26
16.1
23.22
23.23
19.62
18.71
20.74
41.16
22.61
17.57
19.73
21.69
59.91
14.54
19.95
20.95
11.36
10.09
45.52
14.68
11.11
14.35
11.11
13.59
13.72
22.45
19.21
18.56
15.55
12.33
10.53
22.08
19.46
20.05
12.74
10.7
12.55
10.13
10.03
35.7
15.29
14.88
10.52
13.02
11.55
10.11
15.06
41.44
16.04
11.79
13.03
13.11
13.79
37.49
13.65
15.04
13.43
12.77
12.79
13.2
10.03
23.62
18.64
31.59
13.81
13.11
11.62
11.04
17.45
21.08
23.59
29.44
13.52
11.54
24.58
20.33
24.24
21.12
12.65
9.63
12.63
23.16
40.43
15.67
10.28
13.51
11.1
12.55
22.69
25.32
15.74
11.53
13.56
10.52
13.05
27.12
16.08
26.56
19.57
21.02
11.05
10.04
47.33
16.32
11.52
9.51
12.04
12.53
10.03
24.44
21.59
33.44
13.67
10.04
14.03
12.04
29.34
17.5
31.72
13.07
9.53
13.1
23.29
19.79
20.88
19.17
11.55
10.59
12.4
12.13
27.66
37.1
12.6
10.04
9.51
13.06
22.07
21.54
16.3
20.12
23.3
16.57
23.58
18.05
21.07
16.55
11.27
15.48
29.47
15.54
19.06
22.38
12.63
9.65
22.09
23.64
19.05
35.17
23.12
25.21
20.47
17.48
19.58
21.86
17.79
33.7
21.79
21.7
22.39
17.91
17.57
24.31
20.08
18.12
13.1
13.03
10.91
23.56
16.17
19.15
31.58
11.71
10.16
11.06
23.16
20.92
13.62
20.6
11.64
11.51
12.95
10.02
21.78
21.7
15.75
14.52
14.55
14.06
11.55
11.56
36.67
16.07
16.57
12.5
10.17
12.74
11.03
12.02
30.16
19.11
20.73
15.54
12.56
11.02
21.6
18.29
17.96
16.54
13.37
10.12
11.21
10.71
36.54
20.08
15.75
11.02
12.02
13.56
11.52
16.57
17.1
23.58
15.31
23.68
17.55
11.6
15.05
25.78
19.67
32.05
12.87
13.21
12.1
25.33
27.7
15.04
11.66
11.54
9.86
9.52
16.06
17.56
22.09
18.16
12.04
12.62
10.53
13.04
14.3
17.15
21.23
21.56
15.59
13.21
10.6
12.46
14.04
37.9
14.53
23.1
40.94
21.89
24.31
21.35
28.89
20.74
20.58
20.86
22.06
15.55
37.31
19.08
22.08
21.03
18.58
20.57
18.22
20.61
16.64
18.04
14.56
18.07
18.12
20.56
21.76
17.52
14.07
14.67
15.57
39.61
17.57
16.21
15.59
13.06
15.02
20.69
18.68
21.58
16.12
13.04
16.03
14.06
21.12
21.16
21.94
16.84
12.03
15.97
27.11
19.42
18.03
18.1
13.59
12.48
15.2
35.99
18.89
15.83
13.97
11.73
13.66
14.65
15.0
23.2
25.68
18.92
15.21
11.62
15.08
22.46
19.72
25.68
20.59
15.57
11.04
7.02
9.57
13.12
20.14
20.16
12.03
10.52
10.08
9.11
10.66
12.58
19.76
28.23
13.98
11.27
14.38
10.23
11.56
39.9
15.82
15.19
11.63
11.02
11.18
9.03
13.12
25.42
21.07
15.09
15.55
11.43
10.95
10.1
11.63
11.16
22.56
19.25
32.6
17.92
10.52
10.02
17.57
31.14
16.1
12.33
11.16
12.56
13.58
13.03
17.34
29.41
15.94
10.63
8.53
10.52
11.63
12.55
26.21
17.33
12.76
13.66
10.54
14.05
11.39
11.56
22.1
20.09
25.65
15.13
12.09
11.68
12.33
31.75
15.57
21.79
17.5
13.66
13.16
14.68
16.59
30.13
31.77
15.14
11.18
23.43
17.13
18.85
32.55
11.65
9.51
13.97
36.3
13.11
16.95
13.75
11.19
10.74
43.54
13.04
12.63
13.31
10.52
9.53
11.56
11.67
24.09
19.06
23.05
15.56
11.03
12.55
40.29
15.19
13.87
12.19
11.81
11.13
9.02
13.35
15.95
37.32
19.09
11.72
12.04
10.81
13.59
11.94
38.82
14.08
13.69
14.2
12.22
10.13
12.47
22.07
30.93
21.08
15.07
15.05
12.07
35.74
15.05
21.86
24.4
12.72
9.63
12.61
14.01
22.92
30.5
14.71
13.28
9.16
12.1
40.76
15.76
19.88
11.14
10.03
11.12
10.69
10.53
24.4
31.86
13.02
11.1
8.6
12.78
10.78
10.25
9.62
29.91
19.4
18.64
21.06
13.07
15.25
25.62
21.07
17.53
14.23
11.54
9.98
10.04
14.07
27.59
20.74
13.79
14.64
14.04
9.04
9.03
11.06
14.56
30.0
18.04
16.69
16.06
10.73
9.52
31.27
20.07
17.55
28.21
12.54
8.11
19.06
21.55
21.1
14.12
12.24
12.52
11.49
9.77
11.52
15.16
19.78
19.97
30.86
12.55
10.04
13.06
25.62
20.89
20.09
19.7
15.95
10.28
24.22
23.52
17.04
27.03
11.75
12.65
12.61
10.66
20.59
27.15
21.1
19.82
13.47
23.56
31.47
16.57
13.55
12.54
16.8
12.3
12.64
21.1
18.09
24.56
19.6
15.55
13.57
14.58
18.22
17.84
41.48
11.68
11.67
10.63
22.36
20.6
20.11
31.35
10.03
8.53
14.14
25.09
19.26
13.53
11.62
12.98
9.03
13.55
13.53
14.55
24.08
16.71
30.49
13.3
12.77
9.61
33.7
20.04
14.04
11.07
11.52
11.2
13.19
11.94
10.68
9.48
23.3
18.73
21.29
13.9
10.82
14.03
22.39
31.43
17.12
19.53
13.14
10.16
28.89
20.84
16.56
13.43
23.49
11.94
14.94
23.15
18.58
22.07
11.59
10.04
12.02
10.03
15.28
15.73
21.79
22.13
30.88
45.16
51.0
26.37
25.19
66.43
20.96
32.06
59.56
22.59
21.14
41.56
36.08
21.17
25.32
29.91
31.75
21.29
18.3
24.15
28.69
34.53
22.6
40.78
21.65
17.35
19.2
20.79
19.0
19.3
22.41
17.87
30.3
32.77
19.57
21.33
22.06
32.91
24.59
23.03
23.07
23.37
14.75
18.99
18.91
19.59
27.65
17.52
15.04
16.08
18.3
21.89
24.76
16.86
21.33
15.06
22.01
20.03
20.65
34.41
15.35
14.27
33.52
33.66
21.84
15.06
14.04
24.07
27.86
28.55
16.31
9.51
9.03
11.05
14.54
27.81
15.2
10.83
9.98
9.31
11.53
11.56
9.1
17.78
18.77
20.6
21.26
18.71
12.72
13.19
18.89
22.12
21.09
17.68
12.94
13.27
13.6
20.3
17.67
21.46
15.93
14.15
12.17
14.39
13.03
26.28
18.2
18.41
16.84
