cv_inf_ms,proc_time_ms
1418.778,1472.55
115.742,133.78
123.802,138.72
137.155,152.14
116.53,130.94
121.519,148.9
136.295,149.25
130.047,144.58
126.824,140.92
159.455,173.3
148.402,185.65
149.156,181.63
139.342,219.01
148.574,210.98
150.796,171.27
113.855,140.64
129.02,146.15
122.238,145.93
131.734,152.65
110.132,134.58
91.654,115.27
94.626,118.12
118.574,137.41
122.052,151.97
109.75,173.31
98.761,118.08
85.282,108.24
89.584,109.94
114.261,138.22
96.046,124.28
123.099,151.23
105.772,131.09
132.641,157.1
131.182,155.55
114.569,139.09
115.914,138.77
143.999,166.4
118.691,142.9
125.552,151.62
99.932,124.6
80.22,106.89
122.953,150.33
103.011,125.41
124.629,150.86
123.942,145.17
136.55,166.34
131.422,150.3
118.416,149.97
115.963,141.75
108.194,130.42
112.282,137.4
116.767,141.19
132.635,155.18
94.456,143.08
130.351,144.86
117.54,133.56
77.249,119.89
128.064,149.12
83.108,108.71
85.885,119.0
115.379,127.58
138.261,150.72
122.832,173.64
126.66,139.02
137.123,182.08
124.153,137.18
151.415,169.93
99.71,140.34
97.84,113.74
112.268,122.51
130.896,140.88
131.64,143.4
119.998,131.57
137.15,153.86
130.435,151.34
97.492,107.77
117.67,133.64
70.614,84.11
100.792,112.51
112.508,124.5
124.084,137.83
112.346,124.88
109.75,120.88
131.175,144.52
118.396,131.54
110.82,123.95
104.472,118.36
134.075,148.7
123.443,180.38
123.001,174.72
119.497,161.87
144.63,157.61
85.403,121.6
96.38,124.99
112.826,128.38
128.563,145.76
119.268,150.33
114.508,130.73
84.175,100.59
112.336,126.65
131.908,146.2
128.195,147.77
140.895,157.01
95.46,112.35
94.387,122.09
88.063,102.53
101.61,121.8
115.806,129.88
92.485,129.79
98.104,129.63
115.15,129.74
115.162,130.06
113.354,126.74
110.34,129.25
114.557,130.13
113.558,128.6
112.744,127.99
113.13,128.2
110.503,126.01
112.077,128.81
126.078,140.23
114.649,128.29
111.929,125.85
106.086,123.1
109.475,124.53
111.809,128.43
109.326,126.54
108.866,123.91
113.217,132.24
110.121,124.28
109.768,123.45
98.629,112.91
84.096,101.63
85.789,102.47
100.248,121.09
93.94,126.69
107.41,126.99
113.324,130.12
114.282,132.78
142.544,157.26
144.172,172.12
95.072,110.03
85.66,101.93
125.948,154.75
75.554,98.61
98.747,118.33
142.069,161.32
116.955,134.19
145.992,167.63
85.479,102.99
110.326,131.34
85.607,102.12
94.289,122.48
121.391,138.79
90.61,113.95
112.424,129.98
112.238,141.88
110.769,142.9
135.219,204.27
112.378,135.99
101.207,126.02
141.622,166.96
117.475,144.32
136.094,165.61
109.729,137.3
91.236,114.93
91.951,116.48
96.835,119.13
113.682,179.97
119.636,144.89
113.726,133.49
126.873,150.04
134.229,161.68
112.198,139.27
97.215,126.06
92.771,119.92
95.65,124.27
97.762,136.24
111.541,139.2
93.169,122.03
128.699,163.37
130.152,157.7
117.695,141.0
111.614,134.54
134.366,159.22
123.725,151.59
128.821,153.42
130.64,155.95
112.35,133.96
106.625,167.96
128.804,149.32
103.285,128.95
125.444,157.86
126.289,154.47
139.381,166.53
108.613,127.85
110.105,131.53
107.027,132.04
106.029,128.19
107.112,133.3
114.473,142.0
121.75,148.8
96.307,138.07
103.038,129.96
101.767,132.91
118.041,139.3
85.521,112.13
112.864,135.89
111.326,133.59
100.301,134.12
126.976,149.61
144.879,171.11
103.311,126.03
95.334,118.14
95.99,120.94
137.883,161.38
139.71,167.36
106.954,130.75
114.556,139.99
109.342,134.11
121.772,150.33
124.852,166.67
105.588,144.42
125.642,143.38
121.459,163.34
102.202,126.31
101.514,126.91
131.664,149.03
152.39,175.83
87.472,108.51
143.803,167.66
106.135,129.04
113.196,162.51
109.234,131.61
128.635,148.74
108.044,126.51
109.794,129.72
133.194,155.72
93.489,128.94
96.153,123.21
97.867,123.03
103.136,126.34
134.176,160.23
134.935,160.1
112.925,165.9
110.312,156.35
120.78,151.24
99.655,135.28
129.968,139.11
114.326,135.79
134.411,156.81
72.488,121.51
129.947,144.11
855.146,881.83
105.88,127.93
161.212,175.6
126.179,133.21
108.088,122.2
130.125,141.44
112.323,120.22
120.399,126.21
108.305,116.04
124.918,131.27
101.957,118.04
174.345,197.19
127.364,135.82
128.514,139.24
139.544,154.04
126.425,144.61
122.766,147.34
136.274,151.89
129.131,141.33
140.389,152.81
133.472,154.71
143.712,163.97
167.054,182.74
135.352,149.5
136.532,148.57
163.233,188.3
131.725,143.74
127.774,143.5
107.64,120.18
151.285,176.88
124.342,139.96
137.376,159.89
139.044,159.27
127.482,149.89
115.123,141.55
127.944,141.23
149.382,164.33
111.997,127.55
113.216,129.62
89.438,107.69
126.159,144.2
148.138,215.66
146.339,170.99
116.955,165.02
113.838,130.86
110.163,126.8
143.113,159.81
121.717,142.2
142.347,160.95
130.184,150.65
139.338,156.48
118.567,137.44
134.449,162.98
129.873,172.17
168.196,192.53
124.638,149.79
147.043,209.84
122.631,181.27
129.379,177.16
147.211,164.91
105.818,122.8
125.066,180.41
145.39,196.55
132.954,183.5
124.19,163.0
128.145,170.11
121.084,168.09
137.692,178.35
121.734,136.25
129.11,178.28
92.979,110.8
124.375,139.69
109.351,150.52
112.812,123.99
105.905,117.83
74.25,87.01
129.446,141.07
118.129,143.09
87.56,101.02
104.203,116.22
89.615,102.97
119.525,131.04
118.322,131.68
115.726,155.41
160.025,177.35
128.184,152.77
127.814,167.1
105.382,117.79
112.503,126.37
104.813,116.66
115.125,128.45
125.144,140.93
118.75,131.51
112.035,124.12
115.345,126.84
122.118,134.35
127.094,179.41
90.319,113.59
124.155,139.92
120.849,170.35
110.954,127.26
98.64,139.69
79.449,94.7
118.592,144.09
153.335,207.56
128.735,163.83
118.423,140.92
98.622,119.98
123.533,154.34
107.056,136.64
107.108,128.35
79.243,103.06
140.684,165.91
99.659,121.6
127.766,152.0
113.767,132.38
135.537,152.94
113.633,132.74
123.613,151.82
121.691,151.57
148.629,171.76
89.882,118.78
84.374,107.83
96.782,121.19
124.405,148.95
121.939,149.76
112.84,139.16
98.435,132.36
87.607,114.39
76.445,101.0
128.703,162.71
123.439,150.12
78.253,104.22
96.186,126.11
88.253,118.54
148.655,183.04
101.102,127.71
117.372,151.97
123.042,152.77
105.388,127.24
113.013,136.08
109.045,131.49
129.322,150.77
117.249,149.12
97.277,121.7
108.572,136.09
108.463,136.53
128.558,159.23
71.745,98.91
89.529,117.58
91.689,117.36
117.994,150.81
92.994,121.83
118.647,151.84
124.986,148.58
100.242,126.13
109.972,134.76
110.883,137.66
109.287,132.3
112.217,134.21
108.197,131.21
107.961,131.44
113.937,138.21
127.886,155.87
104.13,127.7
106.939,131.44
130.918,154.9
94.993,122.23
101.163,126.9
117.002,140.95
87.03,115.12
146.404,175.06
133.148,157.27
128.714,157.98
116.474,136.15
126.236,144.41
135.12,163.61
106.734,127.93
83.514,105.28
107.631,131.21
150.187,173.31
90.474,110.93
79.326,102.15
152.256,185.72
83.787,109.05
80.911,104.21
112.205,142.77
112.411,135.17
78.87,107.19
147.781,176.04
87.682,112.23
78.558,105.07
95.882,120.56
96.118,124.82
98.037,124.97
113.363,136.5
110.504,133.95
125.215,188.96
132.339,165.7
136.471,188.61
159.476,183.1
81.046,101.41
150.185,173.59
108.542,125.88
113.764,131.15
117.224,134.0
121.652,137.4
116.842,133.5
125.441,142.07
143.997,170.27
141.23,166.33
116.051,156.1
100.73,144.13
95.691,130.07
78.079,131.64
124.644,149.19
142.711,191.2
139.78,154.42
110.653,159.76
144.954,194.0
123.939,177.23
130.713,172.77
146.817,196.16
129.036,168.19
93.27,142.14
102.61,155.23
109.438,155.55
117.702,170.33
144.407,161.05
126.459,150.38
115.856,133.36
102.832,117.49
101.226,116.58
86.237,103.75
98.63,117.12
81.967,100.45
125.66,170.19
162.527,187.17
115.721,137.9
110.904,128.71
109.465,126.81
113.076,133.6
115.884,133.42
146.619,168.8
154.335,193.44
96.282,114.76
86.409,106.84
153.358,181.72
115.075,135.92
111.958,132.74
127.563,145.46
132.493,156.26
108.849,134.62
121.657,143.4
117.196,138.79
84.585,108.21
84.172,106.0
103.441,127.09
141.323,174.41
128.517,154.91
121.035,144.39
92.842,116.36
97.466,119.75
95.938,117.72
89.679,113.82
79.548,107.65
127.194,153.74
75.357,101.92
116.653,139.21
95.534,122.79
100.584,127.13
111.286,140.92
123.641,147.21
117.377,150.52
146.231,173.44
121.805,149.98
935.726,965.65
128.642,139.21
143.248,152.71
164.644,178.19
74.189,95.91
156.87,169.22
135.086,148.77
159.207,169.74
119.098,131.1
129.887,148.55
125.804,135.72
113.783,131.97
113.49,124.17
118.265,127.11
109.662,122.08
126.123,136.24
108.356,116.66
153.087,174.97
115.897,135.27
145.308,160.81
112.925,146.89
116.604,133.84
137.712,161.4
121.822,131.95
117.623,132.45
118.056,133.37
131.553,142.35
110.219,123.63
113.436,122.41
119.232,132.42
122.369,135.65
143.548,153.96
142.697,156.86
145.446,167.55
127.08,143.78
146.66,158.35
124.422,137.54
131.372,143.37
134.723,149.3
159.767,176.19
87.152,101.18
154.28,176.95
95.404,110.23
92.182,121.75
112.411,130.42
96.344,112.38
103.296,126.72
149.558,167.6
133.108,153.0
110.714,158.08
118.834,167.71
109.474,161.52
145.317,205.31
143.126,164.35
98.724,124.97
154.663,182.51
135.944,162.8
120.665,138.4
123.66,143.54
115.585,136.25
94.06,115.04
130.309,154.17
115.715,136.65
108.202,128.34
125.381,147.3
120.39,142.4
132.168,155.73
111.409,138.99
160.669,188.46
113.27,141.61
117.686,142.45
114.119,138.42
113.901,138.36
105.893,129.04
120.119,149.02
110.774,135.02
146.229,182.66
98.305,121.1
128.121,152.71
98.775,121.29
90.822,123.45
104.385,138.37
101.288,129.37
134.523,181.57
142.9,172.05
120.191,175.05
113.536,130.3
113.083,134.76
102.433,128.99
129.479,159.13
127.966,160.93
134.606,158.52
101.411,125.25
127.983,153.01
125.138,145.82
96.779,119.63
87.352,108.9
83.116,107.95
99.051,124.67
100.323,123.25
95.914,123.33
101.934,129.2
126.275,147.64
110.687,138.34
108.521,131.14
92.386,119.04
99.743,130.63
130.215,165.58
146.931,180.96
135.647,177.49
130.424,171.45
100.098,153.63
132.32,155.47
109.255,150.26
111.263,127.37
104.841,125.4
84.788,101.29
94.976,117.87
87.624,107.88
114.877,136.32
93.991,115.75
131.154,148.61
87.694,109.6
112.307,133.95
100.944,124.36
124.833,145.73
98.399,122.37
94.265,123.86
112.608,132.25
111.522,132.31
103.235,136.11
131.127,163.09
79.4,99.68
100.404,124.54
145.883,169.36
105.07,125.97
125.003,149.86
107.381,127.93
148.326,172.65
115.996,134.61
109.529,130.62
125.278,146.81
111.629,133.04
144.122,162.17
119.901,149.83
116.967,141.56
130.994,161.26
102.117,123.43
100.28,121.42
122.473,144.49
100.791,121.41
130.104,157.72
113.806,133.07
125.849,146.88
122.045,144.41
128.691,157.17
130.457,154.49
87.284,111.25
162.983,188.17
122.864,146.57
160.303,179.44
124.231,144.26
136.097,162.61
133.79,154.43
112.123,134.56
133.308,155.45
117.971,171.47
127.039,171.28
145.982,183.35
152.5,199.2
96.046,112.72
139.176,161.52
109.963,129.47
110.12,130.44
114.349,131.67
122.391,141.11
110.524,129.02
115.632,138.17
128.049,144.39
114.394,131.37
127.66,144.74
127.264,144.16
113.251,138.63
112.149,131.87
93.861,120.72
101.355,125.4
97.574,121.06
102.162,134.02
110.643,128.41
101.863,134.78
108.805,131.35
107.867,143.87
152.618,209.06
147.216,173.03
123.064,149.79
78.585,104.52
151.551,176.06
101.088,123.73
87.953,114.08
102.378,127.27
110.243,137.54
74.701,100.9
116.202,141.83
104.094,129.95
112.837,142.04
103.545,129.27
147.688,177.34
108.441,130.96
116.443,140.96
111.962,136.72
116.462,139.02
105.139,129.79
118.092,144.31
107.791,133.14
96.544,128.3
112.558,134.11
112.798,140.88
92.616,118.48
108.922,132.95
155.025,178.94
118.559,142.25
106.523,131.55
103.02,125.9
115.21,136.48
109.867,130.18
117.992,139.64
110.704,136.67
112.123,138.49
117.162,140.14
132.869,172.69
122.807,176.74
130.362,149.76
106.233,124.78
85.186,105.24
107.819,129.56
130.978,152.03
151.292,170.05
110.876,129.94
109.725,128.18
124.572,142.2
139.757,159.4
171.208,220.61
122.216,168.07
98.84,110.93
125.981,139.37
143.696,160.66
112.934,125.08
99.973,128.49
112.966,125.31
115.223,130.42
115.242,128.74
127.845,138.96
114.347,151.65
154.498,171.37
95.259,109.02
133.332,146.79
127.253,182.76
132.352,152.09
143.463,163.85
132.178,158.32
119.466,176.61
115.554,136.49
127.075,150.18
102.184,125.48
148.825,170.75
100.595,119.88
79.073,101.93
89.22,114.99
96.245,120.08
99.94,129.78
114.838,138.67
93.628,125.95
100.048,125.67
116.047,137.21
99.739,135.38
110.441,134.76
70.834,98.28
118.547,143.92
78.119,103.69
102.233,134.02
100.772,134.62
93.217,118.79
100.067,125.32
97.573,136.64
88.742,109.66
111.395,137.91
112.011,133.59
99.519,130.43
125.284,150.95
122.776,159.83
82.136,105.81
98.227,129.04
124.934,150.42
78.71,104.23
93.395,114.58
112.134,135.02
128.401,148.27
84.365,111.72
112.119,137.83
146.546,170.28
126.204,154.4
125.676,148.43
124.466,150.37
116.927,142.54
133.895,154.82
99.062,162.3
143.75,170.25
119.558,142.18
137.203,157.54
126.47,148.36
119.546,145.11
85.579,111.27
128.282,153.73
83.459,126.92
115.927,133.37
90.073,112.64
101.561,123.38
99.834,122.63
123.14,152.53
144.283,173.06
110.833,137.32
90.553,107.91
107.777,131.93
89.639,115.92
78.382,108.58
103.843,132.67
92.66,118.98
103.966,129.29
129.358,152.44
140.336,164.36
125.596,146.78
131.337,150.62
128.462,148.52
133.042,151.62
131.007,164.14
112.726,174.65
123.304,147.25
119.008,180.47
136.014,159.04
133.907,158.36
131.856,151.46
109.445,130.92
121.047,143.1
116.696,137.56
141.419,199.13
144.58,166.1
133.346,151.08
127.334,151.41
119.519,136.79
123.033,145.66
135.883,156.87
95.644,114.97
132.281,161.18
122.899,142.41
132.518,153.12
124.895,147.15
111.511,129.19
114.359,134.97
125.674,149.8
162.6,189.89
116.313,174.32
102.414,163.52
114.42,134.43
128.775,184.32
128.596,147.43
133.346,156.12
108.657,134.16
128.349,152.7
118.848,155.09
94.999,116.11
105.006,129.28
83.92,137.54
102.82,125.43
133.977,159.57
128.856,151.78
100.098,126.78
122.373,146.57
133.677,151.45
121.537,140.74
137.901,160.39
135.008,164.18
124.346,171.3
137.439,169.05
126.916,151.03
111.971,132.1
133.67,158.25
104.677,160.13
126.558,189.57
120.546,140.41
166.658,188.34
132.458,153.77
117.531,177.84
127.957,181.85
144.432,207.33
117.138,149.34
100.853,127.52
112.971,136.59
98.146,119.91
114.536,135.79
107.75,129.59
95.306,137.83
97.813,127.73
111.265,129.93
101.725,126.37
103.231,137.64
117.876,138.31
96.123,122.1
116.73,193.42
114.134,148.7
146.746,181.55
104.415,129.53
108.954,133.79
105.835,171.88
92.823,120.04
85.736,113.42
88.432,122.26
149.225,174.53
133.123,162.39
138.921,161.81
101.704,132.67
97.78,126.95
131.962,155.12
128.733,155.17
153.123,176.78
120.06,147.27
111.611,134.36
117.228,140.79
125.708,148.38
98.543,125.12
125.775,148.79
93.082,121.41
91.071,117.58
126.068,148.52
133.626,157.35
117.647,146.44
115.206,166.03
134.812,173.78
136.904,163.45
137.407,165.99
97.908,124.16
116.794,141.23
109.186,132.3
114.626,136.84
116.883,142.54
112.974,135.63
108.065,129.66
122.627,143.2
97.467,128.9
113.056,138.03
101.623,131.76
98.706,127.27
115.285,143.78
97.788,131.3
91.174,117.11
99.415,128.73
102.494,131.41
101.846,129.98
116.218,137.87
95.657,119.57
100.611,134.84
153.058,182.78
89.848,113.29
81.169,110.0
94.502,122.72
97.162,122.55
98.979,135.08
102.242,129.57
91.775,122.42
102.377,131.41
111.771,135.63
99.402,134.61
97.779,123.81
119.889,144.27
93.07,123.26
91.625,116.89
118.044,143.4
97.52,128.43
89.369,116.12
139.649,176.64
90.175,115.5
80.759,108.18
101.486,136.11
146.684,172.48
108.701,135.46
117.867,143.07
106.331,127.7
108.311,134.2
105.392,128.0
109.028,131.58
99.624,123.84
100.318,125.05
108.951,135.55
93.947,116.51
103.355,131.27
88.749,113.18
94.558,124.4
89.627,117.31
108.479,135.03
116.906,145.5
111.26,140.11
97.808,123.66
88.601,113.89
94.142,119.74
125.325,155.76
86.066,111.91
90.057,120.19
137.698,162.09
84.349,112.49
72.627,99.88
94.983,125.37
99.668,128.01
93.052,120.35
96.641,124.37
106.704,135.63
96.925,125.76
115.19,139.36
98.236,129.4
101.937,131.48
107.298,130.86
96.545,125.91
101.159,125.5
104.305,132.78
92.241,123.01
105.756,140.8
149.814,181.21
92.764,117.23
75.924,105.34
91.96,116.99
88.509,122.42
94.016,126.15
112.724,137.74
97.829,127.95
106.795,135.61
97.011,130.33
100.303,130.77
98.377,126.37
105.545,137.92
110.985,133.78
116.23,136.31
112.261,131.37
107.191,127.49
115.243,137.65
127.909,147.81
112.715,132.87
110.104,133.23
92.765,121.71
109.482,131.1
100.898,130.79
102.125,136.08
116.317,140.05
109.499,137.56
96.695,125.66
118.943,145.95
80.582,107.22
92.411,120.96
116.478,140.46
88.656,116.72
100.745,128.17
109.017,133.28
98.818,125.52
104.165,135.34
120.716,165.73
107.368,134.48
77.646,102.43
97.717,130.3
86.913,119.29
102.257,136.01
112.935,139.08
92.44,119.64
96.138,126.27
109.489,136.98
98.809,125.49
93.723,123.17
106.321,130.26
101.38,139.68
95.154,124.89
117.721,141.94
94.892,125.07
96.229,123.92
119.579,140.75
93.161,119.86
104.431,131.5
110.068,135.47
90.255,122.18
103.712,134.83
141.051,175.2
95.48,120.08
105.466,132.42
124.725,156.47
133.081,159.73
111.417,136.47
97.111,134.27
93.641,126.49
94.094,129.57
123.32,152.56
125.832,154.33
147.207,176.03
116.798,142.97
129.152,157.3
166.766,206.71
101.388,129.73
116.966,139.61
112.674,143.43
121.473,147.82
128.58,156.24
110.956,141.17
131.089,160.81
140.496,170.42
131.477,158.95
127.129,152.3
96.829,122.72
120.927,148.53
136.773,164.7
133.748,163.7
142.769,169.22
133.087,154.29
123.239,151.16
112.874,139.49
145.891,173.09
98.802,125.36
132.072,158.93
106.453,131.97
101.817,160.66
103.162,127.53
127.888,153.48
124.137,146.61
146.761,175.4
105.245,127.19
145.909,170.42
129.134,149.75
131.651,155.36
124.766,154.08
119.902,146.85
110.885,158.88
117.672,137.65
119.733,139.27
105.471,133.51
138.242,182.37
107.09,137.59
89.504,110.7
75.872,99.16
114.807,190.41
134.583,166.8
151.702,187.4
120.933,145.39
138.243,161.3
107.714,129.86
118.224,143.62
111.365,134.13
125.432,182.12
111.621,138.5
138.384,203.19
142.134,158.38
141.131,163.41
135.156,159.03
130.814,149.38
161.827,178.89
119.392,135.57
115.382,135.82
113.433,135.18
141.504,158.51
142.394,160.36
125.544,142.45
133.012,148.92
167.094,182.64
142.046,169.64
114.49,132.23
135.06,151.79
112.003,131.57
95.882,111.92
98.857,128.08
90.281,106.96
138.857,163.43
104.767,120.06
127.773,142.86
120.338,139.92
113.651,144.42
139.744,184.95
112.503,132.43
104.917,126.33
88.508,140.1
115.923,129.75
87.792,107.59
126.517,146.86
102.203,119.06
137.02,156.8
138.511,154.4
89.55,125.67
145.526,191.06
135.503,161.21
131.023,145.91
90.743,113.43
86.616,105.54
133.735,164.42
89.214,108.0
98.319,116.44
99.673,122.19
111.919,131.31
112.214,128.81
131.282,146.33
107.632,136.55
91.316,112.59
113.688,131.78
118.335,133.09
101.755,121.34
115.096,131.37
124.223,139.09
88.225,104.3
95.632,115.44
109.994,123.58
116.868,134.88
108.492,134.85
102.967,126.5
137.899,168.02
136.15,153.31
120.32,139.77
129.663,143.4
116.727,131.83
113.561,126.37
99.364,116.93
109.317,127.56
88.616,102.44
139.24,157.68
137.673,191.2
121.463,180.68
121.325,176.54
111.287,170.3
151.57,169.1
126.351,148.26
124.767,180.6
118.908,176.49
163.43,224.07
118.188,171.62
124.827,176.05
126.825,169.66
115.368,165.53
105.932,142.83
71.94,85.56
103.789,121.05
134.939,144.85
143.411,155.37
91.535,105.53
95.519,113.14
105.926,145.75
102.449,126.66
144.195,166.78
114.959,131.83
84.229,98.9
135.556,168.89
71.081,88.01
90.162,119.69
116.295,134.98
110.332,132.11
98.385,117.01
104.577,120.88
117.383,131.93
113.832,127.87
113.48,129.99
114.86,133.3
127.607,144.64
111.506,127.45
103.373,124.78
116.856,137.64
111.724,127.66
113.495,130.42
105.349,134.45
110.153,126.54
101.99,127.1
128.625,144.75
102.865,126.93
115.515,131.07
105.351,126.65
103.388,123.23
102.723,124.53
99.675,123.96
140.833,155.49
94.905,112.12
98.257,122.51
111.238,138.38
96.202,124.38
104.201,122.05
98.566,126.55
120.218,139.52
99.915,119.55
114.054,127.29
110.776,126.75
114.044,131.09
117.411,137.8
125.748,141.78
140.281,168.1
121.362,183.95
111.846,133.13
113.615,138.86
112.907,136.78
107.286,130.51
118.81,144.03
103.726,128.79
101.229,126.94
98.838,130.05
102.3,130.7
110.034,139.2
98.231,123.5
98.457,130.01
113.211,136.85
92.224,118.41
118.155,137.65
102.278,124.49
121.729,149.53
102.113,126.56
132.449,152.55
105.363,171.15
141.193,168.26
136.833,158.36
113.59,134.4
109.74,146.57
128.554,156.88
112.458,133.94
126.048,147.58
99.982,126.91
115.342,145.24
113.24,138.15
119.191,140.05
130.205,150.49
115.57,141.57
129.61,153.37
100.737,128.52
110.063,130.13
92.454,119.22
102.642,128.8
93.066,112.55
156.029,177.17
106.165,134.44
111.011,133.7
92.483,113.43
141.433,161.72
122.055,143.18
106.032,132.49
124.522,148.03
128.903,156.8
112.62,135.7
105.67,129.96
98.033,121.66
93.804,121.05
100.936,123.68
104.304,136.13
98.791,127.0
122.587,153.03
125.773,146.31
95.363,118.98
88.007,114.91
106.613,131.99
96.284,122.54
98.929,127.39
100.939,135.78
93.187,122.7
138.542,203.85
100.934,125.24
123.295,146.43
108.823,127.06
123.872,147.83
118.017,138.64
123.814,140.73
133.842,155.6
123.297,147.62
92.821,115.68
123.268,148.38
116.297,140.43
89.688,109.66
93.451,120.0
111.633,138.0
93.561,116.03
105.458,128.24
119.167,144.13
148.401,171.33
131.27,152.21
96.193,120.51
118.813,141.93
129.99,153.72
93.315,116.31
106.244,133.26
136.302,159.07
145.506,170.49
118.918,160.37
160.836,207.31
117.712,144.11
119.431,142.17
119.855,145.67
132.504,157.9
118.757,147.3
122.199,152.29
144.785,173.16
126.155,149.98
122.85,146.78
146.297,171.78
124.988,152.73
147.017,169.68
156.705,182.17
86.898,112.62
127.607,158.62
116.124,140.06
119.154,142.4
132.13,155.71
159.069,180.14
121.739,149.13
144.968,171.06
131.874,157.96
159.665,185.65
112.316,135.95
122.81,147.01
133.912,157.45
108.985,147.99
112.521,144.86
136.184,161.27
134.611,202.16
128.064,194.37
103.809,127.87
113.272,146.5
98.471,122.02
122.565,147.54
110.656,133.77
128.499,154.74
116.836,137.22
120.029,152.04
90.139,117.67
139.489,165.14
95.959,124.6
79.392,113.56
120.649,149.9
135.192,177.88
114.384,137.47
125.745,151.43
129.123,150.35
111.881,140.44
128.18,175.55
134.758,216.71
141.707,162.69
111.822,129.09
125.024,149.18
144.608,173.97
108.034,129.14
72.726,91.0
88.894,114.2
93.229,118.93
98.382,129.77
104.842,134.94
67.829,84.14
143.005,161.4
114.961,134.98
116.392,138.98
109.764,135.62
117.387,136.72
105.653,128.51
94.458,118.38
103.517,126.38
112.328,131.8
96.779,120.17
116.266,133.06
131.186,161.6
134.071,174.29
122.27,150.31
121.41,144.74
121.503,138.74
102.411,134.12
99.334,119.48
128.699,147.31
109.113,135.04
106.937,123.44
122.232,149.98
96.652,116.73
95.409,119.85
97.728,126.28
106.684,132.22
100.394,126.58
100.19,127.91
116.856,134.44
102.807,128.26
97.372,122.81
133.333,153.14
114.016,136.44
128.235,153.42
97.248,119.65
114.38,133.2
117.476,136.14
134.919,161.2
101.474,124.4
117.438,167.44
113.856,160.1
111.811,137.67
136.092,166.36
112.167,154.23
145.09,211.73
131.525,183.91
110.136,167.77
105.314,127.77
100.898,126.05
109.218,138.27
123.312,144.69
109.732,133.43
113.893,140.23
130.547,156.59
142.76,169.36
95.43,127.05
117.33,162.95
133.886,175.99
149.838,189.6
111.077,142.22
115.648,139.35
132.532,200.29
133.706,206.96
101.344,127.44
115.368,184.35
156.872,229.54
119.575,150.17
145.091,210.3
100.609,162.4
137.063,196.76
120.41,177.25
111.281,178.22
112.269,183.32
99.721,160.73
115.208,180.88
119.216,187.77
132.858,192.4
92.141,144.24
129.054,177.11
93.289,122.78
104.882,186.44
115.611,180.12
124.764,186.41
135.849,199.18
126.65,152.64
123.545,152.56
119.041,156.75
117.158,146.86
132.224,167.03
169.297,197.23
164.607,193.18
128.044,159.84
114.369,152.18
155.636,179.77
139.326,168.79
117.354,147.65
127.464,160.89
113.153,165.08
133.591,181.2
127.236,171.34
138.051,177.79
127.646,160.47
119.702,142.35
143.942,171.98
135.425,163.35
105.548,133.74
87.221,115.63
95.689,127.34
122.266,153.57
131.587,163.89
151.658,179.33
136.656,163.89
107.96,140.79
130.711,171.93
129.916,154.82
98.96,120.2
112.176,130.25
96.183,132.93
120.287,139.68
140.685,167.9
107.4,157.71
131.416,158.69
116.812,166.5
147.085,176.2
111.982,132.92
108.917,134.57
89.811,108.06
98.94,124.53
95.999,121.57
125.28,153.97
162.544,187.51
112.338,135.04
120.161,146.78
123.531,145.15
136.539,157.74
135.729,160.86
114.382,134.75
133.173,198.39
134.418,162.47
96.384,119.95
95.857,122.46
126.283,154.51
110.614,132.69
123.775,147.19
113.998,140.1
117.035,139.02
119.72,143.87
138.943,164.74
141.536,171.47
116.655,137.25
115.325,133.48
106.64,131.24
115.831,137.36
105.839,126.2
117.641,141.47
113.421,137.43
120.191,144.94
116.821,136.31
91.939,117.36
132.869,155.76
97.97,130.25
114.668,142.65
84.498,107.36
113.467,137.92
148.289,173.12
86.766,110.36
92.036,120.09
84.459,112.63
91.677,121.82
90.485,117.02
94.082,124.67
102.697,132.22
118.49,144.16
125.396,153.27
114.332,144.96
114.584,144.08
117.212,147.12
143.787,174.52
115.283,136.07
115.524,142.34
117.649,155.69
96.669,126.42
127.892,162.89
133.215,158.04
104.749,135.56
136.845,165.11
134.771,197.37
108.224,132.23
121.385,140.63
113.989,127.09
103.239,132.07
92.528,111.11
114.631,133.64
124.035,139.1
123.44,151.19
108.692,130.88
147.812,168.9
124.045,143.57
84.894,104.04
126.628,153.18
102.713,124.39
98.137,119.15
90.867,122.05
98.02,123.32
81.544,104.66
106.065,125.13
125.691,158.77
114.509,193.17
127.243,146.71
113.959,130.89
126.335,145.03
96.327,117.25
113.769,134.23
118.686,136.83
106.634,134.61
126.937,147.17
150.525,170.17
92.506,110.88
77.585,100.86
118.382,137.63
92.549,111.09
97.684,118.8
117.385,135.32
103.965,130.49
100.867,124.94
116.37,136.54
147.373,171.47
146.293,179.79
124.503,157.25
150.432,182.67
141.008,162.18
148.778,173.16
146.762,176.25
168.97,187.32
104.765,121.36
134.873,153.31
132.899,153.17
136.853,154.64
140.726,157.19
110.356,128.82
107.042,126.07
119.338,137.78
132.906,148.57
117.912,133.99
120.652,136.69
140.024,162.53
150.087,166.39
130.695,192.44
110.68,129.26
127.747,145.77
127.558,141.99
133.942,147.74
119.823,145.85
118.875,180.7
119.995,138.34
114.06,128.97
122.095,136.6
132.419,148.34
146.184,166.65
124.683,154.3
147.98,167.41
101.819,118.54
91.356,108.99
95.67,121.43
92.663,109.84
116.924,139.13
96.67,118.2
101.767,127.47
100.266,122.38
101.498,119.52
113.407,127.75
133.754,154.19
97.703,126.09
97.547,118.85
118.936,136.6
106.407,127.85
110.935,131.74
108.227,128.05
99.537,125.4
109.172,128.85
139.067,161.87
124.245,143.34
152.877,176.23
131.009,149.56
113.788,136.21
112.209,129.24
110.737,127.82
111.12,127.9
109.143,129.14
112.629,129.79
118.094,139.09
108.442,126.42
109.73,132.37
111.734,136.77
121.884,146.33
96.098,150.71
116.568,135.93
102.184,131.41
100.242,126.0
100.233,126.68
147.259,170.18
96.233,125.55
103.203,130.0
102.765,129.32
89.576,111.7
146.494,173.67
117.892,142.86
126.393,156.7
98.65,120.81
133.915,160.93
122.731,143.57
104.679,138.01
100.079,128.41
144.983,181.02
118.88,146.86
106.799,135.41
114.786,138.47
116.008,142.36
115.423,140.95
116.886,142.62
130.75,160.3
82.77,105.96
113.373,147.51
141.271,178.29
102.311,122.32
965.327,1001.3
89.064,129.95
89.513,102.93
102.409,128.82
86.853,126.67
171.088,196.52
119.844,135.91
111.767,144.57
130.755,147.17
112.771,124.68
109.98,123.87
112.36,125.43
103.834,114.0
82.229,98.28
147.417,164.18
122.058,146.58
124.12,147.05
120.684,139.45
129.24,146.12
117.142,133.27
149.989,169.36
101.557,118.27
128.687,149.73
111.829,140.8
117.116,144.92
139.399,161.72
127.203,146.29
122.924,136.09
118.514,131.32
143.714,156.49
107.531,128.08
111.377,137.56
136.408,160.36
89.945,111.01
93.83,121.25
99.984,127.33
110.246,131.11
141.867,155.5
87.586,103.81
108.598,130.85
106.136,133.22
106.978,139.88
84.441,115.91
108.571,126.65
112.351,130.09
110.661,126.45
138.317,155.75
95.695,121.34
105.553,135.38
98.987,124.48
129.154,160.24
125.654,150.41
146.834,169.08
126.328,146.33
124.516,149.64
151.866,175.8
130.597,155.15
112.517,132.33
128.295,146.85
145.239,170.17
160.892,186.28
102.27,124.09
124.761,147.28
115.284,134.51
115.896,134.28
112.494,133.19
107.822,127.08
132.85,151.8
98.492,124.71
94.209,124.75
106.683,129.15
107.783,132.59
103.013,125.89
134.43,156.27
114.156,137.92
153.7,176.45
84.412,107.68
138.433,162.7
114.404,153.03
118.378,147.18
146.307,159.82
112.531,144.66
94.481,106.84
109.117,121.59
93.984,109.0
84.269,100.19
112.801,124.85
117.419,128.63
113.223,125.41
110.351,125.07
135.182,148.31
114.423,137.45
133.038,155.27
118.985,137.84
106.008,124.93
124.091,147.35
109.209,149.77
118.989,137.01
116.386,149.02
99.825,120.2
114.537,133.03
96.311,118.68
106.421,121.79
111.799,132.74
131.728,147.5
100.75,126.32
155.465,185.06
74.154,91.77
98.304,118.68
113.807,135.94
130.546,152.26
96.716,117.08
93.733,116.94
111.848,134.35
124.577,144.29
125.803,148.0
81.5,102.93
124.246,154.4
112.443,134.3
110.206,132.96
104.877,129.42
82.245,102.79
100.111,125.01
128.246,156.02
88.932,109.36
118.704,140.51
125.299,149.64
78.978,101.44
96.58,122.7
119.979,139.54
98.793,121.22
98.977,121.43
109.981,129.38
114.972,137.09
108.759,129.21
95.487,124.0
109.157,135.39
115.455,137.6
105.517,131.07
109.468,132.41
101.959,129.51
91.838,115.56
110.149,131.91
109.074,127.19
110.869,132.58
131.856,166.76
88.106,110.94
70.336,96.99
98.278,120.01
94.895,127.71
96.919,127.93
114.421,134.08
108.192,130.99
113.369,134.29
139.574,167.87
80.388,105.85
95.096,120.72
98.609,128.39
98.086,124.1
101.91,130.1
103.054,139.03
96.023,120.34
111.006,133.03
94.711,130.35
140.767,175.47
77.068,100.35
109.187,134.59
132.721,158.6
124.581,150.01
99.288,121.09
133.545,159.81
125.746,146.29
129.98,150.47
138.777,156.76
116.959,137.2
116.386,139.73
146.661,169.16
108.23,129.76
71.121,115.54
140.355,168.89
140.028,159.11
98.239,115.88
99.93,128.47
131.392,149.94
113.947,131.33
141.234,160.71
130.578,146.3
120.84,138.79
100.817,123.69
98.773,129.12
110.523,138.01
91.456,116.52
97.008,128.51
111.641,132.06
123.107,142.14
116.855,137.11
128.219,150.12
127.972,150.69
134.049,155.29
128.021,146.55
121.419,140.02
138.464,156.69
140.431,160.14
83.615,136.82
135.949,155.87
81.832,100.94
95.986,120.79
107.381,121.91
111.025,131.2
104.988,123.76
128.384,147.75
133.495,150.01
113.725,135.29
144.354,163.98
134.542,156.46
111.65,128.98
107.068,126.0
114.42,137.25
116.997,135.04
113.179,130.96
105.716,124.4
116.176,137.37
115.667,138.1
112.29,131.2
111.05,133.97
110.416,130.81
172.479,194.95
123.725,169.07
129.453,141.1
129.71,155.39
105.88,153.02
114.115,139.83
104.113,119.11
129.335,155.98
146.621,162.97
118.493,134.36
139.204,154.75
101.392,120.79
121.225,140.97
110.651,133.88
139.98,163.83
130.1,150.09
115.627,132.27
146.185,161.98
121.254,139.2
129.866,147.7
130.097,151.19
112.846,140.73
131.479,148.34
101.97,120.68
136.623,158.06
126.074,175.84
100.391,123.43
131.741,147.23
92.697,144.88
107.218,122.07
159.334,175.47
109.937,125.12
127.477,151.98
136.25,152.14
160.454,176.72
153.852,170.31
143.015,188.38
142.373,192.6
134.229,148.01
111.59,134.66
141.125,168.92
140.402,157.4
137.097,189.56
142.89,158.96
129.697,219.17
144.532,175.92
112.641,156.12
126.822,175.68
118.508,146.39
129.617,177.68
121.694,136.96
125.99,144.12
122.632,171.89
115.736,142.9
142.074,183.95
114.466,155.62
128.106,159.79
116.36,165.03
139.835,183.49
117.688,166.08
146.209,185.05
120.197,144.4
129.215,144.43
127.946,152.08
110.486,158.13
122.273,145.53
125.812,139.95
162.517,187.93
108.012,124.27
160.351,175.28
150.718,164.64
97.068,128.93
113.892,155.34
104.837,145.88
128.79,142.12
125.07,137.66
127.469,158.46
135.445,174.2
157.911,201.67
128.718,152.54
136.987,163.84
123.839,159.35
133.723,160.35
125.949,152.27
104.733,145.41
125.054,168.2
142.909,156.58
136.754,164.83
152.826,201.71
125.669,140.2
111.024,143.57
115.04,158.83
132.823,174.73
113.711,157.01
125.887,163.09
137.142,167.75
129.394,166.25
122.658,171.26
138.555,170.04
121.132,148.56
130.558,170.1
119.478,154.84
120.267,154.22
131.191,161.91
136.824,192.23
157.037,191.36
120.082,150.1
105.434,152.57
115.392,130.09
160.244,190.48
119.871,163.89
118.112,162.38
87.54,103.84
119.608,134.84
125.638,142.53
112.408,130.05
119.643,175.52
112.619,154.81
113.857,129.74
96.241,119.1
84.481,121.11
125.922,145.39
108.493,126.2
142.918,159.59
80.432,102.08
95.079,123.53
146.246,166.09
130.402,150.87
141.763,156.73
120.498,170.31
137.279,153.12
119.44,141.12
98.093,115.87
93.367,110.75
104.582,122.49
144.685,161.87
135.901,157.98
139.738,160.72
111.489,132.45
89.413,104.12
89.274,111.77
110.756,133.3
106.476,128.41
162.995,185.24
126.592,144.6
105.661,126.15
111.966,129.12
128.034,148.07
106.943,123.44
114.03,145.3
115.116,130.64
112.698,127.36
103.937,124.14
112.279,132.12
107.523,123.2
110.091,136.12
112.331,129.88
112.373,131.45
107.392,125.62
108.196,124.33
108.059,126.89
109.818,129.72
112.239,129.28
111.278,129.8
111.244,130.06
116.473,135.29
119.469,142.25
123.924,141.05
111.652,130.21
80.12,97.89
83.985,100.93
112.367,131.01
96.137,118.23
116.258,130.88
109.767,126.42
97.549,126.61
124.394,143.77
115.287,142.35
90.573,116.28
115.433,133.74
111.609,127.57
109.102,125.7
114.518,129.94
116.189,131.36
129.28,146.53
135.05,159.3
148.067,167.89
99.168,113.82
73.689,88.3
140.876,163.78
119.446,137.5
111.058,136.42
116.542,140.02
140.833,163.58
114.937,130.64
104.26,118.79
121.869,139.67
154.121,173.14
114.958,136.35
75.023,93.01
119.83,144.02
141.841,162.23
119.475,139.98
111.906,129.8
104.913,121.78
69.693,89.81
94.866,118.17
127.645,149.17
82.037,106.27
97.786,120.16
113.706,132.67
100.525,121.79
104.79,124.82
123.001,140.66
96.136,118.64
113.296,131.1
101.289,130.13
127.418,148.08
112.926,136.0
124.322,193.6
134.143,189.44
137.967,167.53
146.784,174.4
124.469,147.21
112.625,135.44
132.831,157.71
107.041,134.23
124.253,183.53
132.542,186.33
130.717,149.87
141.232,173.25
139.507,161.97
109.638,132.0
112.164,132.69
108.769,132.05
107.09,128.4
111.055,132.16
108.508,130.23
125.027,150.09
117.819,156.17
127.424,159.63
132.899,163.35
84.964,109.74
92.81,119.94
79.681,106.82
88.387,116.23
121.003,151.13
119.371,149.26
104.127,129.07
112.629,141.44
91.879,118.0
94.42,122.61
79.023,107.33
95.964,121.82
112.296,136.7
96.136,124.4
109.068,132.56
97.127,134.08
93.875,122.21
98.402,125.72
103.068,134.48
101.032,129.2
120.416,147.53
94.991,120.99
94.431,122.07
100.484,129.69
128.655,161.12
83.318,109.02
96.474,122.3
110.792,139.86
119.379,145.79
123.081,179.5
109.143,128.17
110.515,133.36
102.68,122.78
110.269,132.2
111.489,130.17
100.667,118.25
100.352,123.6
104.484,127.32
92.432,110.85
78.039,99.94
97.778,120.79
114.41,137.94
94.371,122.22
114.541,136.52
94.764,121.33
96.455,124.71
110.065,128.73
99.568,138.1
98.708,125.71
109.815,127.73
94.894,131.12
110.558,128.58
103.374,139.79
121.97,147.93
106.562,135.63
143.995,174.24
111.464,139.0
86.021,109.59
145.684,174.86
110.713,133.17
138.46,163.47
132.66,153.74
159.253,186.81
137.545,162.4
125.004,145.36
118.306,136.75
149.546,175.48
135.934,162.54
110.01,127.8
118.005,134.62
111.588,132.59
106.14,126.25
109.704,130.18
108.902,130.13
132.406,158.81
108.567,171.75
120.961,146.81
87.636,106.84
72.786,98.95
112.616,135.44
89.437,118.11
130.817,168.13
124.961,150.44
122.961,153.66
120.092,143.67
132.803,153.6
119.133,160.86
142.414,168.74
84.912,108.92
72.303,101.68
96.588,123.03
109.221,130.42
98.311,122.86
110.971,135.92
92.602,123.42
122.137,152.36
103.864,133.32
130.098,159.3
116.214,142.35
126.643,164.23
139.01,178.33
114.609,141.11
114.63,140.25
112.419,124.16
121.084,130.14
111.588,120.85
118.315,129.75
112.221,123.4
86.367,98.97
98.391,114.06
80.188,93.66
93.487,125.59
125.777,140.34
134.133,155.17
122.859,140.62
138.105,153.11
138.913,151.46
110.512,123.36
113.702,127.99
112.606,128.26
111.796,128.06
129.512,143.67
103.388,125.93
120.663,137.11
96.486,119.84
98.876,128.65
137.213,156.98
121.694,142.32
125.071,142.18
144.117,165.95
127.501,144.08
128.056,151.38
132.007,150.15
154.924,169.7
101.426,117.37
116.572,178.83
108.932,135.49
96.602,126.17
115.961,141.25
130.717,158.11
82.794,111.84
94.13,123.26
112.661,158.06
78.601,112.62
91.648,126.53
98.513,135.67
127.581,169.12
95.363,124.76
146.495,177.79
126.161,155.35
120.177,199.68
111.515,145.01
111.856,142.26
127.997,161.14
101.542,135.58
111.974,140.83
91.044,124.53
94.927,126.78
101.93,139.32
130.688,162.24
137.901,169.11
121.785,147.59
114.713,142.25
126.643,154.32
99.257,137.12
97.429,138.28
93.63,125.81
90.058,120.86
150.618,176.01
86.906,118.43
79.041,110.08
94.648,121.95
105.096,132.81
121.379,154.71
81.76,109.38
125.506,157.52
98.955,124.02
148.955,180.0
124.699,150.25
89.846,122.52
94.234,123.08
119.542,153.58
104.915,148.51
133.998,175.77
133.13,151.42
108.753,166.95
118.768,141.7
121.764,153.81
121.59,141.02
131.157,149.13
94.331,115.81
132.391,146.49
100.595,134.18
93.313,116.89
111.198,131.37
102.798,127.46
129.788,148.9
108.2,133.3
129.261,154.97
114.212,136.89
92.128,110.25
89.739,111.55
75.044,102.47
89.632,118.09
99.43,128.06
94.732,119.05
116.864,138.95
94.602,132.56
102.092,136.71
92.947,122.19
104.772,137.44
95.023,120.67
102.034,128.09
162.548,187.11
134.186,159.24
126.558,150.79
135.306,155.29
109.176,141.2
80.208,108.78
136.61,175.56
94.981,125.14
87.835,111.85
77.546,107.95
123.051,151.97
83.357,112.93
110.576,141.1
80.073,110.06
115.789,147.77
114.372,142.73
86.565,116.41
76.552,105.73
117.275,151.37
157.139,186.82
111.945,133.85
111.565,136.7
116.6,142.37
117.76,142.9
111.461,140.04
98.324,131.74
132.715,162.72
118.397,151.92
84.002,111.1
133.666,164.14
110.072,134.33
89.946,112.53
130.541,159.29
108.2,131.64
110.597,133.46
110.529,138.38
133.175,155.91
111.433,134.97
100.766,130.04
98.193,126.22
113.169,136.59
93.229,122.88
100.354,138.69
105.5,136.96
89.482,123.12
93.067,121.39
150.01,174.93
78.281,106.7
86.034,119.72
94.187,125.84
97.784,133.47
95.401,127.75
91.176,120.08
111.39,147.13
152.778,182.13
119.919,146.5
111.568,132.49
109.36,134.23
109.553,136.2
128.944,153.81
114.488,181.34
141.427,208.76
91.528,136.68
108.873,119.15
106.055,120.26
115.837,129.9
130.536,155.2
108.973,122.38
149.65,163.75
115.187,135.67
124.194,151.04
105.112,120.12
133.654,159.68
144.554,162.7
115.74,131.61
127.361,154.51
131.41,149.01
127.579,156.32
142.43,166.63
106.716,125.76
134.609,153.52
100.073,117.33
130.905,157.34
124.826,142.29
134.971,154.49
140.983,161.69
120.407,176.72
109.184,132.63
149.656,168.18
94.653,114.39
152.528,178.24
136.368,160.5
129.46,151.68
138.826,161.69
139.702,160.03
139.086,156.24
131.344,156.53
131.099,151.69
113.922,131.01
128.743,146.76
116.368,136.77
150.194,175.75
124.483,154.66
117.47,139.44
103.237,123.81
148.213,172.57
123.32,142.35
134.057,168.27
138.427,195.78
135.778,184.4
134.368,160.4
166.099,203.78
140.457,162.85
123.136,147.63
134.615,159.88
98.953,122.16
87.401,108.44
91.846,116.73
85.561,111.87
103.069,121.32
105.633,128.67
96.163,121.66
101.985,133.87
105.853,132.42
104.658,131.85
106.684,131.69
107.152,139.21
93.377,118.82
99.652,130.83
124.715,162.97
97.55,125.22
120.606,148.92
90.761,113.82
106.582,127.49
88.758,111.36
98.297,125.29
77.98,102.52
98.12,120.91
95.909,123.42
106.267,141.91
97.123,121.96
108.298,134.09
97.657,122.22
105.468,126.28
101.404,134.25
91.827,127.4
117.312,140.67
98.175,123.94
104.731,133.35
104.844,130.68
98.774,122.99
104.18,131.54
101.554,134.76
98.655,121.98
114.229,131.13
105.314,125.65
116.332,149.13
115.88,140.96
87.35,122.86
135.533,161.56
144.738,169.39
106.082,133.26
118.936,142.54
128.707,149.78
130.737,153.89
132.046,160.92
124.045,151.27
115.151,141.55
119.078,140.95
135.22,158.73
120.489,140.92
128.15,146.44
137.805,164.39
121.855,143.46
135.112,156.74
136.534,157.98
131.292,149.83
127.678,157.97
109.723,142.36
128.069,152.72
136.8,159.7
120.253,143.7
134.165,158.43
137.099,160.24
135.766,159.2
111.025,130.38
111.82,134.39
123.031,151.51
107.736,133.87
99.882,125.32
107.065,144.41
103.778,137.58
121.35,156.51
124.781,153.99
120.448,142.09
122.5,145.28
106.264,128.19
123.103,148.06
110.007,133.14
111.819,131.68
128.838,151.07
121.598,143.76
99.144,127.52
127.144,150.66
137.278,164.6
105.762,133.76
132.653,158.66
113.904,135.68
116.08,133.08
147.114,163.83
88.12,117.41
103.194,130.02
100.347,129.25
106.919,136.38
99.078,129.97
94.931,127.46
137.878,163.19
107.87,131.62
137.626,165.64
97.096,122.51
117.189,139.92
112.546,139.05
118.283,137.45
119.585,145.99
141.565,166.25
99.699,131.01
95.216,124.41
94.094,117.22
103.754,130.05
123.48,156.25
144.768,168.46
126.898,159.91
109.218,130.44
113.421,137.68
112.507,130.98
111.084,133.3
113.345,139.01
124.998,147.04
111.835,133.35
106.879,132.87
134.484,157.07
150.212,173.8
109.958,134.5
113.436,132.09
128.283,145.89
141.59,165.39
95.367,119.98
110.531,136.98
147.576,168.29
120.602,145.45
124.908,143.62
114.071,132.58
115.636,133.5
119.99,140.19
114.387,138.26
105.52,131.02
101.586,130.28
110.758,130.02
96.442,121.82
113.403,140.07
91.89,115.41
116.062,137.62
107.035,140.92
98.663,125.2
102.643,126.21
128.837,158.69
104.784,132.73
100.11,127.8
104.653,133.08
94.729,120.35
84.331,111.33
153.38,181.6
118.51,142.18
131.441,158.46
145.077,171.94
145.98,179.72
116.278,144.5
166.349,225.13
128.511,183.3
137.56,170.72
131.519,162.28
152.744,185.72
112.062,142.14
141.598,168.88
154.913,189.62
108.306,144.91
88.727,113.78
119.537,159.27
107.398,138.56
113.094,145.06
113.579,140.16
130.709,155.75
148.268,191.01
109.759,169.83
105.313,132.83
108.223,138.76
126.127,160.02
141.104,181.59
101.336,137.41
103.726,142.73
114.13,150.95
121.581,158.25
136.098,167.76
125.654,164.75
90.06,123.32
100.355,133.59
113.54,144.14
112.862,138.72
109.298,134.65
119.124,151.59
127.759,185.8
136.932,168.43
134.648,165.19
132.402,158.81
122.285,150.08
135.003,160.0
117.219,183.68
121.284,180.44
130.053,153.79
92.461,122.06
106.385,137.73
143.876,170.84
141.982,171.95
107.166,133.43
106.764,128.83
112.692,138.91
105.252,129.05
122.607,148.74
131.416,159.8
92.321,122.49
91.763,120.12
101.554,196.64
106.637,147.51
126.199,188.7
132.765,169.91
118.425,162.33
138.134,165.24
127.714,154.44
111.189,145.34
137.19,175.15
119.862,167.82
136.971,170.28
155.87,199.96
115.796,152.94
160.869,196.45
94.866,125.04
89.176,124.21
136.389,169.3
122.654,161.85
139.831,173.29
142.992,174.25
144.545,178.1
128.548,161.93
136.712,172.03
99.221,146.71
117.561,136.4
138.949,164.63
129.383,148.13
100.8,142.09
113.367,125.11
108.787,122.35
110.526,124.89
132.098,143.96
132.362,148.69
130.815,154.54
84.541,99.21
120.088,157.67
111.309,129.24
132.268,152.32
102.507,118.92
84.575,103.23
106.097,130.17
93.801,113.62
126.172,143.96
98.841,121.25
104.841,131.16
113.297,147.51
124.06,144.85
96.639,115.49
156.344,181.15
132.262,150.25
114.949,131.72
94.601,111.4
117.857,139.69
114.557,129.95
101.23,116.2
140.292,158.13
108.047,121.97
110.605,127.7
123.687,139.73
119.706,134.9
106.428,121.86
116.458,133.94
106.551,120.94
127.415,144.53
104.592,174.49
145.761,176.87
101.795,132.57
118.712,143.38
99.936,123.55
112.208,140.46
110.033,139.68
110.912,141.35
110.104,135.09
112.069,139.72
118.812,147.24
96.895,130.14
110.463,142.86
116.345,148.22
110.494,139.04
127.463,155.1
165.294,208.94
116.604,145.99
114.219,143.93
130.658,154.16
125.499,152.03
125.38,159.37
151.389,210.52
113.155,173.27
152.502,174.45
136.025,153.57
133.366,160.04
116.26,148.98
128.309,151.62
110.784,132.95
136.607,157.77
85.57,107.51
77.278,102.57
95.864,123.06
97.95,127.28
99.739,126.78
109.555,132.63
99.187,127.86
95.983,130.07
92.865,131.32
118.568,153.93
146.545,173.05
110.958,138.52
99.303,128.67
101.031,133.46
112.979,138.12
140.044,177.09
130.038,165.15
96.368,137.12
114.168,152.23
110.441,143.75
111.194,145.88
108.054,139.68
122.618,166.5
80.243,110.05
98.126,130.73
95.842,129.8
92.856,126.3
98.556,132.73
95.181,135.02
111.489,150.32
75.436,114.37
99.745,130.11
144.415,176.07
137.944,179.71
129.327,171.47
133.563,162.56
125.34,163.09
108.159,153.51
116.768,155.0
122.102,136.38
142.74,159.25
142.196,166.91
109.586,132.39
90.594,142.12
99.792,125.48
151.51,171.05
74.43,103.1
103.478,124.59
119.459,151.61
98.97,124.46
99.778,121.64
142.49,168.42
75.627,102.11
82.783,116.28
112.299,133.27
93.192,125.75
99.107,132.07
92.906,127.17
118.851,144.63
137.893,161.47
115.772,142.94
112.199,144.91
113.732,143.54
121.092,149.05
114.918,177.75
117.314,163.29
104.637,127.81
116.984,147.0
121.764,146.04
124.507,143.15
131.277,161.93
169.384,192.9
116.579,137.49
122.594,146.24
112.081,139.11
114.474,139.39
142.877,173.7
101.333,130.05
117.538,142.19
139.507,165.39
134.726,162.82
135.579,161.17
107.155,184.97
92.264,162.02
122.659,192.29
872.478,901.14
132.649,154.91
129.525,136.62
117.648,123.7
116.972,152.6
117.086,144.41
110.322,124.36
118.277,134.48
77.62,103.79
134.557,170.21
90.785,124.23
105.003,120.75
69.653,108.44
103.532,113.9
131.509,140.78
121.828,131.7
107.51,149.87
103.686,142.96
117.214,131.73
100.05,118.54
146.64,183.4
140.467,155.38
168.528,200.25
150.902,199.94
141.668,177.16
78.058,124.54
115.265,129.41
119.849,147.06
123.393,160.71
123.174,158.1
87.989,123.48
120.44,157.58
140.957,175.92
134.908,169.27
152.892,179.35
147.468,162.2
133.329,146.31
133.041,146.09
149.143,163.48
125.454,144.0
157.487,176.56
120.486,143.59
127.884,150.73
158.739,190.46
147.765,165.83
120.748,165.12
141.086,184.73
139.621,185.48
141.011,214.68
157.771,199.28
119.276,137.55
132.489,154.76
140.82,165.55
156.462,182.13
129.948,196.5
148.386,174.5
137.508,156.54
120.216,144.41
119.929,143.15
132.303,156.25
125.202,146.7
122.029,147.05
148.905,172.45
108.512,128.9
110.964,135.71
148.6,168.08
128.584,150.02
114.248,135.18
149.423,170.13
102.087,124.65
139.39,174.48
93.44,118.97
138.606,169.23
127.02,150.41
129.562,151.98
126.014,150.4
114.665,140.44
148.573,177.12
137.982,167.15
132.887,179.73
113.287,139.07
82.753,99.11
104.245,130.12
104.697,124.59
113.716,129.17
130.291,147.52
100.054,119.57
98.604,131.78
127.329,156.58
135.122,162.37
112.724,143.63
104.17,131.22
95.876,121.89
135.251,165.18
119.49,143.97
109.424,135.36
110.026,133.78
104.602,139.01
98.926,127.93
100.876,127.24
116.074,151.83
165.867,195.05
137.854,164.48
96.493,112.28
98.17,126.79
116.663,137.27
81.774,99.75
102.391,130.71
103.516,126.52
81.369,110.04
101.841,134.98
101.123,131.9
99.112,127.79
92.406,118.35
102.337,127.94
116.481,147.74
127.742,155.3
139.841,168.12
110.712,135.29
127.731,158.32
88.402,164.66
109.64,141.2
78.7,116.32
94.357,125.31
88.404,124.93
95.031,134.08
122.072,164.98
130.099,173.43
118.863,160.66
116.529,149.18
133.927,173.14
107.169,144.3
103.322,132.89
102.975,135.2
127.353,152.04
131.598,172.66
117.85,134.06
111.798,128.57
97.681,128.28
160.98,191.61
87.987,109.27
87.052,108.68
102.79,126.21
97.515,126.98
94.614,125.84
99.914,126.65
140.254,178.27
130.795,162.31
123.119,170.78
143.041,159.97
116.043,176.83
108.876,167.28
115.687,138.44
114.552,142.53
130.161,151.82
100.015,126.0
108.62,123.95
113.007,130.83
125.445,149.41
76.383,98.7
95.588,115.88
104.522,124.09
126.062,153.36
116.135,142.97
101.519,124.88
142.867,166.73
93.243,115.32
118.643,144.05
108.183,141.34
103.359,128.63
105.517,135.26
87.871,109.58
111.224,138.87
147.968,212.27
135.601,158.67
102.355,148.32
109.77,130.78
116.57,135.5
105.944,129.84
93.539,120.31
93.597,117.97
115.176,137.21
145.796,165.86
88.628,113.68
94.615,130.19
93.359,123.19
129.598,153.79
75.707,98.81
126.871,164.9
79.244,107.41
92.979,120.89
120.882,153.14
133.591,162.32
122.851,154.87
117.421,152.19
128.881,168.38
93.943,131.85
94.626,133.77
121.17,158.85
125.318,166.72
119.483,159.12
114.968,150.48
129.005,172.25
111.03,151.29
121.348,164.48
127.565,168.41
99.592,137.33
99.249,137.24
115.285,162.68
130.833,176.88
127.561,159.43
121.864,167.21
105.611,150.15
138.357,171.42
125.781,168.88
108.982,148.95
131.928,175.92
120.594,157.14
79.717,120.75
139.183,178.4
119.976,164.07
146.869,229.1
138.454,181.93
128.206,161.12
157.637,197.52
130.384,175.31
144.25,183.5
144.373,189.01
126.163,168.09
85.145,120.17
96.613,137.23
128.956,167.5
123.276,164.22
126.486,166.01
112.27,154.73
99.829,141.63
150.116,191.3
122.065,159.68
126.792,167.61
145.261,190.62
127.285,161.12
113.898,159.06
114.053,160.54
121.642,166.52
108.025,140.72
114.099,145.83
154.657,198.87
103.378,133.22
87.769,122.27
155.32,196.04
135.812,170.21
117.646,155.65
145.93,227.6
132.077,161.61
109.725,147.05
102.442,136.03
117.198,148.66
97.641,127.22
116.485,153.23
106.392,142.96
145.883,197.47
117.103,155.84
119.335,153.09
115.164,157.19
138.426,172.61
124.165,165.94
105.942,148.94
94.037,121.76
101.464,143.99
94.255,124.46
93.579,133.88
101.876,149.78
85.912,127.33
124.605,165.16
116.612,154.17
118.144,156.88
137.56,179.66
95.754,141.3
91.833,132.57
146.187,185.24
113.301,151.11
92.034,133.29
96.323,139.07
92.878,138.13
162.248,207.23
117.502,148.0
116.499,144.58
102.968,146.05
135.695,174.08
126.196,168.74
131.486,163.29
79.766,132.04
92.001,120.11
134.686,165.74
101.103,174.5
132.883,198.33
126.474,161.38
131.353,177.91
123.871,189.95
132.671,185.44
130.363,154.65
145.776,168.2
136.574,163.96
114.418,133.99
112.104,130.05
116.674,145.18
135.737,163.71
92.488,119.06
98.091,136.36
106.456,137.28
95.691,118.8
88.779,133.36
99.275,137.15
150.429,183.55
114.963,138.65
98.333,123.25
103.572,135.87
68.19,92.87
133.683,166.26
86.328,115.45
91.859,124.06
108.235,132.85
93.721,122.2
111.682,145.66
122.812,155.41
134.122,158.73
151.383,180.32
113.601,146.11
90.953,114.93
92.706,120.81
118.583,152.85
101.551,135.64
131.319,162.25
124.281,163.3
133.318,173.4
175.338,215.96
145.486,181.59
135.64,177.4
151.28,184.96
125.741,166.62
129.507,184.83
130.971,165.26
119.799,151.12
133.683,161.84
145.433,182.06
144.008,177.9
144.389,181.56
133.383,160.06
135.098,168.59
143.926,175.47
145.89,180.64
112.594,152.91
104.979,135.77
118.518,152.54
134.937,160.83
111.821,143.61
128.389,163.31
120.699,153.2
75.815,105.86
106.502,137.65
90.188,125.76
84.726,115.0
105.04,143.69
103.006,135.8
94.062,133.0
103.586,142.35
99.835,136.07
87.822,123.19
147.239,180.57
118.089,165.75
127.245,164.75
104.845,139.99
147.08,182.93
140.945,174.68
130.837,161.25
120.752,172.81
143.431,196.0
126.643,166.72
114.923,131.92
114.205,132.77
114.138,134.56
118.128,139.15
133.534,190.23
122.418,151.98
112.818,137.53
115.925,135.42
110.533,133.49
114.371,137.82
110.234,131.3
108.733,133.91
112.202,136.85
114.886,137.02
114.641,136.78
99.432,130.25
107.149,133.64
118.398,150.0
107.718,134.76
121.852,154.51
101.248,162.02
113.619,140.18
125.166,169.55
100.965,140.34
129.223,153.89
84.236,108.8
124.528,150.42
89.74,115.26
88.64,113.69
101.993,128.85
101.903,130.07
101.427,128.77
129.815,153.56
131.357,159.14
1047.033,1090.08
101.977,133.21
144.586,165.3
174.544,184.54
119.602,144.06
105.648,146.34
149.817,177.26
119.936,145.26
116.955,131.06
114.75,129.51
111.696,123.44
132.408,148.21
127.114,140.89
134.765,147.78
150.184,193.99
131.488,162.44
157.689,177.88
130.376,148.52
107.946,126.5
151.447,167.25
156.587,175.26
143.661,162.03
130.247,173.1
168.658,227.94
124.592,150.45
125.339,152.28
137.531,154.62
122.212,144.16
123.837,143.35
149.521,169.0
128.108,148.14
144.594,162.61
129.578,149.99
162.018,188.93
142.017,165.94
146.941,169.7
148.523,168.73
160.153,179.25
121.104,139.59
154.482,179.11
139.317,161.97
155.808,175.89
112.051,133.4
122.13,142.32
154.943,180.29
123.267,145.98
148.762,171.13
116.473,133.27
124.885,153.96
142.717,173.14
142.925,210.7
142.391,166.78
110.774,133.23
85.841,106.43
120.767,150.28
126.478,195.15
119.073,182.5
152.681,173.16
123.089,147.34
132.673,156.7
128.448,188.44
160.051,178.89
155.679,201.49
116.992,163.6
119.684,172.4
121.733,138.98
108.488,125.09
117.777,134.26
103.258,121.42
116.03,133.41
71.639,86.79
164.333,195.6
121.138,138.44
109.913,127.23
129.633,147.0
110.6,127.07
104.772,134.09
125.17,161.72
123.257,142.11
120.129,137.15
124.768,148.99
122.804,144.61
142.16,166.37
93.388,115.51
95.955,130.88
128.437,154.99
123.4,147.29
99.913,123.48
112.364,138.44
109.8,135.92
97.264,121.99
130.804,159.42
136.228,158.24
143.583,165.73
77.373,108.36
85.652,117.12
128.296,153.75
118.618,168.77
117.528,159.25
122.289,152.91
111.26,141.45
101.951,134.38
115.123,155.97
86.081,118.2
110.452,138.26
124.469,156.35
124.635,155.5
113.016,145.42
113.68,144.71
107.693,134.6
112.459,140.2
142.606,169.37
77.924,112.51
97.898,132.57
143.296,174.56
133.146,152.23
118.123,138.26
114.856,159.98
137.934,157.08
118.492,168.5
115.31,134.03
117.467,134.82
117.162,131.59
113.773,131.79
131.426,150.05
103.882,126.71
115.14,136.69
90.378,114.29
111.551,130.23
111.028,131.06
109.588,126.78
133.714,153.79
109.073,135.6
90.581,114.52
118.451,150.2
124.308,151.01
144.087,172.27
103.812,148.9
126.643,150.83
125.707,174.56
123.385,143.75
114.475,165.43
105.251,119.76
89.281,106.15
116.787,143.34
148.311,162.57
119.807,134.38
120.409,136.6
112.764,128.19
109.708,122.8
110.082,123.66
103.434,118.11
114.715,134.03
86.989,103.7
97.61,119.83
126.885,146.1
143.892,162.8
133.841,149.31
134.691,155.86
142.062,174.48
82.131,132.77
97.351,128.55
122.175,146.53
124.681,148.55
137.99,165.27
147.609,180.32
148.157,179.92
98.019,123.31
102.141,126.11
104.643,126.45
102.841,135.74
148.907,174.93
123.71,147.01
132.117,155.63
129.471,162.24
134.787,166.57
127.93,158.2
105.89,131.3
103.738,126.49
87.188,108.51
112.71,136.7
92.423,117.87
91.732,117.65
79.384,106.63
121.944,146.52
92.332,118.4
139.626,165.5
97.844,128.21
85.583,111.8
92.345,121.17
97.213,126.82
119.238,145.73
107.609,137.42
111.71,145.8
122.902,158.04
168.181,208.12
111.756,143.54
113.562,138.63
108.314,137.57
142.796,168.62
131.31,203.75
128.752,157.5
102.086,161.01
92.821,139.71
112.024,141.04
94.5,123.06
104.302,129.96
88.895,117.15
93.102,127.5
93.16,142.12
127.915,158.54
145.207,173.64
113.044,140.5
117.192,140.28
104.994,131.62
124.097,148.9
134.662,158.72
95.065,126.48
145.293,175.89
119.832,148.62
131.613,158.76
112.832,139.14
119.212,146.57
132.197,166.4
118.251,155.21
139.656,177.85
103.732,127.07
115.02,140.53
113.323,139.35
106.132,146.67
103.397,135.78
89.814,122.55
93.628,125.7
111.564,146.12
96.453,128.58
88.674,119.04
103.676,139.12
101.284,129.77
93.556,122.67
100.1,142.51
105.161,133.97
93.75,124.04
90.027,120.65
99.128,129.98
110.487,141.43
106.286,138.57
96.186,125.52
83.66,114.44
114.506,142.33
80.44,107.98
148.967,179.99
125.294,152.8
117.085,142.26
138.163,164.23
102.277,135.06
138.838,166.73
134.475,161.91
111.778,140.24
87.295,114.32
143.722,172.3
113.834,135.39
109.536,134.14
115.462,139.34
137.878,159.17
111.667,133.06
125.209,152.38
117.945,138.1
157.771,185.49
114.076,139.67
128.934,151.74
122.279,149.17
102.315,174.88
122.108,188.95
120.445,178.23
119.737,143.82
137.248,165.04
134.126,154.46
153.205,175.49
113.145,134.17
139.439,161.07
121.726,146.25
109.739,129.91
125.544,158.02
97.675,127.11
111.737,129.62
113.302,132.19
104.643,128.58
132.343,153.72
135.664,159.34
90.712,116.92
81.063,105.82
97.93,126.02
100.852,126.21
101.301,132.86
102.167,127.58
104.244,130.37
98.803,125.11
100.967,133.07
132.386,151.27
125.641,146.1
125.046,152.4
100.901,121.07
104.1,129.46
75.87,97.89
165.702,188.26
113.05,132.9
113.051,131.0
114.045,135.1
94.234,115.95
111.942,132.06
107.818,132.91
110.082,133.68
109.454,130.05
106.849,128.99
112.947,145.88
124.985,146.59
124.572,145.37
111.007,131.23
118.51,141.72
111.315,132.98
176.955,202.98
108.281,128.38
108.246,128.69
112.177,132.7
116.775,137.48
115.048,137.98
111.789,132.93
115.634,134.21
115.619,140.77
113.87,135.2
105.275,133.16
101.433,128.75
95.734,125.93
120.995,149.12
134.595,165.11
115.418,187.08
129.277,157.06
131.336,158.06
118.096,146.68
138.782,163.82
115.651,143.36
113.276,135.48
107.288,137.16
147.495,178.73
122.506,181.03
127.662,179.05
143.651,166.75
134.462,154.26
152.558,197.91
128.48,140.36
114.588,125.74
109.865,120.69
110.375,133.73
113.382,126.05
115.687,127.6
135.465,148.92
109.965,123.64
114.031,126.17
137.767,152.12
133.368,152.33
87.58,100.93
122.927,158.73
86.28,103.45
118.943,136.14
92.05,122.05
95.388,128.49
96.648,114.85
112.307,125.71
116.954,131.11
139.15,156.47
131.074,153.37
132.376,156.79
147.297,162.57
117.601,138.22
76.655,97.71
116.816,137.9
99.577,121.95
99.591,127.62
124.156,142.76
128.895,152.03
116.843,146.23
129.13,154.34
115.49,142.56
113.329,148.38
132.174,164.81
121.502,160.01
116.088,142.01
107.21,128.8
110.3,132.28
114.765,142.31
119.816,146.9
141.288,163.99
136.014,161.54
119.233,146.13
119.506,147.66
110.768,135.08
118.951,147.77
143.618,170.99
88.205,156.71
79.604,106.57
91.202,120.43
128.458,164.67
83.16,114.89
112.271,144.4
126.585,154.41
75.007,100.85
89.654,122.62
147.636,178.95
98.63,123.81
108.356,135.03
113.291,136.27
113.0,145.36
123.724,152.96
133.25,161.54
108.416,151.74
120.353,162.28
127.859,150.99
129.691,170.29
97.934,132.48
113.598,134.46
135.283,154.69
158.402,212.48
130.897,152.02
128.169,153.28
136.718,159.67
884.393,917.53
139.785,167.45
113.865,149.32
89.43,132.93
131.782,140.25
140.347,166.38
123.792,161.97
173.956,200.54
120.908,161.81
119.456,145.01
130.77,153.21
125.227,144.59
132.307,144.3
102.829,121.42
106.084,120.15
111.436,152.13
105.069,120.11
131.503,144.17
106.248,121.6
164.602,174.68
121.904,136.68
137.829,166.15
131.411,177.03
143.516,156.86
165.967,181.01
130.133,156.01
157.499,166.44
129.951,142.1
101.072,115.84
153.848,183.11
127.597,139.98
113.993,125.51
124.677,140.61
109.256,120.09
135.245,147.74
109.291,119.76
127.761,142.0
129.662,145.2
117.807,131.05
124.212,135.59
122.557,136.22
145.687,156.79
134.936,149.04
117.814,133.04
84.893,99.91
134.676,148.6
146.396,161.24
72.804,99.83
92.965,127.72
109.551,132.4
118.69,148.43
149.086,169.09
126.25,142.88
146.566,164.09
118.536,133.91
113.237,130.11
136.379,154.6
172.088,187.93
107.529,130.29
130.956,150.09
151.225,176.75
110.03,133.48
149.557,171.65
131.587,158.87
125.767,151.65
125.753,148.19
117.345,140.51
123.188,146.26
103.338,129.42
153.275,232.78
221.983,246.44
137.95,161.26
219.635,248.23
135.698,158.38
139.672,244.52
207.239,230.74
136.146,157.6
141.141,164.77
100.201,129.34
108.041,136.11
126.85,156.11
155.704,181.25
136.659,163.36
108.067,144.06
120.576,149.08
96.102,126.72
103.919,133.07
98.348,129.37
133.95,164.35
129.962,159.45
141.79,162.5
124.443,147.61
110.468,139.48
109.257,134.2
92.213,123.11
94.072,123.33
124.567,161.27
107.113,133.63
105.933,133.35
130.983,157.11
118.162,147.64
116.791,142.88
128.206,155.9
112.548,152.78
127.912,200.92
129.717,163.21
140.569,173.97
111.425,144.38
110.033,142.88
96.943,128.27
125.29,155.62
105.267,149.94
116.685,146.44
138.046,171.9
105.536,135.41
87.349,114.78
95.318,123.45
138.272,166.64
120.21,152.31
129.482,196.31
124.082,191.92
151.929,174.82
155.133,179.74
118.313,136.36
113.731,131.89
111.584,128.51
115.92,136.33
114.496,136.99
112.295,131.21
121.486,139.93
116.852,132.34
109.059,127.29
143.808,168.06
76.88,100.1
119.045,135.37
117.195,133.36
114.462,139.19
140.191,172.29
112.483,132.9
135.408,164.85
124.3,148.01
106.916,128.77
116.674,136.22
114.021,134.68
103.68,128.64
112.131,134.39
116.751,132.8
109.977,126.45
117.819,137.52
112.028,129.49
118.857,149.15
103.344,136.86
93.876,120.87
106.282,130.51
88.42,111.63
101.546,133.53
111.933,130.55
104.619,131.27
127.713,145.99
75.242,104.98
101.493,125.25
93.476,119.26
111.781,131.02
136.882,169.66
74.616,105.88
110.985,135.45
81.815,107.58
98.422,118.73
118.661,138.91
101.618,126.26
106.309,125.63
123.215,145.35
93.999,116.3
102.472,124.36
118.162,136.28
103.68,129.12
101.55,124.64
109.491,130.21
110.291,129.95
112.01,132.65
111.662,132.03
112.452,138.79
99.316,120.93
113.141,130.13
110.643,127.72
116.871,139.17
87.829,142.38
92.102,117.83
96.721,127.65
127.505,144.66
125.229,154.42
81.374,106.69
104.141,128.53
97.967,121.85
143.944,164.75
112.47,133.12
118.11,139.16
103.882,122.06
105.4,127.67
115.096,134.35
109.749,129.89
89.004,107.39
102.096,127.05
127.154,160.0
97.091,114.55
114.387,135.74
110.806,129.78
87.271,109.74
116.628,138.53
128.58,146.79
69.422,89.84
123.061,148.25
99.595,126.15
128.668,154.09
112.713,133.87
97.82,124.61
112.121,135.87
140.235,216.39
147.983,172.47
115.614,144.73
115.345,141.79
113.573,138.2
112.837,136.45
131.241,157.76
95.692,123.73
142.492,176.81
122.824,152.29
113.221,141.1
113.772,143.58
111.038,142.61
105.956,145.17
102.126,131.05
111.159,135.98
94.892,126.43
98.668,129.65
117.541,138.16
92.668,122.39
92.744,120.21
116.883,140.62
116.204,138.57
87.294,117.94
97.675,132.65
95.78,120.35
123.568,145.83
105.848,128.05
99.75,136.28
95.8,121.01
161.695,197.89
102.52,127.93
99.791,123.67
90.396,111.37
97.852,119.97
77.862,105.51
91.95,125.58
95.865,120.93
99.719,134.11
120.766,144.55
90.405,123.57
147.619,175.94
107.65,132.71
105.047,136.6
104.415,130.63
107.683,130.41
74.039,98.97
111.976,143.12
137.638,166.38
111.357,133.17
114.778,138.81
112.025,134.37
114.38,135.19
119.657,140.62
119.799,146.32
100.437,124.13
106.308,137.15
91.911,131.84
94.811,128.57
93.698,133.45
132.877,161.32
84.399,110.31
91.57,122.11
91.938,125.53
116.785,146.24
102.561,134.37
93.711,121.98
101.769,136.7
93.417,122.38
124.275,152.89
125.522,150.98
122.808,155.13
123.874,151.19
114.615,140.97
116.236,147.65
103.251,134.3
93.771,130.26
102.857,134.2
93.819,124.79
102.126,136.05
116.61,144.24
113.082,146.22
117.635,146.19
121.575,147.88
95.337,129.7
113.471,142.76
147.016,172.8
152.259,176.51
124.019,151.56
108.124,134.47
71.748,103.01
113.706,148.22
113.865,141.64
144.978,176.43
132.775,161.03
92.44,119.99
76.563,108.42
90.147,128.13
151.259,176.15
128.906,159.05
130.843,160.46
128.934,151.11
139.064,165.11
138.005,153.85
129.625,165.74
119.898,169.58
91.766,138.76
106.082,128.83
117.145,139.57
100.517,122.02
106.283,127.46
116.442,142.81
110.882,129.42
110.252,128.29
112.412,131.37
115.128,136.83
116.505,135.06
104.734,125.59
121.781,143.47
103.883,126.94
142.243,168.65
136.092,166.81
117.168,142.96
79.842,102.71
115.829,143.23
146.185,175.4
96.846,122.22
133.436,164.28
124.664,150.92
120.846,145.68
119.227,148.29
113.83,138.99
110.799,137.95
104.727,134.26
121.874,149.93
105.588,134.59
81.212,104.94
93.343,121.62
80.802,111.33
93.9,121.65
102.579,131.66
99.235,129.7
167.11,197.9
112.353,139.13
111.883,137.32
113.075,134.64
130.291,154.86
118.187,153.39
162.139,194.6
142.759,171.37
125.976,150.38
114.367,155.9
98.551,121.36
116.918,132.32
114.245,128.62
95.226,128.62
109.027,125.45
130.375,148.72
135.592,164.64
120.16,150.68
129.432,154.28
114.384,133.03
114.632,133.28
117.913,138.95
111.95,134.11
111.83,132.9
113.748,132.82
115.626,136.87
110.481,133.07
118.849,140.33
101.996,141.23
142.209,176.51
131.742,159.25
136.431,162.17
114.511,135.97
113.73,144.96
111.004,148.25
130.181,158.02
122.685,150.36
108.905,132.6
104.842,128.46
85.003,111.33
98.484,135.72
101.28,124.74
102.576,128.08
112.98,136.25
98.329,123.76
103.873,130.79
112.958,136.43
101.48,128.91
94.952,123.03
113.821,133.29
92.873,137.24
98.551,126.82
126.058,150.99
89.133,116.57
86.215,121.98
82.892,111.06
92.747,125.02
98.422,127.61
105.888,138.89
112.356,141.46
89.954,117.71
97.862,125.86
108.07,141.22
89.858,119.34
119.282,151.98
139.931,168.52
113.851,142.13
114.366,140.02
109.468,132.28
113.67,142.12
119.598,144.0
130.955,150.9
101.926,130.96
99.222,130.77
94.201,123.92
96.599,122.97
96.365,124.22
127.454,180.11
136.254,165.94
108.507,135.72
112.105,137.99
110.07,132.74
148.883,175.69
112.403,146.35
105.628,136.62
149.075,175.76
111.913,144.5
100.972,121.14
115.339,132.65
114.105,141.25
128.049,151.47
101.39,124.8
129.782,148.64
137.82,159.87
126.797,148.46
111.093,129.25
117.04,136.17
86.073,107.48
139.685,161.99
111.16,132.39
127.656,150.97
125.388,144.53
132.25,159.05
111.591,132.93
139.763,167.21
127.644,162.8
144.881,196.05
171.681,202.33
129.994,153.94
113.728,140.86
102.632,125.02
104.453,127.51
106.568,135.66
111.666,136.22
112.921,136.45
115.477,138.6
131.051,153.75
112.495,136.54
134.654,166.94
131.816,160.82
106.771,167.47
115.9,143.64
115.705,143.41
110.912,133.73
115.599,138.08
103.971,133.13
97.579,130.17
113.23,147.32
96.439,126.88
94.482,126.09
111.708,139.85
95.406,120.96
94.86,121.13
113.054,146.07
94.749,124.87
97.063,124.43
103.349,137.52
114.185,146.19
131.068,165.15
134.838,233.75
129.79,162.7
99.249,130.04
113.236,143.16
112.085,138.07
109.129,137.13
118.419,144.74
115.372,142.31
123.74,150.38
127.548,163.3
149.955,182.39
111.794,146.51
112.84,141.62
99.526,144.01
130.728,163.7
134.415,168.72
104.943,135.45
121.029,151.57
124.038,156.14
102.845,169.14
107.939,138.96
133.744,164.74
116.523,139.92
111.354,136.38
137.001,162.81
112.376,143.99
139.898,168.73
86.912,116.17
75.588,108.42
106.527,135.56
80.085,115.31
92.1,124.57
105.512,138.26
93.368,123.51
94.737,125.54
99.47,128.07
105.143,135.4
118.572,151.11
122.678,157.12
89.578,119.06
78.69,110.02
135.736,163.78
186.108,254.53
116.865,159.05
135.891,177.02
143.249,174.48
138.429,169.86
160.429,190.37
116.039,145.98
133.038,155.18
104.129,140.97
138.496,171.15
91.812,121.0
123.846,153.87
127.643,156.8
117.352,145.56
113.054,137.43
118.637,149.14
154.866,190.8
131.74,159.6
111.054,136.03
106.518,132.93
118.035,140.02
125.929,149.45
151.922,175.59
75.451,102.99
94.489,121.28
110.056,135.23
110.37,142.51
140.12,170.74
122.76,150.51
129.408,157.72
139.186,167.2
147.274,178.2
113.163,140.33
130.609,160.51
126.257,150.73
128.751,154.26
138.097,166.24
110.849,141.47
124.548,155.1
138.319,168.73
114.212,138.93
120.521,147.49
119.138,145.77
131.144,157.05
141.68,171.56
110.11,178.75
128.034,170.63
139.591,174.26
136.672,198.49
115.039,183.31
121.929,185.09
147.441,213.75
137.274,164.12
115.577,139.64
130.248,162.34
101.336,133.54
95.027,124.85
92.449,119.99
81.04,110.88
136.168,166.36
112.529,146.09
101.737,131.37
91.397,118.49
134.118,169.94
116.117,142.96
120.825,162.94
130.542,169.95
135.227,164.3
115.527,145.12
110.474,143.05
110.9,139.31
158.859,184.62
94.228,122.51
98.193,126.06
103.124,134.41
113.352,141.17
113.677,145.47
102.383,126.03
130.244,154.44
87.59,109.21
90.343,119.23
88.935,118.92
114.875,147.72
148.141,176.31
106.978,130.93
123.905,150.93
135.31,160.58
140.7,170.85
109.105,137.58
132.775,160.63
130.137,159.18
109.611,133.45
140.269,169.74
81.774,108.82
157.91,193.23
83.475,108.26
82.219,114.48
78.837,108.38
85.285,116.75
99.825,128.27
97.327,130.44
118.55,168.74
122.673,153.82
113.995,141.16
121.933,149.71
111.591,147.73
129.358,160.7
94.672,130.98
92.522,125.26
95.912,127.24
80.288,109.65
108.447,142.8
81.076,114.64
97.819,128.45
138.105,172.18
112.986,142.59
123.796,152.62
112.849,143.65
108.878,133.29
113.323,140.3
102.908,130.43
112.645,135.66
101.713,134.49
102.266,134.09
97.656,141.99
125.657,159.71
96.142,129.55
153.585,186.4
133.751,158.82
114.821,165.95
109.848,141.24
119.253,162.07
114.509,137.12
97.091,121.14
115.773,137.1
98.888,119.66
114.22,133.02
103.025,128.85
102.641,126.81
143.605,164.24
133.597,157.46
121.157,144.49
120.749,146.14
100.507,124.39
109.144,134.97
116.905,140.06
108.218,134.42
113.734,138.78
109.101,133.8
140.821,170.38
125.908,161.72
89.177,120.93
96.216,127.01
96.252,132.66
117.071,148.85
124.678,154.99
133.289,155.92
141.85,173.39
121.189,151.85
112.112,138.1
116.344,141.63
117.713,145.67
118.122,147.34
132.153,166.01
78.733,110.18
121.934,155.11
79.595,109.73
94.945,126.49
115.234,146.39
151.026,182.12
116.514,144.28
135.831,161.02
105.708,137.48
101.081,134.1
102.545,133.19
99.639,131.87
124.658,163.47
112.044,146.94
138.879,173.24
122.799,154.52
145.002,177.3
129.133,157.11
141.598,174.1
130.794,158.77
121.965,181.94
113.498,164.97
147.684,167.14
151.907,168.28
153.3,192.27
116.31,160.7
137.367,199.84
129.545,164.13
122.474,173.58
89.705,142.11
82.152,132.29
89.403,111.59
104.45,134.46
145.65,164.94
77.81,101.91
95.176,114.76
125.308,145.74
122.535,148.56
96.374,123.29
108.786,134.7
138.022,159.67
112.281,136.29
85.279,108.71
97.355,122.73
84.835,113.93
108.767,140.3
83.361,111.22
114.437,144.45
110.071,135.17
84.234,115.03
123.852,149.93
140.417,168.29
148.301,174.54
133.848,160.01
99.063,127.35
99.365,133.62
93.238,124.1
97.497,127.67
95.038,129.12
118.832,151.83
117.651,147.13
95.338,125.49
115.451,147.16
110.854,141.53
91.302,116.89
135.626,164.32
136.377,165.81
123.157,164.37
127.994,162.24
75.897,105.33
109.662,138.63
112.499,145.44
105.067,132.72
91.138,120.0
118.398,152.78
109.123,134.45
112.227,137.19
129.95,160.17
115.906,169.16
163.962,194.21
152.967,194.65
147.733,181.76
143.462,176.51
136.199,168.79
105.634,174.04
122.717,144.6
114.333,132.29
111.19,134.07
134.177,150.97
139.992,164.49
122.698,144.8
107.217,186.52
149.877,189.44
117.386,148.4
132.882,170.85
142.184,186.99
153.682,198.02
138.317,169.97
130.227,166.59
130.036,164.54
119.48,149.81
115.405,150.14
101.172,139.62
123.721,156.98
107.281,145.53
155.485,190.85
105.484,143.16
127.153,158.71
133.919,168.19
112.537,147.08
117.166,149.83
120.952,156.61
125.597,156.26
133.421,162.36
131.804,162.29
122.719,153.3
135.703,168.84
115.045,146.14
146.767,176.26
135.488,165.75
112.438,146.68
149.669,181.17
127.385,161.62
107.773,143.25
125.479,153.53
110.372,142.11
142.669,174.55
133.648,166.54
119.436,152.96
132.062,167.78
138.547,164.28
158.886,193.29
109.021,135.7
109.813,141.5
116.125,144.87
114.618,140.86
136.471,170.96
121.767,155.5
132.263,163.42
112.724,144.71
106.187,175.38
131.888,162.53
90.667,116.64
137.542,165.35
113.952,139.37
133.417,161.13
109.612,139.71
95.676,136.15
102.896,139.07
103.771,136.37
96.759,128.16
105.707,136.78
91.459,122.78
118.169,149.76
145.753,174.6
139.71,169.24
134.751,164.4
134.065,167.04
123.948,153.59
112.009,147.99
139.649,170.73
122.501,152.72
135.557,161.79
152.433,186.87
116.288,146.91
119.698,186.52
143.35,183.99
134.303,163.17
117.684,154.16
116.937,147.96
116.057,154.22
127.434,159.15
116.712,144.9
107.807,135.57
104.271,129.63
136.025,167.21
130.165,163.98
120.275,153.26
117.96,143.91
134.697,167.32
107.903,139.17
116.791,145.76
115.318,144.94
72.208,102.64
109.599,154.12
125.649,172.62
161.709,207.41
137.034,178.21
129.884,160.66
74.975,109.97
109.489,144.92
97.308,132.02
96.157,126.66
126.219,157.48
105.819,139.97
113.794,146.43
114.082,141.35
117.051,143.82
112.649,139.77
105.031,142.23
95.031,130.73
113.449,153.13
123.731,159.64
91.146,121.2
78.221,111.8
130.227,174.29
89.366,117.1
113.15,144.44
109.414,136.18
119.581,151.95
120.815,147.91
111.067,146.05
91.094,126.47
126.184,159.41
136.209,170.13
113.508,142.4
113.072,141.9
114.892,142.53
114.986,140.74
97.332,139.94
96.73,138.07
101.052,140.93
94.21,131.76
95.463,129.62
87.921,123.02
87.862,125.69
88.495,123.99
96.93,130.87
96.395,128.46
96.364,133.46
97.246,136.49
94.164,130.5
119.775,151.01
143.777,177.48
109.788,137.17
129.773,158.65
111.329,154.24
118.341,155.79
130.058,167.85
108.222,137.53
113.817,140.91
122.19,155.5
125.582,153.13
100.646,132.18
91.093,125.77
94.416,128.61
96.799,135.23
97.299,131.73
97.775,128.3
89.243,124.5
95.88,127.64
95.109,130.62
92.876,128.18
93.885,126.27
98.038,134.29
144.607,178.17
114.562,152.51
122.988,154.05
118.066,151.78
103.324,137.07
127.913,166.67
131.828,166.41
99.433,126.43
143.276,174.6
126.709,167.14
131.444,169.47
139.815,172.37
114.792,142.2
143.514,168.47
107.683,143.0
130.557,167.48
121.71,146.98
122.304,166.83
81.619,116.49
113.976,146.88
105.235,138.01
109.039,139.67
119.139,148.12
110.517,138.1
111.061,139.38
132.771,163.78
111.795,139.98
137.887,164.39
75.946,107.06
92.402,121.88
94.154,129.68
118.104,147.89
100.34,137.02
126.249,158.78
88.381,114.89
131.437,162.35
112.941,145.69
123.092,150.3
127.72,155.5
102.943,142.83
129.921,163.62
152.043,184.86
118.325,146.44
111.111,142.86
95.793,129.82
105.689,137.96
137.614,177.99
103.624,135.13
126.114,155.83
113.021,140.79
116.46,143.8
110.418,137.36
134.619,160.91
102.865,140.04
114.564,148.33
158.289,189.42
141.467,184.84
116.579,154.09
128.085,165.36
121.091,152.16
123.445,153.77
133.252,166.38
118.137,150.27
108.223,143.51
111.994,142.74
141.098,171.58
106.428,137.05
110.677,143.29
113.629,140.83
129.348,159.74
136.217,174.99
93.408,129.56
91.545,125.36
93.077,129.15
78.843,110.97
96.706,133.05
94.973,124.9
141.888,177.91
91.87,122.69
133.74,168.06
127.827,157.89
118.698,158.57
131.275,167.22
144.124,180.36
112.851,141.4
119.078,147.05
106.646,139.78
99.537,133.2
119.908,153.41
120.942,152.33
87.779,119.64
118.917,152.49
102.668,129.82
103.706,133.98
118.583,147.23
137.788,169.15
122.657,150.89
112.453,141.47
112.455,138.6
116.626,160.73
135.419,170.17
97.709,128.88
88.114,117.38
111.906,145.74
100.592,127.29
99.998,132.74
112.154,139.14
101.077,130.75
134.969,162.76
117.296,146.21
115.524,144.64
99.793,132.04
94.612,130.16
135.306,170.63
95.527,120.92
94.293,126.59
88.994,123.56
119.2,151.97
94.785,122.8
127.266,160.36
117.683,142.87
120.534,151.7
124.075,175.7
104.822,136.86
103.508,137.27
120.567,154.98
108.218,136.29
160.112,187.95
81.579,116.64
93.003,130.9
109.364,145.08
106.899,140.69
125.211,165.72
123.205,153.66
130.463,157.93
130.265,159.78
154.633,193.47
123.211,151.79
105.205,142.11
102.446,138.62
110.389,142.19
137.245,170.83
128.233,160.75
116.302,147.11
133.375,161.78
151.359,183.8
135.963,166.63
121.208,148.66
139.534,170.61
136.774,174.05
140.83,171.57
128.567,153.92
98.26,135.63
91.248,126.79
101.81,135.27
128.489,163.06
100.375,136.41
99.074,131.21
101.504,131.48
108.577,138.71
115.811,144.07
110.826,140.99
117.818,150.5
125.615,154.3
102.75,137.82
139.916,177.26
127.246,158.87
129.954,159.66
123.579,164.05
113.799,145.4
128.042,160.82
129.034,160.92
131.145,165.84
121.936,157.18
114.738,144.6
123.653,154.28
137.62,169.6
125.233,165.53
99.775,133.1
122.826,160.68
115.948,147.31
100.358,143.59
89.922,129.49
89.962,126.77
121.036,151.57
94.707,131.82
119.254,156.29
112.769,142.14
119.275,149.49
101.592,141.92
102.055,141.61
107.629,142.77
80.367,115.04
100.851,137.93
106.567,141.59
119.877,152.01
112.414,137.32
118.259,149.14
109.662,140.03
118.748,150.81
93.645,129.26
92.243,127.57
98.821,134.9
109.977,147.74
85.083,116.78
118.463,151.26
108.888,147.04
118.151,151.6
117.064,148.55
117.745,151.07
105.011,142.64
129.261,155.95
118.208,146.34
109.683,140.06
109.387,140.08
92.747,129.32
95.697,126.86
95.922,128.84
98.971,134.55
118.105,153.58
121.838,154.62
108.138,137.84
110.758,147.08
116.251,147.82
115.965,140.97
107.013,147.27
117.714,152.22
105.075,137.64
92.318,126.63
80.762,116.48
111.538,147.16
98.57,132.49
125.397,160.38
116.386,145.65
109.807,138.42
102.879,135.39
115.492,144.44
118.968,146.54
114.437,157.5
104.223,138.5
130.772,163.18
117.495,145.74
116.136,148.05
125.84,155.95
139.506,169.55
98.268,135.79
92.11,123.57
127.306,162.37
120.862,152.31
112.354,149.2
103.75,138.36
88.363,115.97
114.647,148.22
101.777,134.22
88.839,128.1
94.953,127.65
123.996,158.96
99.52,131.06
115.811,142.3
112.874,143.89
115.63,142.74
115.103,142.03
134.275,159.93
126.774,160.94
140.73,177.39
132.688,164.89
98.197,129.94
96.203,128.97
101.564,138.95
100.794,133.24
96.211,131.96
112.484,147.98
103.915,136.22
103.011,139.31
88.669,123.68
91.697,120.12
78.842,107.19
92.951,126.81
97.114,128.59
91.181,132.49
98.046,129.0
109.012,138.31
93.855,132.91
95.149,125.78
91.644,125.41
106.041,138.27
109.331,139.52
79.535,106.43
103.667,137.17
117.134,151.0
76.184,106.58
90.831,121.84
93.105,124.65
94.643,129.2
103.999,139.2
91.418,121.68
108.849,141.6
96.545,126.52
97.992,131.61
91.052,120.98
93.757,126.59
105.724,137.84
98.258,132.38
119.78,154.97
77.178,110.18
136.614,175.78
107.698,139.4
118.195,151.46
120.341,156.54
112.797,159.4
115.47,152.52
117.942,154.33
115.858,148.87
125.256,166.31
109.09,145.7
115.371,156.78
78.971,117.92
122.392,161.73
93.565,123.36
120.292,153.66
112.28,142.37
117.076,145.05
120.292,147.77
121.735,153.63
99.846,128.19
101.447,134.68
96.522,129.35
114.328,146.96
116.454,146.22
87.538,117.52
116.155,148.41
117.291,148.85
127.117,152.12
108.622,145.07
92.453,127.64
95.117,131.68
96.49,126.89
90.163,123.08
100.482,140.03
94.235,124.22
96.558,129.98
119.966,155.76
81.07,110.61
91.792,127.19
113.715,148.29
93.728,125.64
82.902,116.32
108.731,142.9
129.606,171.1
98.011,120.91
98.314,131.4
114.345,140.3
111.095,136.08
116.466,146.52
127.65,155.51
127.562,165.92
105.217,137.68
93.592,129.13
112.066,147.91
90.13,115.1
90.933,122.18
112.112,144.83
98.308,131.59
123.111,158.37
128.06,157.33
121.631,148.91
148.903,182.34
145.457,180.87
129.332,156.54
131.597,176.64
128.219,160.44
111.146,142.38
140.841,170.14
116.424,153.06
111.818,147.78
120.529,150.09
122.144,156.62
127.533,157.59
119.638,147.75
104.274,137.42
130.265,168.53
144.72,181.23
135.717,165.59
136.687,165.46
100.076,132.17
116.666,132.17
105.93,122.17
138.864,156.62
143.746,160.55
130.238,150.17
111.725,132.73
115.293,135.23
99.007,124.74
111.213,131.38
113.559,137.84
104.743,129.32
119.276,144.55
136.822,205.27
116.211,140.67
98.905,121.29
106.107,132.97
114.945,140.64
116.655,142.35
125.049,148.2
120.515,161.96
114.085,195.23
146.362,174.04
147.485,175.02
129.776,159.46
117.252,146.42
98.355,143.54
93.177,127.15
105.181,139.04
124.358,156.47
80.61,107.73
91.676,122.05
114.519,148.75
98.877,129.06
83.714,117.43
114.635,146.42
128.586,158.48
118.941,148.65
111.645,141.4
105.64,135.34
114.835,148.27
110.825,142.13
97.382,125.6
81.487,112.93
109.532,144.71
82.262,109.92
135.741,168.04
138.242,169.91
138.831,167.21
132.753,164.21
107.875,135.84
133.3,164.39
115.216,146.81
141.99,172.62
117.833,142.43
91.924,129.4
107.72,136.66
130.617,166.37
140.952,171.55
131.124,161.33
131.017,161.11
84.902,128.14
130.975,142.77
111.187,123.43
154.369,167.39
122.699,135.32
134.238,157.56
72.949,87.52
91.94,114.72
90.361,114.32
138.473,160.35
117.073,183.47
110.378,135.49
104.471,129.76
126.607,152.63
120.496,152.75
134.579,161.05
84.98,110.12
95.516,128.36
139.609,172.31
76.849,105.65
115.696,142.07
130.39,161.35
117.61,150.13
131.041,159.5
136.295,178.77
141.526,167.06
125.087,142.82
112.41,128.41
118.71,135.81
134.765,163.49
101.698,121.72
162.15,185.3
126.539,152.04
139.199,160.85
108.394,145.7
123.273,149.94
123.936,152.67
129.648,156.0
1304.217,1384.46
119.205,129.59
99.678,111.85
96.043,110.17
106.292,120.95
87.825,108.82
101.956,128.95
110.438,124.22
106.709,129.2
129.206,145.28
175.946,197.8
114.928,134.61
122.072,139.76
122.206,139.67
128.737,149.03
124.733,142.48
110.193,135.26
114.099,139.98
113.777,133.17
150.053,175.37
129.923,150.82
160.859,179.95
167.122,207.64
152.328,175.16
153.097,175.67
131.344,148.89
145.528,170.22
137.925,158.25
142.134,160.67
143.632,168.93
125.774,149.89
135.479,160.83
129.605,147.12
132.695,154.17
128.014,157.9
105.986,130.9
125.143,151.58
145.255,162.61
139.848,161.21
149.54,171.51
127.677,157.03
119.672,140.1
138.905,160.87
154.104,178.54
113.351,128.95
136.475,155.83
127.686,148.87
148.895,170.97
164.385,186.06
164.639,185.02
128.935,144.66
108.345,134.8
145.713,165.94
135.61,155.9
159.539,186.97
125.791,141.29
133.227,153.77
135.819,149.77
133.861,150.77
113.656,134.22
132.863,156.94
153.939,171.12
143.349,161.77
113.67,136.62
165.606,184.28
145.808,167.4
155.969,173.82
145.144,172.45
121.19,145.51
135.991,156.96
135.822,153.03
153.36,172.97
124.369,145.01
128.14,146.7
144.468,172.2
152.16,174.41
113.818,128.61
116.161,134.19
140.952,173.74
118.232,174.31
130.555,189.76
146.627,170.93
115.538,139.49
137.138,157.71
125.182,144.63
169.169,192.35
133.722,154.19
162.404,182.4
142.927,168.52
140.296,166.74
120.313,153.13
117.734,138.63
138.114,165.73
120.877,174.66
113.811,142.2
120.216,140.12
148.495,210.69
121.871,143.05
99.089,118.59
143.869,164.56
118.852,139.2
131.4,149.52
107.817,136.94
104.368,133.59
157.62,185.56
138.316,166.67
132.391,156.3
114.838,139.85
106.557,129.21
115.606,143.61
94.476,120.04
97.745,127.39
105.213,149.07
96.099,121.47
117.067,145.24
132.017,163.03
159.155,188.56
109.837,135.57
139.033,165.65
138.771,165.61
132.275,158.02
117.687,143.52
97.003,127.98
107.909,131.03
106.729,134.5
111.004,140.27
99.488,125.62
114.811,140.51
127.24,156.44
126.982,155.0
100.336,126.79
86.796,113.69
145.536,175.28
151.843,173.11
131.707,163.18
144.501,173.03
112.961,136.68
123.676,149.66
118.803,150.14
117.442,147.64
133.19,154.75
118.742,147.39
125.577,164.73
128.429,158.34
121.353,145.66
117.756,140.74
118.989,144.19
104.435,133.54
102.447,126.82
114.785,146.17
132.974,170.04
112.26,142.16
129.563,153.38
127.802,158.38
129.997,156.72
106.163,131.81
168.596,195.18
113.462,141.28
107.397,165.2
111.083,130.03
134.627,153.52
132.102,149.23
104.393,166.11
159.269,178.0
118.414,181.07
134.284,191.75
129.07,183.64
127.752,145.13
134.051,166.07
129.186,176.8
106.358,145.4
130.073,151.28
117.827,159.14
101.515,126.2
138.046,155.42
121.369,144.09
112.285,141.03
126.059,155.93
138.61,154.66
137.576,198.15
147.093,167.75
114.633,135.2
166.555,194.5
115.662,135.27
114.149,136.87
131.597,154.94
114.554,150.58
104.677,133.7
90.342,118.31
99.088,130.66
129.155,157.04
89.553,133.66
152.542,180.81
117.335,141.39
111.855,138.43
114.28,138.96
111.01,135.71
128.599,153.69
120.492,150.58
122.175,159.65
132.806,165.97
115.882,139.75
118.198,144.69
150.892,178.74
128.72,157.5
114.335,140.73
117.696,145.42
116.577,140.37
97.911,139.24
128.621,158.6
125.268,157.06
114.919,142.85
152.082,188.86
152.476,187.79
110.344,139.07
145.851,172.38
163.609,192.97
104.437,132.39
117.343,146.84
113.928,139.94
115.426,141.6
139.297,167.68
91.916,135.7
138.381,162.8
107.632,157.38
110.836,136.84
129.829,152.74
129.954,146.75
125.833,184.54
100.048,125.57
103.156,128.3
90.854,115.12
134.352,166.44
146.764,171.86
113.495,137.98
120.524,141.63
117.892,140.04
113.881,142.24
115.764,139.64
134.658,172.69
113.486,139.06
104.934,134.34
92.135,117.48
100.932,137.26
113.976,139.82
127.66,162.02
129.248,154.39
111.733,136.51
109.626,143.08
107.352,135.92
109.819,133.51
114.948,142.87
107.925,135.77
126.761,151.09
122.309,151.32
109.527,149.93
100.097,128.52
90.883,122.38
104.803,138.44
99.108,133.07
98.879,129.01
98.353,135.8
105.746,141.54
83.333,118.83
99.492,130.42
108.405,142.37
95.125,129.56
96.553,130.1
118.409,141.28
100.657,128.49
97.602,125.77
98.415,126.53
98.456,130.11
99.819,128.75
97.361,131.51
103.22,137.56
96.067,128.97
99.511,128.6
116.944,147.51
91.542,118.71
99.344,130.52
110.145,142.06
92.849,126.24
133.141,155.91
125.868,156.78
84.315,118.6
115.355,131.34
98.461,123.18
117.071,133.84
120.238,141.01
97.531,125.3
107.561,128.69
111.613,130.96
116.768,138.54
101.149,132.53
127.269,149.26
128.258,166.9
108.076,134.63
117.426,177.56
129.097,163.63
156.329,188.96
100.999,132.03
107.325,136.73
101.87,126.71
115.197,142.39
116.172,139.25
118.494,144.21
121.761,147.68
111.77,136.9
139.637,168.29
86.795,112.71
136.001,173.29
93.415,119.16
117.91,149.85
97.481,122.91
110.319,135.11
113.59,136.99
112.53,137.91
120.275,144.78
119.981,146.24
114.569,140.59
102.774,131.29
106.534,140.79
94.836,124.25
109.146,136.1
128.745,169.43
90.766,118.98
135.184,167.2
117.035,138.68
111.773,133.81
118.779,144.85
116.851,138.96
117.327,145.96
104.471,134.88
107.709,137.98
97.099,129.43
97.817,129.49
103.686,135.56
96.507,126.36
103.341,129.92
114.107,142.11
127.768,159.76
115.956,138.97
117.843,142.1
111.802,137.03
108.892,150.57
112.28,139.16
118.922,145.84
130.159,151.06
94.4,126.67
80.414,109.94
99.932,127.99
96.861,126.8
98.717,132.89
104.367,134.93
138.243,171.82
117.49,156.56
116.42,140.14
116.371,138.03
110.714,134.4
118.664,146.49
119.95,143.4
100.232,139.32
97.913,124.99
107.479,132.98
111.991,138.76
91.362,118.03
103.893,131.99
122.721,152.4
81.341,110.36
117.981,139.91
101.009,125.28
88.454,116.53
107.885,134.15
104.125,137.96
100.108,129.02
94.893,124.97
115.192,153.78
101.602,131.98
82.212,113.62
109.671,143.23
79.122,109.06
99.019,133.77
95.558,130.17
93.502,122.02
131.336,163.82
89.543,113.19
112.903,141.17
100.386,126.74
90.929,114.88
104.048,135.2
97.659,129.99
92.857,119.87
103.311,134.63
122.551,151.95
110.162,135.33
119.798,145.05
117.887,144.04
113.898,136.82
126.562,149.77
91.016,120.29
108.374,134.21
101.657,136.46
98.694,128.45
107.565,136.94
98.329,125.17
90.927,125.05
121.849,152.3
78.016,109.09
83.258,117.76
117.828,141.88
94.119,121.8
102.312,131.22
107.758,137.45
94.85,127.94
100.447,134.17
107.595,140.38
106.196,132.29
83.956,109.6
120.493,162.46
102.909,152.57
91.993,120.6
107.273,136.92
120.375,144.4
115.447,141.12
110.832,134.57
100.29,138.44
100.749,130.19
114.45,145.84
98.458,131.59
89.157,120.13
127.393,173.13
100.62,129.82
78.135,106.0
107.14,133.49
124.398,154.36
116.709,139.97
113.62,142.95
112.339,136.44
111.187,136.65
119.894,144.36
112.513,137.6
120.287,141.32
94.343,134.69
94.827,131.15
134.874,167.51
93.43,118.03
83.399,109.9
108.092,139.73
92.062,117.55
92.035,127.2
121.442,144.88
112.945,137.87
111.78,152.82
91.405,124.86
99.717,131.53
99.369,131.12
114.52,137.96
101.146,130.16
114.009,139.88
94.318,126.5
124.908,156.62
75.719,105.32
101.144,127.27
119.117,151.32
118.076,148.92
113.825,137.41
122.46,148.95
110.496,133.93
101.233,139.14
104.967,145.96
93.547,125.56
90.727,123.67
166.018,207.48
119.912,143.01
136.035,161.49
108.401,139.78
99.098,129.09
101.34,133.63
91.126,124.41
92.431,124.32
97.602,130.78
121.563,152.7
102.742,173.67
122.881,148.29
118.94,150.09
114.963,141.26
109.054,144.65
100.907,138.09
115.572,151.0
80.329,111.6
88.721,118.53
100.13,133.66
97.229,125.81
109.64,138.72
97.875,132.76
93.927,124.98
96.804,127.59
109.849,139.96
104.523,134.34
106.096,142.03
84.572,117.4
112.119,144.68
125.186,156.23
112.85,147.8
123.099,147.34
111.945,134.37
150.577,250.93
165.687,207.51
128.881,165.58
127.375,156.99
130.681,159.97
125.335,159.69
133.486,164.55
122.361,157.62
108.879,137.09
142.127,184.27
89.461,118.84
117.697,151.08
89.157,118.43
104.734,133.53
123.447,154.25
128.796,151.83
118.607,144.16
114.716,139.99
111.401,136.11
106.231,140.95
94.441,126.33
97.228,137.5
99.58,130.69
104.21,141.18
96.874,129.39
93.052,127.21
131.537,165.83
119.606,153.58
140.032,167.54
114.574,141.98
120.597,149.89
136.473,166.07
120.628,149.9
131.278,160.91
152.198,181.12
113.267,144.54
92.955,125.64
92.765,122.58
106.732,134.62
112.343,142.21
98.451,127.76
113.987,141.5
131.303,160.59
116.852,143.15
99.995,141.19
125.332,158.07
122.264,159.9
101.085,131.16
89.165,117.71
120.928,148.8
120.748,149.99
135.782,163.19
132.637,165.61
83.091,110.74
101.602,132.67
154.701,179.4
139.589,171.43
115.969,148.43
100.457,138.91
118.504,152.02
164.219,189.29
118.4,146.22
116.336,141.33
130.526,157.16
118.375,149.54
124.197,153.5
119.561,147.63
144.387,170.16
167.303,197.04
130.033,156.99
131.124,160.13
141.501,169.88
138.554,165.45
160.882,197.7
145.067,170.36
109.417,145.12
128.964,157.74
129.928,182.87
138.26,159.06
121.176,140.41
118.048,140.58
137.072,158.69
135.099,157.8
152.931,180.79
126.004,151.62
102.048,135.32
161.599,207.96
122.253,158.92
132.402,165.58
149.866,216.04
116.44,145.59
116.238,142.09
134.254,160.04
119.772,153.98
114.441,151.74
121.319,155.62
65.707,95.67
94.023,126.65
94.943,130.9
101.7,136.57
93.682,125.67
99.589,138.47
156.812,189.19
118.407,144.9
139.325,172.32
80.035,119.21
113.331,151.46
106.085,140.14
119.818,154.78
116.47,150.36
116.475,149.8
145.818,177.65
118.076,150.73
129.981,163.6
136.907,170.65
130.468,165.22
112.754,145.83
90.816,121.03
111.561,144.08
119.259,148.24
101.418,126.79
107.841,142.0
74.511,107.81
113.416,143.32
98.194,128.66
88.832,113.61
127.949,162.66
83.13,122.05
92.854,117.01
147.254,166.09
143.291,192.34
119.668,180.14
116.161,135.11
132.371,154.14
120.152,181.83
112.236,176.44
140.525,206.04
128.816,209.58
142.702,209.87
138.089,161.41
129.71,174.26
102.211,150.03
128.423,149.65
142.413,164.77
113.843,130.25
105.188,124.56
138.917,187.09
102.933,160.8
112.253,139.16
129.513,155.84
140.425,166.34
114.217,138.72
105.342,141.24
136.635,163.13
148.479,178.05
111.046,137.41
119.724,146.05
92.056,122.25
118.965,144.49
111.342,145.2
84.505,112.06
105.836,134.4
109.885,144.25
148.085,179.54
132.627,155.49
119.94,148.89
103.68,141.04
131.619,170.83
99.155,131.06
132.47,159.91
120.638,185.46
105.436,133.33
105.589,141.93
145.944,174.64
90.674,119.22
122.016,157.98
122.166,146.8
99.838,149.19
100.813,130.0
141.572,175.14
105.908,137.88
108.712,138.26
116.147,145.76
111.196,137.49
111.225,140.67
116.924,144.64
116.655,150.0
93.192,120.93
100.206,133.99
149.948,184.63
135.341,166.56
97.531,122.93
111.921,139.81
119.775,145.93
115.478,139.55
112.361,163.05
152.183,188.11
134.684,159.98
138.157,161.0
126.309,156.37
93.49,124.13
89.719,122.97
114.455,144.96
144.272,172.93
102.837,130.02
109.525,135.57
130.931,154.64
110.57,140.16
108.562,135.46
103.529,145.88
93.253,127.52
96.708,126.5
107.717,136.76
122.324,154.85
93.303,137.72
116.896,127.34
109.948,119.75
110.628,120.1
126.774,137.68
113.018,126.28
118.382,130.76
122.599,135.17
124.878,141.88
139.333,194.76
119.2,146.8
102.607,154.7
127.908,149.97
115.357,134.44
105.524,128.03
115.135,136.61
114.604,136.5
112.831,131.66
112.385,137.96
139.015,161.12
115.561,142.83
129.606,160.05
96.976,126.08
96.817,123.29
85.003,114.19
93.524,122.83
129.232,154.93
81.821,109.93
87.486,119.77
106.627,140.91
96.197,127.38
107.009,135.18
92.345,121.11
96.115,124.51
98.383,129.82
136.702,162.84
72.569,139.63
142.229,165.02
143.533,210.03
114.021,144.79
96.83,116.68
93.332,114.17
123.669,146.1
98.784,124.37
97.055,120.69
137.81,170.1
144.953,167.5
114.338,134.09
105.983,123.78
137.792,158.29
124.817,145.84
115.989,133.9
97.525,140.72
139.796,170.45
115.513,140.58
117.891,143.4
138.38,206.05
118.25,198.06
147.326,200.64
138.542,168.59
106.91,130.02
129.873,154.15
109.674,133.23
128.814,151.56
109.993,133.46
143.568,185.89
103.296,125.31
96.849,119.94
86.301,110.81
113.364,137.42
106.006,139.11
145.537,172.33
117.74,140.82
115.271,137.57
110.824,132.69
128.669,152.81
92.605,125.29
94.636,119.72
107.147,129.13
112.999,134.56
103.439,146.95
107.69,144.14
113.778,148.12
113.924,139.0
137.798,166.66
123.298,146.01
112.825,134.42
119.765,143.82
107.737,128.09
118.043,141.66
94.015,125.66
93.731,139.2
98.288,125.68
99.76,132.88
95.278,122.1
104.485,137.88
99.21,125.34
115.647,139.37
101.784,135.12
91.261,123.44
90.706,118.35
120.081,141.37
146.915,185.36
85.035,109.79
77.913,103.08
127.203,151.04
81.865,112.91
135.805,166.02
101.189,129.14
119.774,142.24
115.145,141.9
108.417,131.51
105.9,128.29
118.304,139.15
112.157,136.09
102.725,125.88
114.461,141.86
115.052,134.21
95.84,127.06
115.043,137.98
104.997,126.29
95.15,131.78
95.671,127.56
111.021,132.09
96.519,128.21
104.148,123.7
131.439,152.52
91.871,117.29
94.864,131.24
107.211,130.95
92.073,122.16
131.718,154.07
94.021,121.81
91.951,117.82
110.942,135.0
115.762,138.96
107.899,134.63
92.206,122.65
108.396,128.66
98.655,124.33
97.814,133.62
108.127,130.34
98.066,132.44
101.439,128.59
109.68,132.68
96.7,122.52
105.986,127.44
103.682,126.85
128.03,151.21
91.829,117.77
112.84,136.49
102.814,130.1
92.39,117.74
113.836,137.32
112.038,141.74
91.944,119.31
112.401,136.76
95.54,120.37
102.624,135.19
106.612,129.43
91.777,119.97
107.697,130.02
111.682,136.56
97.69,122.47
108.721,129.12
111.152,134.6
96.881,129.9
109.262,129.92
117.743,142.51
96.688,120.29
99.177,129.11
114.657,136.86
100.25,124.63
96.653,126.19
109.497,129.47
106.136,129.56
95.079,133.59
124.946,146.65
91.172,116.92
110.449,134.05
110.124,131.89
102.936,129.01
107.024,139.43
112.474,131.78
91.912,117.14
101.391,125.9
109.918,128.04
95.773,130.71
97.027,130.79
108.94,130.47
110.387,130.95
99.056,130.58
109.642,130.05
98.545,125.06
105.285,128.32
111.861,133.67
107.504,130.24
108.22,130.39
110.773,132.33
89.092,130.07
109.094,132.56
113.053,135.07
96.951,122.52
109.136,131.23
111.985,131.88
99.28,129.26
100.214,137.78
112.365,135.71
96.051,125.96
121.015,145.18
77.933,100.61
111.428,141.66
85.061,112.07
108.656,135.5
97.132,123.5
99.603,128.66
104.02,131.63
134.508,176.43
102.721,129.72
85.963,111.7
92.873,119.55
78.471,104.27
98.023,124.12
98.44,134.05
94.083,121.69
116.074,141.01
92.033,120.17
106.712,133.79
96.527,127.63
112.706,134.24
96.263,121.84
118.005,139.37
112.413,132.19
98.375,124.31
92.302,132.2
95.179,119.88
108.883,131.74
105.868,131.69
117.472,139.9
109.083,135.03
93.85,124.65
98.855,124.99
94.094,125.78
98.364,130.1
113.038,136.56
107.929,132.0
96.204,123.84
99.218,127.56
134.656,156.64
132.999,156.53
126.231,153.04
108.514,131.42
102.434,126.27
92.961,115.32
123.108,152.68
134.827,157.52
105.316,126.9
123.63,145.7
108.395,130.2
118.018,139.7
93.602,129.31
113.553,140.43
93.008,129.88
96.132,122.49
111.493,132.64
112.126,138.97
91.866,119.46
105.514,128.67
111.497,131.48
95.832,134.09
111.792,134.63
103.985,124.6
107.797,141.95
93.637,125.29
106.247,128.72
95.02,127.89
131.003,163.45
109.039,137.16
112.064,137.57
106.916,128.97
121.167,150.38
124.968,152.34
85.55,107.01
108.766,134.07
100.611,122.49
76.337,99.58
91.498,113.83
93.643,121.82
106.986,136.97
107.755,130.04
115.846,145.3
94.583,117.11
120.809,141.08
140.796,168.76
114.731,136.12
127.196,148.92
104.199,124.82
100.782,125.03
92.285,112.18
84.974,109.21
80.864,107.33
92.751,118.79
95.784,120.52
108.579,128.62
112.138,134.04
98.382,132.18
108.117,130.0
107.865,131.0
97.916,129.52
107.797,141.41
107.299,132.59
100.795,127.76
97.773,123.53
108.382,129.16
109.18,130.58
103.157,133.26
110.224,130.52
98.193,132.19
95.528,122.08
108.784,131.3
103.517,137.59
100.061,125.63
110.213,133.2
97.208,122.08
109.809,131.03
118.706,144.12
98.102,121.79
117.471,138.43
100.062,129.81
89.39,115.48
103.222,128.55
143.858,166.37
81.405,104.71
97.206,123.54
107.772,148.04
91.024,119.55
96.023,120.44
108.43,130.94
99.141,123.76
105.085,125.72
116.633,137.88
92.659,126.96
92.798,129.68
91.444,124.89
125.508,148.43
93.473,120.74
102.244,122.64
112.385,134.23
100.628,135.53
144.977,177.88
139.177,166.7
109.642,132.41
111.534,136.93
104.863,126.21
112.937,134.6
105.802,126.33
110.972,134.29
111.797,133.13
108.771,128.89
108.316,130.21
100.285,120.95
116.57,138.37
107.145,129.21
104.214,130.21
108.297,131.15
107.738,129.96
108.549,130.53
100.001,119.35
115.593,136.93
114.217,133.69
107.578,127.69
92.851,120.42
97.312,124.01
112.781,135.76
94.982,115.98
113.386,139.57
105.86,128.61
106.627,133.44
96.224,116.74
82.373,109.91
98.05,130.54
77.283,101.99
90.672,113.7
114.349,136.66
91.106,117.11
109.215,131.2
107.57,128.63
104.023,128.87
112.066,135.29
112.227,133.29
100.853,129.14
143.69,175.89
109.906,131.17
108.934,132.19
95.901,116.41
92.625,116.98
90.753,115.31
77.127,102.58
104.109,128.51
118.461,146.68
96.306,121.49
115.327,142.9
114.026,137.98
108.808,135.64
114.11,138.14
120.799,144.25
87.841,109.01
88.456,114.28
130.04,161.06
108.674,137.92
114.336,136.86
120.156,141.53
109.218,131.72
88.251,109.87
103.669,129.53
85.876,111.32
118.459,148.49
103.609,125.13
88.063,113.13
81.311,106.9
119.795,142.82
79.863,106.03
95.394,122.02
106.931,126.48
107.48,131.51
100.554,122.53
110.368,134.11
108.397,131.75
92.874,130.97
108.7,130.24
96.737,132.8
108.561,130.92
108.885,131.98
108.734,131.12
95.159,130.86
105.611,127.71
128.213,148.36
95.326,121.86
105.93,127.22
102.39,130.03
130.168,158.9
135.811,160.83
95.705,124.85
72.817,99.72
105.93,128.31
87.703,112.5
97.834,123.51
107.281,128.26
99.827,125.96
102.162,138.96
98.412,129.49
94.901,119.37
108.697,130.68
89.647,130.95
91.734,128.81
110.449,132.34
115.392,138.81
101.686,126.41
116.843,145.35
129.928,158.12
78.298,105.59
90.23,116.79
93.865,125.15
98.714,122.17
110.324,132.87
111.237,134.9
98.614,124.8
111.908,136.53
112.031,137.17
100.192,125.43
103.503,131.73
168.762,203.1
101.109,132.21
88.171,111.66
126.298,163.53
120.37,143.29
107.398,134.18
113.305,138.04
117.442,140.0
115.27,138.38
102.895,131.32
139.651,171.34
107.664,130.87
130.046,162.46
120.716,147.07
140.868,175.92
110.574,148.78
90.169,118.77
114.917,147.06
128.339,157.55
127.126,155.54
150.023,185.26
122.524,163.09
122.016,150.73
113.321,140.14
127.501,152.21
162.402,191.57
123.473,156.82
129.347,160.0
113.863,149.13
135.435,170.13
130.071,161.01
122.194,152.81
135.357,161.81
108.017,139.54
162.519,190.57
149.008,177.12
131.718,167.65
115.044,145.82
100.396,133.47
103.366,129.15
110.742,136.52
125.233,156.36
121.263,145.05
115.708,141.47
111.052,137.51
143.452,182.36
105.815,138.93
127.339,156.34
114.744,143.28
146.383,171.25
121.189,152.52
93.551,120.79
110.957,143.09
153.796,185.14
122.038,150.2
120.344,153.67
134.99,169.91
148.151,175.02
145.751,207.26
144.103,165.59
145.684,165.69
132.969,151.75
102.993,125.37
131.897,157.82
134.415,160.43
165.769,188.28
147.164,180.17
150.545,173.53
135.601,152.95
140.54,159.96
130.829,156.45
147.333,168.49
150.028,173.03
124.6,148.11
115.025,133.16
136.989,158.6
131.477,147.0
145.674,164.47
137.829,154.8
144.289,164.13
131.195,150.73
149.474,173.81
142.876,158.85
131.212,163.53
131.806,148.47
124.977,138.81
143.264,158.25
148.257,170.21
143.808,159.73
133.788,149.25
168.84,185.38
142.315,166.45
122.666,144.43
125.898,141.67
120.42,136.06
120.713,140.83
118.377,143.32
112.804,141.74
105.283,126.75
123.911,148.58
118.091,134.73
110.652,129.4
115.545,135.75
133.778,150.57
122.271,150.07
125.379,140.97
146.183,166.32
151.727,168.41
117.138,177.25
118.492,139.9
145.001,161.87
114.228,135.02
138.36,162.32
151.192,170.97
115.959,134.14
129.779,145.22
131.483,145.84
119.949,138.24
110.505,128.19
136.898,157.49
129.035,145.39
130.581,152.42
102.401,120.71
117.767,144.16
147.308,165.47
125.057,142.47
129.989,147.42
114.305,137.74
150.321,172.01
162.439,193.74
117.997,141.46
148.702,168.96
142.17,164.24
126.525,143.38
124.88,145.36
117.531,136.65
129.153,151.33
121.649,148.2
115.559,181.88
157.481,226.29
113.489,135.86
148.297,174.41
127.494,155.22
105.827,171.73
113.378,135.51
138.701,167.13
148.225,171.22
127.423,156.47
125.261,154.55
126.954,150.77
135.792,161.3
116.635,184.71
122.169,144.17
131.116,154.45
117.281,157.92
116.93,134.28
127.827,146.25
128.893,143.26
148.367,165.14
120.696,148.86
109.106,159.48
137.645,165.61
161.233,185.72
158.107,186.57
114.793,149.71
134.213,157.81
135.715,162.74
121.61,148.1
138.818,159.79
157.674,183.3
145.344,170.11
113.684,139.2
137.882,174.0
130.906,160.13
118.657,168.07
95.988,136.71
86.482,109.32
103.861,130.01
138.157,168.89
133.2,158.94
88.287,112.33
138.855,166.27
122.751,147.69
134.769,159.92
118.035,145.4
96.356,128.67
101.022,128.8
96.28,129.29
114.819,145.69
111.465,154.21
95.629,128.57
77.207,107.35
110.425,138.98
144.503,173.47
119.203,155.15
128.278,166.6
129.624,163.81
142.938,173.21
145.814,197.55
147.677,184.61
119.339,145.98
158.573,187.51
147.153,183.55
138.383,168.9
118.505,149.56
123.632,153.89
139.301,179.96
138.973,173.63
125.256,156.62
101.247,142.05
100.661,134.03
111.458,150.72
95.027,127.89
106.6,138.51
124.217,156.02
93.941,122.09
110.706,149.15
110.223,138.57
119.251,150.8
115.312,146.79
96.098,128.05
112.95,154.28
115.067,142.08
98.357,131.3
122.625,157.72
147.143,178.99
129.643,157.76
125.14,160.11
125.904,156.69
134.68,162.87
135.905,166.14
106.457,135.86
123.556,153.56
124.524,162.09
143.542,173.42
118.751,161.16
129.433,156.44
111.945,143.23
123.835,165.52
100.917,131.4
114.105,145.03
110.286,146.09
141.863,172.82
133.794,169.87
115.443,145.4
158.259,189.6
85.25,108.45
85.579,105.65
101.391,122.49
100.242,123.5
108.212,125.63
133.529,156.67
77.796,137.29
116.578,151.8
96.726,122.82
75.276,104.96
98.169,134.17
125.685,158.05
74.956,106.36
107.991,140.06
81.987,112.11
93.879,130.12
101.656,134.52
95.592,125.61
132.716,161.78
110.732,136.73
113.192,142.11
117.162,144.61
108.41,138.77
104.5,142.1
102.109,134.03
104.812,140.13
130.356,164.94
93.565,125.29
127.723,156.57
125.279,152.71
126.098,155.04
96.741,152.28
98.533,123.26
135.428,153.9
99.186,121.12
143.047,162.03
110.853,165.34
116.939,134.64
113.065,128.02
114.022,137.94
119.585,137.02
116.555,134.52
148.571,163.35
120.187,149.92
99.487,120.11
96.563,118.38
100.654,130.95
120.805,140.85
129.884,154.39
117.851,139.7
143.317,170.0
125.123,147.23
121.848,139.85
129.481,147.29
119.503,156.25
146.012,204.43
146.899,179.46
136.923,165.13
91.982,131.39
94.744,114.38
150.979,169.4
80.068,100.14
145.848,172.62
157.019,181.72
110.895,135.17
142.822,170.92
104.923,136.86
103.674,137.33
115.35,145.58
108.563,139.31
84.285,112.05
128.408,159.15
137.551,165.93
1318.341,1372.65
156.253,189.01
150.097,181.1
113.956,151.78
168.524,205.71
147.145,179.13
117.799,151.26
121.015,160.79
149.987,179.81
131.707,167.9
114.269,146.21
131.693,176.65
110.891,175.22
138.772,151.94
130.235,178.2
124.012,155.24
141.463,158.94
137.903,194.16
112.103,162.87
117.538,136.66
117.132,140.77
117.754,136.16
137.061,154.15
125.777,141.93
109.083,124.0
127.501,144.02
141.604,157.17
127.906,198.59
81.75,100.03
107.125,132.38
126.514,153.19
98.374,117.0
84.72,102.02
135.619,151.19
126.814,159.7
139.556,154.8
116.863,146.88
124.973,155.37
73.724,97.9
69.422,85.57
76.069,91.35
131.673,146.12
126.834,143.91
114.721,142.5
152.272,173.61
149.589,198.78
74.009,122.57
127.558,147.22
142.537,176.12
74.06,122.11
78.381,94.04
75.544,89.98
75.752,91.16
132.067,159.32
124.614,144.32
109.286,125.93
146.855,175.17
132.793,160.82
109.059,133.12
118.262,135.83
115.244,133.15
89.999,106.88
128.858,154.25
121.211,139.77
132.901,187.77
140.861,164.22
131.436,163.24
117.394,132.17
121.327,136.53
132.411,149.89
134.06,175.59
131.345,184.24
91.112,107.3
102.517,124.34
105.228,133.52
72.101,97.63
107.069,137.35
119.824,138.5
112.999,134.5
113.313,139.38
129.164,153.46
141.277,168.03
127.266,155.62
117.744,176.1
143.893,169.25
77.748,96.05
90.94,120.12
132.858,149.78
77.434,99.77
133.006,160.91
128.333,149.25
79.159,101.52
128.669,152.14
99.893,120.74
123.326,140.78
140.898,169.17
141.872,160.84
116.982,132.77
118.767,135.2
114.78,129.82
114.313,131.04
115.757,130.68
130.391,146.55
161.577,176.48
77.057,96.94
130.331,152.44
91.337,114.51
112.521,138.03
118.278,139.92
73.822,91.6
137.007,154.46
88.619,119.84
113.522,133.34
83.677,103.62
99.086,126.59
108.875,135.84
105.996,132.8
68.654,84.18
73.769,88.36
111.539,126.32
70.163,90.58
76.256,92.55
76.059,89.5
75.073,90.32
70.459,89.76
139.745,153.87
129.424,150.03
117.156,132.83
125.088,148.31
135.017,162.82
139.095,164.81
134.132,150.95
153.187,169.34
140.282,158.94
112.119,131.51
164.814,187.1
155.002,183.75
144.041,175.3
133.58,152.08
129.365,150.98
107.152,128.02
113.498,132.39
89.222,106.18
122.119,143.06
118.096,133.94
79.938,99.7
124.117,151.0
101.705,122.09
94.427,110.9
156.063,181.97
123.702,140.15
116.143,131.8
130.595,148.41
140.455,173.31
125.18,167.06
151.97,183.08
108.252,137.12
129.34,184.24
116.683,136.01
121.354,139.71
138.848,160.73
104.783,130.22
116.609,140.03
121.02,144.78
92.977,115.84
125.356,150.19
115.829,137.85
117.031,135.45
68.809,93.77
74.427,88.74
144.411,162.82
118.43,131.77
100.696,120.12
103.282,118.94
168.912,193.03
118.572,138.09
142.952,159.79
145.684,164.67
137.914,191.15
110.906,178.37
131.589,163.46
124.653,152.4
97.873,129.4
118.704,157.36
109.575,185.85
125.559,189.17
109.425,169.41
116.972,140.35
116.809,138.13
115.631,141.81
96.864,121.93
116.441,154.54
117.17,151.8
90.123,116.93
103.776,131.6
142.427,171.9
70.563,94.31
89.383,108.65
119.919,147.4
123.55,150.22
121.307,171.54
122.659,177.87
126.123,143.05
150.236,167.54
123.237,141.36
114.339,176.25
103.085,134.48
107.886,130.36
117.84,133.63
134.357,155.53
154.772,181.73
144.053,166.42
127.411,152.23
122.743,157.12
141.763,159.68
133.79,153.79
149.311,190.27
120.273,168.95
122.696,170.81
125.904,189.11
127.366,152.51
134.853,150.02
132.872,150.16
143.875,201.78
133.651,181.33
123.119,178.76
130.615,143.77
84.314,102.84
103.401,123.77
126.58,142.77
115.357,134.71
100.333,126.78
114.393,138.2
94.117,121.77
123.412,138.59
99.322,127.65
137.954,166.9
138.984,160.28
137.64,156.65
126.091,141.0
125.996,142.83
100.04,153.25
113.057,128.79
129.859,144.18
98.424,118.84
144.221,165.15
111.891,133.54
118.379,140.66
108.977,163.8
105.02,129.43
98.478,150.48
112.767,139.83
131.459,159.32
136.909,161.93
152.196,182.98
130.162,188.59
147.326,184.84
122.284,139.09
150.038,169.71
115.226,146.04
124.7,155.86
124.16,144.44
101.814,128.9
116.194,140.7
105.7,129.89
140.608,164.02
119.699,145.27
121.666,187.75
138.352,157.02
136.88,156.72
102.15,186.3
149.921,233.18
119.455,146.86
147.357,188.27
134.217,206.43
121.198,157.65
119.343,154.56
111.576,151.37
152.417,180.12
118.342,140.7
112.306,129.32
115.446,138.09
120.874,144.62
124.208,146.63
94.53,130.56
92.115,122.54
101.598,130.39
94.721,128.31
106.165,142.62
99.318,129.69
99.525,134.07
95.023,131.65
109.271,144.59
131.939,165.18
88.344,114.8
87.153,117.67
96.072,129.71
109.303,141.84
113.476,139.62
111.93,136.43
98.793,130.1
122.664,156.52
126.892,153.34
136.931,163.98
82.662,116.99
96.729,128.21
131.215,169.38
1164.015,1229.11
118.547,151.52
114.844,138.02
122.753,146.49
155.171,185.44
143.754,173.16
161.927,205.04
164.073,205.58
152.533,204.12
152.84,193.55
155.583,196.18
156.191,232.81
151.272,254.69
141.557,176.76
147.914,200.25
144.023,201.83
101.733,133.49
144.532,180.86
144.748,179.25
172.503,215.48
163.356,214.51
164.642,200.05
137.46,173.82
150.867,201.44
129.614,168.96
143.17,180.09
137.471,176.52
160.477,193.06
126.889,161.98
126.292,147.21
158.929,208.33
171.524,206.42
173.147,231.11
120.228,154.63
147.551,167.32
134.153,188.88
149.615,209.92
146.348,161.23
136.973,171.65
156.978,219.56
148.847,202.26
128.337,179.73
152.22,195.19
158.369,174.55
149.45,207.52
156.606,234.61
127.188,174.91
126.553,142.02
121.62,144.27
145.428,170.24
122.07,135.15
162.727,177.97
143.731,168.01
138.281,156.25
118.284,134.4
153.226,174.85
145.265,204.29
116.612,169.77
145.386,204.1
133.09,151.26
124.819,140.22
127.248,150.62
133.174,160.99
111.284,130.75
118.421,132.57
141.532,175.07
128.891,187.92
150.89,172.33
100.146,124.87
118.011,151.16
166.268,176.51
95.537,138.65
151.812,195.65
146.522,167.07
113.293,152.55
117.808,130.47
113.061,127.75
134.262,145.22
102.438,114.95
86.18,97.59
109.676,119.98
100.281,111.12
115.942,127.59
72.248,107.8
92.983,114.06
115.879,126.1
123.461,134.07
125.364,163.26
98.458,111.06
99.912,113.5
115.507,127.26
116.755,127.77
103.666,149.52
113.881,139.75
127.709,150.2
102.381,120.69
122.899,144.52
124.08,156.01
110.534,125.85
111.432,128.37
70.668,110.9
69.388,85.78
70.918,85.14
122.349,137.78
165.373,188.97
152.824,171.64
148.685,193.45
160.148,180.72
164.848,200.0
81.633,109.29
77.228,98.07
111.385,135.31
137.475,160.24
140.035,170.69
137.361,162.7
116.788,160.81
124.593,202.77
136.926,195.65
150.686,213.15
160.034,197.6
157.575,186.15
143.614,182.86
120.695,146.47
147.302,170.68
146.55,215.97
147.823,196.35
140.852,201.02
156.81,202.8
122.669,193.66
167.881,205.97
167.431,202.39
148.173,189.51
164.637,204.3
134.14,148.73
138.473,188.28
136.582,176.65
129.276,188.52
168.764,244.71
151.291,202.84
179.763,241.0
169.899,210.15
158.599,227.41
146.484,169.45
174.434,196.36
96.395,112.49
71.669,94.06
142.53,165.74
69.677,90.25
75.963,89.72
75.077,91.7
78.895,93.89
124.89,146.17
124.695,141.98
135.238,156.63
128.327,147.62
73.566,86.99
107.067,122.42
92.778,117.12
139.931,157.35
125.853,146.51
120.435,146.96
122.788,147.18
126.496,155.25
118.141,138.11
144.12,169.23
159.153,190.76
121.038,145.15
127.952,146.6
125.819,148.26
114.357,133.74
156.053,180.9
112.498,135.45
129.091,156.64
126.788,143.59
130.253,155.16
123.214,146.0
127.414,147.02
132.281,200.88
182.736,214.87
147.358,171.81
163.891,188.54
139.192,163.3
124.156,153.58
132.999,177.58
149.583,196.88
176.235,230.05
133.806,169.15
152.32,171.07
143.054,174.83
167.794,194.36
169.983,189.43
138.49,158.16
147.353,205.04
152.213,187.51
119.391,136.88
114.938,129.99
141.841,178.55
154.336,200.46
164.662,179.71
172.612,201.2
125.285,143.82
135.384,188.65
121.449,165.49
133.891,156.14
117.902,164.77
110.397,123.2
140.694,155.13
105.847,158.93
106.608,158.87
122.903,139.98
117.97,135.99
121.737,145.21
116.018,171.06
136.678,158.33
133.255,164.93
118.317,148.44
99.392,133.81
100.146,117.81
125.177,143.32
119.059,138.64
114.13,142.77
95.287,120.52
136.935,156.02
131.767,160.16
114.012,138.1
93.316,117.81
101.152,123.61
103.528,126.35
134.158,158.56
114.578,141.48
132.541,163.15
133.559,182.62
103.351,131.07
149.819,187.21
164.526,190.91
138.205,167.99
129.447,157.72
129.773,197.54
158.32,215.69
105.559,167.43
134.411,164.25
122.618,155.06
149.477,183.76
143.134,178.81
117.191,139.35
158.879,187.38
117.774,150.3
119.43,146.04
125.134,154.93
142.93,173.12
125.946,161.23
112.218,135.32
114.97,141.75
120.378,148.62
100.597,131.5
106.252,136.54
97.14,128.14
122.929,157.06
83.67,112.11
76.636,98.86
72.579,95.1
73.087,98.95
71.558,99.97
71.207,94.51
118.121,142.8
163.265,190.36
126.494,164.5
170.733,244.37
138.325,167.99
162.976,184.16
132.216,150.03
142.741,159.03
122.667,140.81
137.669,154.76
129.419,147.9
141.612,164.16
165.319,223.15
138.02,160.88
136.438,159.51
122.912,200.77
107.734,148.44
122.68,143.16
126.969,170.12
155.998,178.05
128.53,150.57
163.058,225.23
130.854,159.8
119.665,141.63
82.136,98.93
139.267,159.21
118.065,135.86
130.612,147.8
116.0,138.14
119.411,138.53
107.975,131.63
97.604,123.14
155.45,176.84
94.502,118.98
81.764,111.98
88.714,139.99
106.12,142.16
70.608,95.63
122.153,147.28
125.229,168.75
151.11,170.26
90.482,136.21
146.446,168.42
124.935,203.79
130.431,200.93
105.782,160.63
98.564,164.27
123.939,189.19
148.104,211.11
77.795,105.76
75.373,103.58
77.348,93.66
110.113,127.97
130.388,153.38
147.557,169.25
145.267,166.18
149.405,170.93
141.136,163.03
124.547,149.32
165.974,187.75
134.776,190.34
149.938,196.48
174.149,207.52
97.655,120.11
133.438,194.49
152.951,185.37
143.0,171.04
135.789,179.29
156.535,171.86
120.681,132.81
115.954,129.49
138.357,157.21
123.819,160.6
132.058,154.72
124.889,145.53
122.001,141.14
135.749,158.28
130.907,179.56
120.541,166.33
136.309,147.97
115.489,129.27
1072.844,1111.83
144.392,157.64
449.684,475.46
368.553,434.61
142.478,152.2
137.998,149.88
147.063,158.71
105.19,162.42
144.403,164.34
126.011,140.11
142.242,159.74
131.595,146.82
133.688,187.06
139.251,159.2
145.446,195.51
155.369,175.15
97.756,115.56
142.557,168.04
111.297,167.33
125.251,142.57
149.865,171.76
106.677,163.79
145.117,213.3
121.485,147.6
146.179,218.01
124.754,150.07
156.631,195.52
133.963,149.88
166.02,193.37
166.361,235.57
160.266,183.0
142.416,168.08
113.916,139.46
132.39,159.68
112.798,131.83
129.095,152.75
150.586,174.57
139.38,172.88
144.42,177.99
138.884,164.81
131.077,151.31
142.799,163.03
166.334,199.83
125.615,148.94
127.484,152.03
145.794,168.89
144.633,166.31
127.397,148.19
140.304,166.46
139.26,173.67
131.782,151.21
134.355,203.63
150.384,179.14
127.114,163.39
139.822,177.66
113.332,147.4
123.262,150.14
130.628,164.15
142.033,175.28
143.173,176.74
154.931,237.58
173.516,200.79
135.662,209.07
139.382,169.14
144.709,176.66
111.136,142.54
120.885,146.55
119.161,186.2
159.285,226.78
140.454,172.65
143.435,184.0
108.138,143.08
127.568,191.63
130.495,152.55
163.98,223.12
104.309,164.59
129.578,166.14
136.807,171.32
136.055,161.59
136.499,158.41
151.657,176.73
136.597,158.46
116.232,141.95
145.2,174.95
130.213,156.05
141.679,171.05
111.999,135.88
140.126,167.12
137.162,168.82
111.653,163.18
114.799,138.51
87.898,110.86
93.383,119.93
98.612,131.39
121.57,147.75
89.679,116.44
97.988,122.27
111.388,133.19
117.961,138.35
120.119,146.92
116.864,178.8
114.87,167.85
114.123,134.91
128.343,147.05
134.728,156.9
114.26,141.18
95.347,122.7
120.703,149.02
94.564,118.98
109.13,138.49
127.263,155.34
116.096,142.17
122.385,145.72
147.032,177.93
137.478,164.99
123.244,149.18
117.409,141.96
135.667,162.23
124.343,147.01
143.281,170.71
153.357,179.34
125.165,149.53
119.243,145.9
159.529,181.39
139.796,164.24
117.512,142.88
99.948,124.59
97.538,126.08
118.603,142.32
130.882,179.91
126.317,153.72
107.975,127.13
114.486,129.67
109.511,125.94
106.419,122.5
71.977,87.62
136.655,158.87
76.384,97.95
101.52,121.68
114.072,131.71
130.754,157.95
122.908,178.54
187.664,246.9
115.383,181.46
147.147,169.76
142.672,163.98
98.497,121.62
101.164,123.69
97.584,118.0
108.905,131.95
76.635,100.87
117.635,151.14
97.56,122.3
82.406,108.84
125.696,153.07
139.481,168.92
122.952,152.76
115.101,143.64
119.527,146.41
99.424,132.01
117.209,156.94
146.109,175.85
107.26,131.53
151.549,177.94
118.15,143.02
136.068,166.78
120.247,187.76
103.706,171.49
98.215,125.17
132.092,164.93
116.304,140.97
118.472,144.74
102.207,132.84
142.397,171.88
115.54,147.47
114.127,138.76
98.906,122.37
119.779,146.91
101.461,128.44
129.386,159.69
124.727,178.2
120.414,144.15
140.018,167.0
127.309,184.22
135.607,161.02
124.958,144.16
140.557,181.11
75.989,127.52
88.782,112.22
158.792,178.57
120.062,146.74
119.544,139.21
116.925,137.2
115.865,138.42
122.726,141.82
138.261,159.97
132.608,155.47
144.382,178.08
113.034,139.63
112.396,138.44
116.027,141.6
117.773,144.29
139.731,167.64
130.32,160.11
74.882,101.38
99.419,127.85
96.616,127.14
97.773,126.84
124.254,147.1
154.151,181.33
110.336,143.44
120.226,152.42
159.642,191.06
151.03,186.35
113.139,139.99
120.96,143.89
74.243,98.89
78.182,104.17
138.038,167.71
150.165,179.03
159.864,188.12
132.636,158.86
114.12,140.41
115.887,151.58
145.929,175.25
107.955,134.85
100.226,127.61
89.813,115.19
75.679,105.75
116.84,145.78
101.217,132.0
114.504,148.27
116.956,142.56
120.108,197.78
93.889,128.5
121.745,158.47
135.58,172.32
119.97,150.75
94.736,132.28
95.093,133.8
123.25,162.18
89.923,127.64
92.284,127.72
141.081,177.61
138.867,203.69
132.165,176.54
97.234,156.22
107.308,162.74
134.523,187.11
106.902,169.08
127.008,190.72
130.076,179.32
134.55,164.22
98.706,135.94
95.398,119.14
109.981,128.44
96.061,128.79
105.171,138.86
107.63,129.81
102.494,130.53
98.886,128.05
116.272,137.73
105.643,130.81
113.417,137.16
115.084,140.12
89.763,117.43
102.042,131.93
108.051,141.62
91.166,120.32
94.848,130.45
124.51,163.02
85.921,123.05
112.015,149.25
106.817,143.49
118.039,150.69
115.603,145.23
122.3,150.54
114.943,140.08
105.561,137.98
100.851,135.85
144.921,182.97
129.164,186.5
122.685,152.62
138.487,175.11
122.679,183.67
134.344,158.46
124.244,144.77
175.007,211.66
136.303,176.28
104.084,132.54
150.544,191.83
103.173,129.82
135.623,160.33
117.03,143.42
116.543,143.49
97.087,136.27
136.037,161.16
80.422,112.16
146.357,181.24
114.525,146.51
120.704,148.25
119.825,151.63
153.446,184.37
138.13,168.39
142.335,176.17
117.811,144.92
164.762,207.89
119.041,149.24
118.022,144.16
139.837,175.78
113.869,146.31
138.748,176.52
127.931,162.57
137.994,174.78
126.071,171.21
123.048,199.4
135.522,200.96
126.548,197.79
123.862,196.54
114.97,144.37
119.3,146.63
117.813,145.46
113.749,142.36
113.143,137.25
97.255,130.43
100.556,132.58
116.787,149.1
102.94,133.57
101.549,138.4
93.898,122.9
109.249,141.47
103.535,134.52
119.817,150.81
110.023,142.12
131.595,162.38
102.826,144.62
98.879,131.12
95.607,132.82
131.968,169.26
119.809,150.0
120.211,150.46
123.938,159.17
127.739,160.61
145.92,209.57
151.219,225.77
122.335,179.93
131.973,187.34
118.709,152.17
133.853,167.7
126.082,158.34
102.558,139.11
145.568,183.05
89.498,116.59
119.401,152.11
117.748,143.18
139.334,167.99
107.217,132.41
148.646,180.01
133.371,164.74
110.943,141.35
136.487,168.28
129.395,158.27
137.427,207.35
138.55,227.9
118.49,156.71
127.104,231.38
128.424,169.51
151.761,203.53
148.475,190.64
123.529,161.51
113.634,154.99
109.779,146.17
104.883,133.99
137.668,166.92
138.289,170.32
144.878,179.56
112.45,144.92
123.659,160.11
124.167,159.01
104.56,141.27
131.477,162.32
139.852,206.08
124.149,148.36
111.902,135.88
128.83,148.12
128.913,192.21
140.599,218.31
111.568,137.72
121.95,201.31
134.071,173.94
129.146,167.04
124.482,164.87
148.84,189.65
142.02,177.53
115.044,145.23
148.42,166.01
102.775,139.96
91.237,117.26
117.324,134.02
118.408,136.99
77.45,131.37
116.994,136.74
128.235,148.01
80.751,102.96
92.651,119.65
103.409,129.61
108.889,130.07
125.143,158.57
91.044,120.67
103.387,132.46
135.491,160.88
130.937,155.45
103.696,129.94
114.824,140.23
108.711,134.31
117.719,146.78
119.573,142.61
115.46,141.25
77.835,100.98
106.605,129.74
166.68,193.65
137.888,163.78
121.912,168.71
153.634,201.0
157.592,184.89
144.165,183.14
122.949,142.73
122.977,143.5
105.441,125.66
141.844,162.84
140.33,194.94
143.396,211.63
127.794,151.75
147.122,171.13
121.375,183.77
125.297,144.03
143.693,170.59
138.956,170.19
133.988,146.48
98.177,123.35
88.25,116.9
115.284,126.84
114.998,127.76
116.936,128.47
129.796,144.51
105.484,126.88
109.726,124.13
117.426,131.88
109.852,125.1
129.032,143.22
137.221,164.4
148.2,167.98
115.892,131.99
121.679,137.87
102.144,116.9
87.44,107.44
111.279,126.84
132.992,152.17
81.514,98.32
132.796,152.53
81.157,106.12
139.914,166.0
147.413,168.47
136.202,165.73
147.667,226.54
146.391,177.68
127.261,163.32
153.023,196.15
127.969,164.92
136.222,165.98
124.514,215.2
116.057,163.15
70.542,116.2
77.391,117.58
153.58,200.05
167.408,215.11
114.297,156.03
147.098,181.71
142.054,177.51
143.712,184.46
132.706,175.01
152.088,194.85
130.907,174.63
128.943,166.45
134.848,178.72
138.695,172.35
120.011,186.59
107.361,151.22
109.752,133.22
137.953,163.29
118.03,143.29
131.593,156.67
137.514,163.91
161.834,183.3
120.735,199.16
150.821,183.59
128.662,167.09
149.488,190.83
103.316,135.59
115.508,151.05
116.161,141.22
129.874,162.26
82.951,120.59
103.031,141.99
95.321,128.88
143.565,181.33
130.598,158.02
138.852,179.07
131.798,162.64
145.118,182.28
130.298,170.76
77.693,101.55
96.636,120.74
101.442,124.4
116.664,146.33
151.281,174.76
118.699,142.12
96.067,118.72
88.733,114.26
115.033,141.79
79.864,108.31
70.971,94.87
119.159,150.3
119.153,147.41
126.303,191.08
131.57,159.77
167.39,218.19
138.492,174.85
120.156,143.18
138.697,168.08
110.336,129.34
123.926,144.04
117.429,139.16
122.565,142.7
117.907,136.1
111.603,134.2
140.636,162.72
99.783,121.94
104.679,128.92
99.608,126.11
124.324,149.87
105.424,131.2
103.423,130.17
128.324,154.48
133.188,154.18
114.231,138.0
130.0,153.2
133.959,156.55
130.436,160.3
126.511,152.46
99.976,123.39
112.343,137.28
119.327,139.8
80.103,100.02
108.551,133.71
81.3,110.97
113.409,137.88
85.601,112.18
117.616,142.1
88.221,112.24
140.067,168.08
109.535,180.95
107.439,133.73
147.9,178.24
118.056,148.92
93.0,122.51
105.14,134.64
115.991,148.12
124.722,150.55
119.323,145.33
124.411,149.97
115.71,140.89
115.732,138.0
102.256,135.72
96.077,126.63
99.132,132.25
138.624,177.01
104.902,132.74
98.839,126.69
108.516,136.45
118.306,147.98
122.737,147.27
112.751,140.1
120.007,149.76
107.021,140.91
125.832,152.85
108.873,140.3
91.407,118.65
114.437,145.55
94.099,120.49
106.297,139.97
89.978,116.04
127.584,156.87
116.046,136.31
119.627,146.69
125.993,154.93
102.765,135.01
120.909,157.7
109.931,140.06
98.181,121.59
106.338,135.9
90.795,113.91
82.006,111.02
98.362,129.88
100.749,130.07
107.767,142.11
82.744,110.64
114.227,144.29
143.498,168.25
117.079,140.84
103.343,127.66
118.842,144.32
116.583,140.49
132.625,158.11
82.004,111.28
130.111,156.59
100.27,131.02
81.481,109.77
119.033,146.33
96.855,123.65
74.627,108.13
114.321,146.39
85.962,112.48
94.921,121.24
127.233,161.54
134.082,165.89
107.713,139.11
122.53,149.3
125.468,150.7
124.928,150.81
117.662,151.94
87.205,119.02
117.525,147.02
120.585,147.4
92.404,118.24
118.459,144.14
97.84,125.62
74.536,103.36
128.793,162.88
100.182,127.49
76.181,104.14
135.174,166.94
118.97,142.56
111.195,150.37
120.646,155.07
105.917,136.26
150.306,179.31
131.835,156.85
137.721,167.78
101.064,133.15
130.621,159.63
127.466,154.2
121.766,149.84
127.184,159.82
118.527,143.15
136.681,166.82
160.03,190.16
130.654,161.01
162.978,190.83
126.66,158.19
138.156,166.23
126.433,150.61
130.094,164.81
147.309,174.2
162.876,194.0
132.331,162.61
150.644,172.53
120.54,149.13
113.881,143.14
136.937,165.86
156.44,186.42
119.143,150.7
118.274,147.47
103.952,130.34
114.871,142.58
118.534,141.53
119.139,145.39
117.15,139.82
109.281,144.13
99.854,127.76
109.297,145.31
98.356,131.36
146.689,181.49
124.313,151.03
123.258,147.09
137.895,161.82
104.973,174.98
142.986,211.45
119.206,185.61
137.3,208.11
117.246,150.12
99.583,125.71
96.191,128.93
111.615,144.96
99.478,134.3
125.374,153.37
113.578,140.87
125.902,153.28
97.607,127.32
98.712,131.4
103.879,136.43
125.786,162.32
83.819,118.47
138.092,173.63
114.248,148.74
113.539,147.7
116.764,145.25
99.505,133.36
182.105,212.51
113.983,143.51
116.254,146.16
138.52,164.23
96.642,125.28
119.518,153.62
92.379,126.09
110.964,142.89
134.839,163.16
124.463,179.24
123.272,140.97
119.873,139.97
137.169,197.79
114.612,166.09
121.341,138.96
160.476,192.23
127.466,147.68
149.23,206.59
150.861,211.21
114.839,133.4
131.24,153.66
155.203,212.44
132.948,155.14
122.602,142.21
124.481,145.6
104.457,170.26
146.569,175.58
136.635,199.4
143.153,206.09
123.155,144.91
141.657,181.87
90.227,141.88
85.134,101.93
115.383,149.08
82.574,104.18
103.912,125.34
113.419,132.9
95.904,133.31
102.978,126.46
111.22,132.54
97.464,124.18
110.495,137.39
133.645,160.21
141.657,170.09
122.259,147.21
119.776,199.74
113.707,152.16
132.553,202.95
133.873,158.69
151.29,174.64
104.97,130.14
126.608,156.88
113.362,142.87
125.266,148.82
162.016,183.95
145.446,176.19
117.163,141.04
103.56,161.04
135.274,166.67
96.53,151.14
87.979,124.0
179.61,201.69
133.892,189.91
128.139,184.63
117.811,136.97
124.289,142.49
120.663,133.39
139.004,152.28
86.684,117.07
116.273,132.24
134.549,149.75
133.524,153.6
100.926,119.96
86.987,107.94
95.564,120.3
101.233,130.09
101.107,133.7
109.896,137.22
138.442,169.08
156.308,186.08
112.583,143.16
126.07,194.05
130.735,199.17
148.695,173.13
114.121,141.59
