0,-2,0,-2,-2,0,-2,-1,-1,1.04492,0.130371,0.15625,-121.438,-32.75,-42.75,1.91483,-1.51049,0.589686
0,0,1,-2,-2,-1,-1,0,0,1.04492,0.130371,0.15625,-121.438,-32.75,-42.75,1.91483,-1.51049,0.589686
1,-2,2,-3,-1,-2,0,-1,1,1.04492,0.130371,0.15625,-121.438,-32.75,-42.75,1.91483,-1.51049,0.589686
1,0,5,1,-3,-1,0,-2,-1,1.04492,0.130371,0.15625,-121.438,-32.75,-42.75,1.91483,-1.51049,0.589686
5,-2,6,-3,-1,-3,0,1,-1,1.04492,0.130371,0.15625,-121.438,-32.75,-42.75,1.91483,-1.51049,0.589686
5,1,3,-1,-1,-3,-2,-1,-1,1.04492,0.130371,0.15625,-121.438,-32.75,-42.75,1.91483,-1.51049,0.589686
6,1,3,0,0,-1,-1,-1,-2,1.04492,0.130371,0.15625,-121.438,-32.75,-42.75,1.91483,-1.51049,0.589686
6,-1,0,0,-2,-2,-2,-1,-1,1.04492,0.130371,0.15625,-121.438,-32.75,-42.75,1.91483,-1.51049,0.589686
7,1,-1,0,-2,-2,-3,0,0,1.04492,0.130371,0.15625,-121.438,-32.75,-42.75,1.91483,-1.51049,0.589686
7,1,0,-2,-1,-2,-2,-1,0,1.04492,0.130371,0.15625,-121.438,-32.75,-42.75,1.91483,-1.51049,0.589686
12,-1,-3,-1,-1,0,-2,-2,0,0.95459,0.111816,0.164551,-118.312,-21.0625,-37.1875,1.89675,-1.49577,0.566221
12,0,-1,-2,-1,-3,-1,-1,-1,0.95459,0.111816,0.164551,-118.312,-21.0625,-37.1875,1.89675,-1.49577,0.566221
19,0,-1,-1,0,-1,1,-1,-2,0.95459,0.111816,0.164551,-118.312,-21.0625,-37.1875,1.89675,-1.49577,0.566221
19,-3,0,-2,-1,-1,0,-2,0,0.95459,0.111816,0.164551,-118.312,-21.0625,-37.1875,1.89675,-1.49577,0.566221
33,-1,-1,-1,-1,0,0,0,0,0.887207,0.0825195,0.184082,-107.25,-12.375,-33.9375,1.85014,-1.48384,0.575735
33,-1,0,-2,0,-1,-1,-1,-1,0.887207,0.0825195,0.184082,-107.25,-12.375,-33.9375,1.85014,-1.48384,0.575735
41,-1,1,1,-2,-1,-1,-3,1,0.887207,0.0825195,0.184082,-107.25,-12.375,-33.9375,1.85014,-1.48384,0.575735
41,-2,-2,0,0,-1,-2,-2,-3,0.887207,0.0825195,0.184082,-107.25,-12.375,-33.9375,1.85014,-1.48384,0.575735
56,-1,-2,1,-1,-2,-2,0,-1,0.838867,0.0688477,0.178711,-96.5,-4.9375,-34.125,1.75508,-1.47385,0.637894
56,0,0,2,0,-1,-2,0,-1,0.838867,0.0688477,0.178711,-96.5,-4.9375,-34.125,1.75508,-1.47385,0.637894
64,-1,-3,1,0,0,-1,-2,-1,0.838867,0.0688477,0.178711,-96.5,-4.9375,-34.125,1.75508,-1.47385,0.637894
64,-1,0,0,-1,-1,0,-1,1,0.838867,0.0688477,0.178711,-96.5,-4.9375,-34.125,1.75508,-1.47385,0.637894
80,0,-1,-1,0,0,0,-1,-2,0.825684,0.0766602,0.180176,-88.8125,0,-33.875,1.66297,-1.46239,0.697908
80,-1,0,-1,2,0,-2,2,1,0.825684,0.0766602,0.180176,-88.8125,0,-33.875,1.66297,-1.46239,0.697908
120,-1,-1,-1,-1,0,0,-1,-3,0.923828,0.0581055,0.203125,-58.875,0.75,-32.375,1.52358,-1.44264,0.791153
120,-1,0,-1,-1,1,-2,-3,-3,0.923828,0.0581055,0.203125,-58.875,0.75,-32.375,1.52358,-1.44264,0.791153
121,-1,-2,1,0,0,-1,-1,-1,0.923828,0.0581055,0.203125,-58.875,0.75,-32.375,1.52358,-1.44264,0.791153
121,-3,-2,-1,0,0,-1,-1,0,0.923828,0.0581055,0.203125,-58.875,0.75,-32.375,1.52358,-1.44264,0.791153
124,0,-1,0,-1,-1,1,-2,0,0.923828,0.0581055,0.203125,-58.875,0.75,-32.375,1.52358,-1.44264,0.791153
124,2,-2,-1,-1,-2,-1,-1,1,0.923828,0.0581055,0.203125,-58.875,0.75,-32.375,1.52358,-1.44264,0.791153
125,0,-2,0,-1,-1,-1,-1,-2,0.923828,0.0581055,0.203125,-58.875,0.75,-32.375,1.52358,-1.44264,0.791153
125,-1,-4,0,1,-1,-2,-1,-1,0.923828,0.0581055,0.203125,-58.875,0.75,-32.375,1.52358,-1.44264,0.791153
132,0,-3,1,0,0,-2,0,-1,0.991699,0.0878906,0.185059,-45.875,-0.1875,-30.5625,1.48095,-1.43291,0.817691
132,-3,-2,0,-2,-2,-2,-1,-1,0.991699,0.0878906,0.185059,-45.875,-0.1875,-30.5625,1.48095,-1.43291,0.817691
138,-2,-2,-2,0,0,1,0,-2,0.991699,0.0878906,0.185059,-45.875,-0.1875,-30.5625,1.48095,-1.43291,0.817691
138,0,0,-3,-3,-1,0,-3,-2,0.991699,0.0878906,0.185059,-45.875,-0.1875,-30.5625,1.48095,-1.43291,0.817691
147,-1,-1,-1,-2,-1,-2,-2,-1,1.03564,0.157715,0.169434,-43,-1.25,-24.9375,1.44948,-1.42389,0.834019
147,-2,-2,-1,-1,0,0,-1,-2,1.03564,0.157715,0.169434,-43,-1.25,-24.9375,1.44948,-1.42389,0.834019
161,-1,1,1,0,-1,0,-3,-3,1.03564,0.157715,0.169434,-43,-1.25,-24.9375,1.44948,-1.42389,0.834019
161,0,1,0,0,-2,1,-1,0,1.03564,0.157715,0.169434,-43,-1.25,-24.9375,1.44948,-1.42389,0.834019
169,-1,-3,-1,-3,-1,0,-1,1,1.02637,0.199219,0.169434,-43.75,-2.0625,-16.75,1.42075,-1.41637,0.84641
169,1,-1,1,-1,-1,0,-1,-1,1.02637,0.199219,0.169434,-43.75,-2.0625,-16.75,1.42075,-1.41637,0.84641
192,-2,-4,-1,-2,-3,0,-2,1,1.02637,0.199219,0.169434,-43.75,-2.0625,-16.75,1.42075,-1.41637,0.84641
192,0,-2,-2,-1,-1,-2,1,-1,1.02637,0.199219,0.169434,-43.75,-2.0625,-16.75,1.42075,-1.41637,0.84641
194,-1,1,0,-1,-2,-1,0,0,0.977539,0.224121,0.168457,-43.375,-2.6875,-10.3125,1.39525,-1.41076,0.856523
194,0,0,-1,-1,-1,-1,0,0,0.977539,0.224121,0.168457,-43.375,-2.6875,-10.3125,1.39525,-1.41076,0.856523
206,1,1,0,-1,-1,-1,-1,0,0.977539,0.224121,0.168457,-43.375,-2.6875,-10.3125,1.39525,-1.41076,0.856523
206,-1,1,-1,-1,0,-1,-1,-1,0.977539,0.224121,0.168457,-43.375,-2.6875,-10.3125,1.39525,-1.41076,0.856523
215,-2,-1,-3,-2,-3,-2,0,-1,0.928223,0.247559,0.17041,-39,-1.875,-6.3125,1.37002,-1.40619,0.868632
215,0,1,-2,0,0,-1,0,-1,0.928223,0.247559,0.17041,-39,-1.875,-6.3125,1.37002,-1.40619,0.868632
229,-1,-1,-1,-3,-1,-1,0,-1,0.928223,0.247559,0.17041,-39,-1.875,-6.3125,1.37002,-1.40619,0.868632
229,2,0,0,-1,-2,0,-1,0,0.928223,0.247559,0.17041,-39,-1.875,-6.3125,1.37002,-1.40619,0.868632
230,-3,-1,-3,0,0,-1,-2,-4,0.87793,0.271484,0.180176,-29.6875,0.3125,-3.25,1.34274,-1.40086,0.884381
230,1,-2,-1,0,-1,0,-1,-1,0.87793,0.271484,0.180176,-29.6875,0.3125,-3.25,1.34274,-1.40086,0.884381
252,0,-1,0,-1,-4,-1,0,-1,0.87793,0.271484,0.180176,-29.6875,0.3125,-3.25,1.34274,-1.40086,0.884381
252,-5,-5,-1,0,-2,-2,0,-3,0.87793,0.271484,0.180176,-29.6875,0.3125,-3.25,1.34274,-1.40086,0.884381
254,0,-3,-1,0,-1,-2,-2,0,0.852051,0.256836,0.185059,-18.375,1.9375,-1,1.3164,-1.39708,0.90448
254,0,-2,0,-2,-2,0,0,-1,0.852051,0.256836,0.185059,-18.375,1.9375,-1,1.3164,-1.39708,0.90448
275,0,-2,-1,-1,-2,1,1,0,0.852051,0.256836,0.185059,-18.375,1.9375,-1,1.3164,-1.39708,0.90448
275,1,0,0,-1,0,-2,-1,-1,0.852051,0.256836,0.185059,-18.375,1.9375,-1,1.3164,-1.39708,0.90448
276,-2,-4,-1,-1,-2,-1,-2,-1,0.853516,0.247559,0.174805,-8.875,3.5,1.0625,1.29162,-1.3939,0.926117
276,0,-3,0,-1,0,-2,0,-2,0.853516,0.247559,0.174805,-8.875,3.5,1.0625,1.29162,-1.3939,0.926117
289,1,-1,-1,-3,-1,-1,-1,-1,0.853516,0.247559,0.174805,-8.875,3.5,1.0625,1.29162,-1.3939,0.926117
289,0,2,-1,-1,1,-1,-1,-1,0.853516,0.247559,0.174805,-8.875,3.5,1.0625,1.29162,-1.3939,0.926117
291,-1,1,-1,-1,-1,-2,-1,0,0.859863,0.254883,0.180664,-4.625,5.625,1.3125,1.26551,-1.39061,0.951046
291,-3,-1,-1,-1,-1,0,-1,1,0.859863,0.254883,0.180664,-4.625,5.625,1.3125,1.26551,-1.39061,0.951046
312,-3,-1,-1,1,-1,-1,-1,-3,0.859863,0.254883,0.180664,-4.625,5.625,1.3125,1.26551,-1.39061,0.951046
312,0,-1,0,-1,0,0,-1,-2,0.859863,0.254883,0.180664,-4.625,5.625,1.3125,1.26551,-1.39061,0.951046
314,-2,-2,0,-1,-1,-2,-1,0,0.869141,0.245605,0.179688,-3.125,7,1.625,1.23766,-1.38666,0.976538
314,-1,-3,-2,-2,-1,1,-1,0,0.869141,0.245605,0.179688,-3.125,7,1.625,1.23766,-1.38666,0.976538
326,1,1,-1,0,1,-2,-3,0,0.869141,0.245605,0.179688,-3.125,7,1.625,1.23766,-1.38666,0.976538
326,-3,0,-1,-2,-1,-2,-2,-1,0.869141,0.245605,0.179688,-3.125,7,1.625,1.23766,-1.38666,0.976538
333,1,0,-1,0,0,0,-1,0,0.884766,0.232422,0.197754,-3.5,7.25,2.4375,1.2083,-1.38415,1.0055
333,4,6,3,0,0,0,-2,3,0.884766,0.232422,0.197754,-3.5,7.25,2.4375,1.2083,-1.38415,1.0055
349,-7,-2,-1,-2,-3,-2,-2,-4,0.884766,0.232422,0.197754,-3.5,7.25,2.4375,1.2083,-1.38415,1.0055
349,-1,0,-1,-1,-3,0,0,0,0.884766,0.232422,0.197754,-3.5,7.25,2.4375,1.2083,-1.38415,1.0055
351,-1,-1,0,0,-1,0,0,-1,0.87207,0.211426,0.197266,-2.1875,7.125,4.5,1.17893,-1.38234,1.0345
351,-3,-3,-3,0,1,0,-1,-2,0.87207,0.211426,0.197266,-2.1875,7.125,4.5,1.17893,-1.38234,1.0345
372,2,0,-1,-1,-2,-1,1,0,0.87207,0.211426,0.197266,-2.1875,7.125,4.5,1.17893,-1.38234,1.0345
372,-1,-1,-1,-1,-2,-2,-1,0,0.87207,0.211426,0.197266,-2.1875,7.125,4.5,1.17893,-1.38234,1.0345
378,-2,1,0,0,-1,-1,-4,-4,0.845215,0.210449,0.203613,2.125,7.8125,5.9375,1.14844,-1.38041,1.06559
378,-2,0,-3,-2,-2,-2,-1,-1,0.845215,0.210449,0.203613,2.125,7.8125,5.9375,1.14844,-1.38041,1.06559
387,-1,0,-3,-1,0,0,-1,-1,0.845215,0.210449,0.203613,2.125,7.8125,5.9375,1.14844,-1.38041,1.06559
387,-1,0,-1,0,-2,0,0,-1,0.845215,0.210449,0.203613,2.125,7.8125,5.9375,1.14844,-1.38041,1.06559
393,-1,-1,-4,-1,0,0,0,0,0.808105,0.209961,0.212402,7,8.5,6.25,1.11905,-1.37807,1.09747
393,-4,-1,-3,-1,-3,-3,-2,-2,0.808105,0.209961,0.212402,7,8.5,6.25,1.11905,-1.37807,1.09747
409,0,2,0,0,-1,-1,-2,0,0.808105,0.209961,0.212402,7,8.5,6.25,1.11905,-1.37807,1.09747
409,0,-1,-1,0,0,-1,-1,-1,0.808105,0.209961,0.212402,7,8.5,6.25,1.11905,-1.37807,1.09747
411,2,1,1,0,-2,0,-1,2,0.786133,0.200195,0.22168,12.4375,7.0625,6.0625,1.09345,-1.37589,1.12726
411,1,-2,-2,0,-1,-1,0,-1,0.786133,0.200195,0.22168,12.4375,7.0625,6.0625,1.09345,-1.37589,1.12726
432,-5,-3,-2,-1,0,-1,0,-1,0.786133,0.200195,0.22168,12.4375,7.0625,6.0625,1.09345,-1.37589,1.12726
432,-1,-2,-1,1,-1,-1,-1,1,0.786133,0.200195,0.22168,12.4375,7.0625,6.0625,1.09345,-1.37589,1.12726
433,0,-2,-1,0,0,-2,0,0,0.801758,0.198242,0.210449,12.9375,5.9375,5.1875,1.07342,-1.37411,1.15264
433,-1,-1,-2,1,-1,-1,-1,0,0.801758,0.198242,0.210449,12.9375,5.9375,5.1875,1.07342,-1.37411,1.15264
445,1,0,-1,0,0,1,1,0,0.801758,0.198242,0.210449,12.9375,5.9375,5.1875,1.07342,-1.37411,1.15264
445,-2,0,-2,-1,-1,-2,-2,-2,0.801758,0.198242,0.210449,12.9375,5.9375,5.1875,1.07342,-1.37411,1.15264
455,0,1,-1,-2,0,0,0,0,0.807129,0.185059,0.207031,17,5.5625,6.25,1.05353,-1.37229,1.17768
455,-1,-1,1,-1,-2,0,-1,-2,0.807129,0.185059,0.207031,17,5.5625,6.25,1.05353,-1.37229,1.17768
469,0,-2,-1,-2,-1,0,-2,-2,0.807129,0.185059,0.207031,17,5.5625,6.25,1.05353,-1.37229,1.17768
469,-2,-3,0,-1,-1,0,-4,-2,0.807129,0.185059,0.207031,17,5.5625,6.25,1.05353,-1.37229,1.17768
471,1,-3,-1,0,-1,-1,-1,-2,0.810547,0.168457,0.198242,21.5,5.125,8.25,1.03563,-1.37193,1.20324
471,-2,-3,-3,0,0,-1,-2,-1,0.810547,0.168457,0.198242,21.5,5.125,8.25,1.03563,-1.37193,1.20324
492,-6,-8,-3,-1,0,-3,-1,-3,0.810547,0.168457,0.198242,21.5,5.125,8.25,1.03563,-1.37193,1.20324
492,-1,-3,-3,-1,0,-1,-1,-1,0.810547,0.168457,0.198242,21.5,5.125,8.25,1.03563,-1.37193,1.20324
493,2,1,0,-2,0,-2,0,-1,0.810059,0.162598,0.196777,26.125,4.125,10.5625,1.01863,-1.37247,1.22966
493,-1,-3,-3,-2,-1,-2,-2,0,0.810059,0.162598,0.196777,26.125,4.125,10.5625,1.01863,-1.37247,1.22966
506,1,1,-1,0,-1,2,-1,-1,0.810059,0.162598,0.196777,26.125,4.125,10.5625,1.01863,-1.37247,1.22966
506,-2,-2,-2,-1,0,-1,0,0,0.810059,0.162598,0.196777,26.125,4.125,10.5625,1.01863,-1.37247,1.22966
514,0,0,-2,-1,-2,-1,-2,0,0.820801,0.148438,0.190918,30.5625,2.8125,12.0625,1.00334,-1.37413,1.25594
514,4,1,2,1,-1,0,-1,1,0.820801,0.148438,0.190918,30.5625,2.8125,12.0625,1.00334,-1.37413,1.25594
529,0,-2,-2,-1,-2,-3,-1,-2,0.820801,0.148438,0.190918,30.5625,2.8125,12.0625,1.00334,-1.37413,1.25594
529,1,-2,0,-1,-1,1,0,-1,0.820801,0.148438,0.190918,30.5625,2.8125,12.0625,1.00334,-1.37413,1.25594
531,-2,-1,2,1,1,-1,0,0,0.84082,0.139648,0.179688,33.4375,1.9375,12.875,0.990618,-1.37621,1.28027
531,1,-3,0,-2,-1,-2,1,-2,0.84082,0.139648,0.179688,33.4375,1.9375,12.875,0.990618,-1.37621,1.28027
553,0,1,2,0,-2,-1,-1,-1,0.84082,0.139648,0.179688,33.4375,1.9375,12.875,0.990618,-1.37621,1.28027
553,1,0,0,-3,-2,0,1,0,0.84082,0.139648,0.179688,33.4375,1.9375,12.875,0.990618,-1.37621,1.28027
554,-4,-2,-5,-2,-3,0,-2,-1,0.862793,0.128906,0.166504,33.625,1.8125,14.1875,0.976723,-1.37905,1.30573
554,-1,-3,-1,0,0,-2,0,-1,0.862793,0.128906,0.166504,33.625,1.8125,14.1875,0.976723,-1.37905,1.30573
566,0,-1,-4,-2,-1,0,0,0,0.862793,0.128906,0.166504,33.625,1.8125,14.1875,0.976723,-1.37905,1.30573
566,0,2,3,-1,0,-3,0,-1,0.862793,0.128906,0.166504,33.625,1.8125,14.1875,0.976723,-1.37905,1.30573
574,2,8,2,-1,-1,0,0,-1,0.877441,0.12207,0.14502,30.6875,1.75,16.625,0.961405,-1.38325,1.33236
574,-5,5,-3,0,-2,-1,-2,-4,0.877441,0.12207,0.14502,30.6875,1.75,16.625,0.961405,-1.38325,1.33236
589,1,-2,0,-1,-1,0,-1,0,0.877441,0.12207,0.14502,30.6875,1.75,16.625,0.961405,-1.38325,1.33236
589,-3,-3,-3,-2,-1,-1,-1,0,0.877441,0.12207,0.14502,30.6875,1.75,16.625,0.961405,-1.38325,1.33236
596,4,-1,1,2,1,0,0,0,0.874023,0.113281,0.12207,28.9375,2.5625,20.0625,0.941774,-1.38886,1.36321
596,-5,-4,-1,-3,0,-1,-2,0,0.874023,0.113281,0.12207,28.9375,2.5625,20.0625,0.941774,-1.38886,1.36321
612,-1,-1,0,-1,-1,-2,0,0,0.874023,0.113281,0.12207,28.9375,2.5625,20.0625,0.941774,-1.38886,1.36321
612,0,-8,-3,-1,-2,-3,-1,-2,0.874023,0.113281,0.12207,28.9375,2.5625,20.0625,0.941774,-1.38886,1.36321
613,0,-6,-2,-1,-2,-3,-2,-1,0.867188,0.101562,0.11084,29.5,3.625,22.25,0.916583,-1.39431,1.39888
613,4,-1,2,1,-3,1,0,2,0.867188,0.101562,0.11084,29.5,3.625,22.25,0.916583,-1.39431,1.39888
626,-1,-4,-5,-2,0,-2,-2,-2,0.867188,0.101562,0.11084,29.5,3.625,22.25,0.916583,-1.39431,1.39888
626,0,5,0,-2,-2,1,-2,-2,0.867188,0.101562,0.11084,29.5,3.625,22.25,0.916583,-1.39431,1.39888
635,-4,-1,-2,-3,-1,-1,-2,-4,0.880371,0.0771484,0.105957,29.75,4.5,22.4375,0.887623,-1.39992,1.43826
635,1,0,-1,-1,-1,-2,-2,0,0.880371,0.0771484,0.105957,29.75,4.5,22.4375,0.887623,-1.39992,1.43826
664,1,-8,3,-1,0,1,1,1,0.880371,0.0771484,0.105957,29.75,4.5,22.4375,0.887623,-1.39992,1.43826
664,-4,-14,-5,-1,0,-1,-3,-2,0.880371,0.0771484,0.105957,29.75,4.5,22.4375,0.887623,-1.39992,1.43826
665,-2,-8,-2,-2,-2,-1,0,-1,0.90332,0.0576172,0.106445,30.875,5.75,23.1875,0.852397,-1.40582,1.4852
665,-2,0,-2,-1,0,0,-1,-1,0.90332,0.0576172,0.106445,30.875,5.75,23.1875,0.852397,-1.40582,1.4852
672,-2,5,-1,-1,-3,-2,0,-1,0.90332,0.0576172,0.106445,30.875,5.75,23.1875,0.852397,-1.40582,1.4852
672,-1,4,-3,-2,-1,0,-2,1,0.90332,0.0576172,0.106445,30.875,5.75,23.1875,0.852397,-1.40582,1.4852
674,-6,1,0,-1,0,-2,-3,-2,0.918945,0.0507812,0.0874023,33.0625,7.5,23.3125,0.814218,-1.4115,1.53565
674,-3,0,-1,-3,-2,-1,-3,-2,0.918945,0.0507812,0.0874023,33.0625,7.5,23.3125,0.814218,-1.4115,1.53565
686,-9,-1,-1,-2,-2,-1,-2,-5,0.918945,0.0507812,0.0874023,33.0625,7.5,23.3125,0.814218,-1.4115,1.53565
686,3,-1,-3,-1,-1,-1,2,-1,0.918945,0.0507812,0.0874023,33.0625,7.5,23.3125,0.814218,-1.4115,1.53565
694,0,6,-2,-1,0,-1,-1,-1,0.92041,0.0546875,0.0708008,28,9.4375,23.75,0.770783,-1.4162,1.58912
694,2,3,1,0,0,0,0,0,0.92041,0.0546875,0.0708008,28,9.4375,23.75,0.770783,-1.4162,1.58912
709,4,4,0,-1,-1,-1,13,5,0.92041,0.0546875,0.0708008,28,9.4375,23.75,0.770783,-1.4162,1.58912
709,-5,10,2,-1,-1,-3,-22,-8,0.92041,0.0546875,0.0708008,28,9.4375,23.75,0.770783,-1.4162,1.58912
716,2,-9,-7,0,-1,0,0,-1,0.892578,0.034668,0.0761719,24,11.375,27.125,0.71197,-1.42074,1.65663
716,-3,-2,0,-2,-1,-1,-3,-2,0.892578,0.034668,0.0761719,24,11.375,27.125,0.71197,-1.42074,1.65663
732,2,6,1,-2,-1,-1,-1,-1,0.892578,0.034668,0.0761719,24,11.375,27.125,0.71197,-1.42074,1.65663
732,2,6,2,0,0,0,5,0,0.892578,0.034668,0.0761719,24,11.375,27.125,0.71197,-1.42074,1.65663
733,5,6,-1,-1,0,-1,1,2,0.880859,0,0.0786133,22.6875,10.9375,28.875,0.642788,-1.42553,1.73418
733,-8,-10,-6,-3,-1,-1,-10,-3,0.880859,0,0.0786133,22.6875,10.9375,28.875,0.642788,-1.42553,1.73418
745,-5,-7,-5,0,0,-2,-2,1,0.880859,0,0.0786133,22.6875,10.9375,28.875,0.642788,-1.42553,1.73418
745,-2,-1,-2,-1,-2,0,2,0,0.880859,0,0.0786133,22.6875,10.9375,28.875,0.642788,-1.42553,1.73418
754,3,33,13,1,0,1,0,3,0.913574,-0.0205078,0.0898438,23.1875,10.1875,28.625,0.569321,-1.4299,1.81648
754,2,-26,2,6,4,2,2,0,0.913574,-0.0205078,0.0898438,23.1875,10.1875,28.625,0.569321,-1.4299,1.81648
769,-3,27,-2,-5,-5,-3,-7,-6,0.913574,-0.0205078,0.0898438,23.1875,10.1875,28.625,0.569321,-1.4299,1.81648
769,-1,-1,-8,-6,-2,-2,1,-1,0.913574,-0.0205078,0.0898438,23.1875,10.1875,28.625,0.569321,-1.4299,1.81648
775,4,-3,3,0,-1,0,-1,3,0.947754,-0.0581055,0.125977,30.5,8.75,28.25,0.487725,-1.43355,1.90942
775,-6,18,8,-1,0,-2,2,-1,0.947754,-0.0581055,0.125977,30.5,8.75,28.25,0.487725,-1.43355,1.90942
792,4,-10,2,3,2,0,-1,1,0.947754,-0.0581055,0.125977,30.5,8.75,28.25,0.487725,-1.43355,1.90942
792,-1,-18,-5,0,0,0,4,1,0.947754,-0.0581055,0.125977,30.5,8.75,28.25,0.487725,-1.43355,1.90942
793,9,-2,0,0,-3,-2,0,2,0.994141,-0.0654297,0.0556641,33.4375,8.5,25.9375,0.415923,-1.43776,1.99384
793,-6,-10,-6,-2,-2,-2,1,-1,0.994141,-0.0654297,0.0556641,33.4375,8.5,25.9375,0.415923,-1.43776,1.99384
806,10,-11,1,1,-1,2,-2,3,0.994141,-0.0654297,0.0556641,33.4375,8.5,25.9375,0.415923,-1.43776,1.99384
806,-19,7,-1,-4,-3,-2,-2,-8,0.994141,-0.0654297,0.0556641,33.4375,8.5,25.9375,0.415923,-1.43776,1.99384
815,-2,-27,-6,-1,-1,-1,-7,-3,0.980469,-0.0449219,0.050293,34.625,10.9375,24.1875,0.346774,-1.43962,2.07552
815,3,9,-1,-2,-1,-2,9,1,0.980469,-0.0449219,0.050293,34.625,10.9375,24.1875,0.346774,-1.43962,2.07552
829,3,7,0,-1,-1,-1,-2,-2,0.980469,-0.0449219,0.050293,34.625,10.9375,24.1875,0.346774,-1.43962,2.07552
829,6,6,8,1,0,3,-1,14,0.980469,-0.0449219,0.050293,34.625,10.9375,24.1875,0.346774,-1.43962,2.07552
836,-7,-16,-8,0,0,0,-7,-12,0.963379,-0.034668,0.0424805,31.6875,11.75,24.625,0.278116,-1.44025,2.1553
836,7,20,11,1,1,1,3,2,0.963379,-0.034668,0.0424805,31.6875,11.75,24.625,0.278116,-1.44025,2.1553
852,-1,0,-12,-1,1,-1,0,-2,0.963379,-0.034668,0.0424805,31.6875,11.75,24.625,0.278116,-1.44025,2.1553
852,-6,8,-25,-2,-1,-3,-7,-4,0.963379,-0.034668,0.0424805,31.6875,11.75,24.625,0.278116,-1.44025,2.1553
853,-10,-27,14,-2,0,0,8,3,1.01611,-0.0341797,0.0922852,28.3125,9.25,20.375,0.21892,-1.44103,2.22581
853,-4,33,-3,-4,-4,-3,-10,-7,1.01611,-0.0341797,0.0922852,28.3125,9.25,20.375,0.21892,-1.44103,2.22581
866,7,45,31,5,3,2,7,11,1.01611,-0.0341797,0.0922852,28.3125,9.25,20.375,0.21892,-1.44103,2.22581
866,-8,-85,-32,-4,-1,-3,-1,-1,1.01611,-0.0341797,0.0922852,28.3125,9.25,20.375,0.21892,-1.44103,2.22581
874,-2,7,-9,-1,-2,-2,-2,-2,1.10596,-0.0957031,0.0742188,27.8125,4.5,17.9375,0.159233,-1.44235,2.29519
874,3,-16,-1,2,1,2,0,2,1.10596,-0.0957031,0.0742188,27.8125,4.5,17.9375,0.159233,-1.44235,2.29519
888,-8,5,-2,-5,-1,0,-6,-6,1.10596,-0.0957031,0.0742188,27.8125,4.5,17.9375,0.159233,-1.44235,2.29519
888,-5,-3,26,1,-2,0,3,-4,1.10596,-0.0957031,0.0742188,27.8125,4.5,17.9375,0.159233,-1.44235,2.29519
896,-1,-6,-22,0,0,-1,4,0,1.18848,-0.0415039,0.0224609,22.375,6.625,13,0.120908,-1.44364,2.34136
896,1,-7,1,-1,-2,-1,-3,0,1.18848,-0.0415039,0.0224609,22.375,6.625,13,0.120908,-1.44364,2.34136
912,-19,-9,-3,-1,-4,-3,-4,-7,1.18848,-0.0415039,0.0224609,22.375,6.625,13,0.120908,-1.44364,2.34136
912,19,14,10,2,1,0,5,6,1.18848,-0.0415039,0.0224609,22.375,6.625,13,0.120908,-1.44364,2.34136
913,-1,9,4,-3,-2,-2,-1,-3,1.16748,-0.0136719,0.0429688,15.75,9.625,11.9375,0.0877855,-1.44361,2.38047
913,-1,13,-5,-1,-1,-1,-2,0,1.16748,-0.0136719,0.0429688,15.75,9.625,11.9375,0.0877855,-1.44361,2.38047
934,-1,-11,-5,-2,0,0,-2,-3,1.16748,-0.0136719,0.0429688,15.75,9.625,11.9375,0.0877855,-1.44361,2.38047
934,9,16,5,2,2,1,2,-2,1.16748,-0.0136719,0.0429688,15.75,9.625,11.9375,0.0877855,-1.44361,2.38047
936,-4,25,12,1,1,-1,-1,0,1.125,-0.019043,0.0297852,0.6875,11.4375,12,0.0497228,-1.4425,2.4189
936,-2,-26,-18,-6,-4,-3,-1,-1,1.125,-0.019043,0.0297852,0.6875,11.4375,12,0.0497228,-1.4425,2.4189
949,10,-35,-11,0,-1,0,1,5,1.125,-0.019043,0.0297852,0.6875,11.4375,12,0.0497228,-1.4425,2.4189
949,-1,28,-11,1,-3,0,-2,-4,1.125,-0.019043,0.0297852,0.6875,11.4375,12,0.0497228,-1.4425,2.4189
955,1,20,7,0,-2,-1,-9,1,1.08594,0.0297852,0.046875,-5,15.5,10.25,0.0249178,-1.43993,2.44258
955,-1,-37,42,0,-1,-1,9,-1,1.08594,0.0297852,0.046875,-5,15.5,10.25,0.0249178,-1.43993,2.44258
973,1,15,0,-3,-3,-3,-2,1,1.08594,0.0297852,0.046875,-5,15.5,10.25,0.0249178,-1.43993,2.44258
973,3,27,-3,-7,-6,-5,-12,-3,1.08594,0.0297852,0.046875,-5,15.5,10.25,0.0249178,-1.43993,2.44258
974,-7,-56,-40,-3,-1,-1,-2,-2,1.06299,-0.0136719,0.0834961,-1.25,13.625,9.625,-0.00379062,-1.43686,2.47122
974,2,22,-2,4,2,0,-1,3,1.06299,-0.0136719,0.0834961,-1.25,13.625,9.625,-0.00379062,-1.43686,2.47122
995,2,-23,-4,2,1,0,4,0,1.06299,-0.0136719,0.0834961,-1.25,13.625,9.625,-0.00379062,-1.43686,2.47122
995,-1,-3,12,2,1,-1,3,-1,1.06299,-0.0136719,0.0834961,-1.25,13.625,9.625,-0.00379062,-1.43686,2.47122
996,-5,9,5,0,0,-2,-1,0,1.09766,-0.0117188,0.0229492,-5.125,16,8.1875,-0.027674,-1.43378,2.49314
996,-1,-8,-9,-2,-3,-3,-1,-2,1.09766,-0.0117188,0.0229492,-5.125,16,8.1875,-0.027674,-1.43378,2.49314
1009,-2,-9,-3,-1,1,-1,-2,-4,1.09766,-0.0117188,0.0229492,-5.125,16,8.1875,-0.027674,-1.43378,2.49314
1009,-9,2,1,0,-1,0,0,-3,1.09766,-0.0117188,0.0229492,-5.125,16,8.1875,-0.027674,-1.43378,2.49314
1016,-6,5,1,-4,-3,-3,-1,-5,1.05469,-0.00732422,0.0620117,2.5,21.625,9.75,-0.049766,-1.42816,2.51637
1016,0,9,-10,-1,-2,1,-1,-1,1.05469,-0.00732422,0.0620117,2.5,21.625,9.75,-0.049766,-1.42816,2.51637
1032,1,6,11,0,-1,-2,-4,-2,1.05469,-0.00732422,0.0620117,2.5,21.625,9.75,-0.049766,-1.42816,2.51637
1032,3,4,-4,1,-1,0,2,1,1.05469,-0.00732422,0.0620117,2.5,21.625,9.75,-0.049766,-1.42816,2.51637
1033,9,21,13,2,0,2,3,2,1.02295,0.00634766,0.0917969,-3.375,23.625,8.375,-0.0657995,-1.422,2.53186
1033,-7,-10,-18,-2,-2,-2,-5,-3,1.02295,0.00634766,0.0917969,-3.375,23.625,8.375,-0.0657995,-1.422,2.53186
1055,-9,-71,-36,-4,-1,-1,-5,-4,1.02295,0.00634766,0.0917969,-3.375,23.625,8.375,-0.0657995,-1.422,2.53186
1055,2,9,23,-2,-1,-1,2,-1,1.02295,0.00634766,0.0917969,-3.375,23.625,8.375,-0.0657995,-1.422,2.53186
1056,-14,39,-3,-6,-4,-3,-2,-4,0.976562,0.0268555,0.125977,0.5,23.4375,5.4375,-0.0687897,-1.41389,2.53491
1056,3,5,-7,-3,-2,-2,-3,-1,0.976562,0.0268555,0.125977,0.5,23.4375,5.4375,-0.0687897,-1.41389,2.53491
1068,0,41,40,1,0,-1,-1,-1,0.976562,0.0268555,0.125977,0.5,23.4375,5.4375,-0.0687897,-1.41389,2.53491
1068,0,9,-28,3,1,0,1,2,0.976562,0.0268555,0.125977,0.5,23.4375,5.4375,-0.0687897,-1.41389,2.53491
1077,-7,-98,-28,-7,-3,-3,-2,-6,0.949707,-0.0161133,0.0976562,11.1875,19.6875,4.4375,-0.0724308,-1.40868,2.54273
1077,-2,12,-5,-4,1,1,-4,-1,0.949707,-0.0161133,0.0976562,11.1875,19.6875,4.4375,-0.0724308,-1.40868,2.54273
1091,-9,3,-21,-3,-4,-5,-5,-5,0.949707,-0.0161133,0.0976562,11.1875,19.6875,4.4375,-0.0724308,-1.40868,2.54273
1091,0,22,21,3,2,1,-2,2,0.949707,-0.0161133,0.0976562,11.1875,19.6875,4.4375,-0.0724308,-1.40868,2.54273
1107,3,23,10,2,-1,-2,-4,0,1.00244,0,0.0922852,9.4375,18.9375,1.4375,-0.0687491,-1.40372,2.54229
1107,3,-13,-2,3,0,3,3,2,1.00244,0,0.0922852,9.4375,18.9375,1.4375,-0.0687491,-1.40372,2.54229
1114,2,-7,0,-2,-1,0,4,-1,1.00244,0,0.0922852,9.4375,18.9375,1.4375,-0.0687491,-1.40372,2.54229
1114,-2,-8,-3,-2,-2,-1,-6,-3,1.00244,0,0.0922852,9.4375,18.9375,1.4375,-0.0687491,-1.40372,2.54229
1129,4,-7,9,3,-1,1,3,2,0.97998,-0.00439453,0.126465,-0.375,19.625,0.75,-0.0670327,-1.39777,2.54042
1129,5,4,-5,-2,1,-2,-1,0,0.97998,-0.00439453,0.126465,-0.375,19.625,0.75,-0.0670327,-1.39777,2.54042
1137,1,19,4,0,-1,0,-4,0,0.97998,-0.00439453,0.126465,-0.375,19.625,0.75,-0.0670327,-1.39777,2.54042
1137,1,-20,-4,-1,-1,0,0,-2,0.97998,-0.00439453,0.126465,-0.375,19.625,0.75,-0.0670327,-1.39777,2.54042
1138,1,-8,0,-2,-2,-2,2,-1,0.955566,-0.0126953,0.130371,-1.875,16.125,0.1875,-0.0665597,-1.3936,2.53955
1138,1,0,27,7,4,0,2,2,0.955566,-0.0126953,0.130371,-1.875,16.125,0.1875,-0.0665597,-1.3936,2.53955
1150,-4,60,6,-5,-5,-5,-5,-7,0.955566,-0.0126953,0.130371,-1.875,16.125,0.1875,-0.0665597,-1.3936,2.53955
1150,-4,-77,-19,-5,-1,-1,1,1,0.955566,-0.0126953,0.130371,-1.875,16.125,0.1875,-0.0665597,-1.3936,2.53955
1159,8,8,11,1,1,0,0,2,0.96875,0.0180664,0.138672,0.625,12.4375,-5.1875,-0.051574,-1.38982,2.52435
1159,5,24,0,-1,0,0,1,-2,0.96875,0.0180664,0.138672,0.625,12.4375,-5.1875,-0.051574,-1.38982,2.52435
1175,0,41,15,3,2,-1,-7,0,0.96875,0.0180664,0.138672,0.625,12.4375,-5.1875,-0.051574,-1.38982,2.52435
1175,-8,-72,-30,-6,-2,-1,0,-3,0.96875,0.0180664,0.138672,0.625,12.4375,-5.1875,-0.051574,-1.38982,2.52435
1176,3,33,5,-1,-2,-1,-3,-1,0.975586,0.00976562,0.14209,8.4375,10.125,-9.5625,-0.0275861,-1.38749,2.50313
1176,-5,-13,-7,-1,-3,-2,-2,-2,0.975586,0.00976562,0.14209,8.4375,10.125,-9.5625,-0.0275861,-1.38749,2.50313
1197,7,-10,-8,1,2,2,2,2,0.975586,0.00976562,0.14209,8.4375,10.125,-9.5625,-0.0275861,-1.38749,2.50313
1197,8,40,13,1,0,-1,0,0,0.975586,0.00976562,0.14209,8.4375,10.125,-9.5625,-0.0275861,-1.38749,2.50313
1199,2,-44,-13,0,-1,-1,1,0,0.991211,-0.0297852,0.097168,17.625,8.8125,-8.75,-0.00868041,-1.38651,2.49009
1199,-1,-4,-7,-2,-1,-2,-2,-2,0.991211,-0.0297852,0.097168,17.625,8.8125,-8.75,-0.00868041,-1.38651,2.49009
1211,-2,-16,-3,0,0,0,2,1,0.991211,-0.0297852,0.097168,17.625,8.8125,-8.75,-0.00868041,-1.38651,2.49009
1211,-2,11,7,-2,-1,-2,-3,-3,0.991211,-0.0297852,0.097168,17.625,8.8125,-8.75,-0.00868041,-1.38651,2.49009
1219,-3,11,2,2,-2,-1,2,-2,1.02246,0.0224609,0.107422,12,9.1875,-8.125,0.013116,-1.38552,2.47233
1219,0,5,2,-3,-3,0,1,1,1.02246,0.0224609,0.107422,12,9.1875,-8.125,0.013116,-1.38552,2.47233
1234,-10,-12,-8,-2,-4,-6,-16,-12,1.02246,0.0224609,0.107422,12,9.1875,-8.125,0.013116,-1.38552,2.47233
1234,0,21,10,2,1,0,3,2,1.02246,0.0224609,0.107422,12,9.1875,-8.125,0.013116,-1.38552,2.47233
1241,-4,8,-5,-4,-1,-1,-2,-3,1.05469,0.019043,0.118652,3.875,9.125,-10.6875,0.0357919,-1.38394,2.45052
1241,-4,1,-4,-1,0,-2,-4,-3,1.05469,0.019043,0.118652,3.875,9.125,-10.6875,0.0357919,-1.38394,2.45052
1257,0,-26,-6,1,0,1,4,2,1.05469,0.019043,0.118652,3.875,9.125,-10.6875,0.0357919,-1.38394,2.45052
1257,-1,6,4,-1,1,1,0,0,1.05469,0.019043,0.118652,3.875,9.125,-10.6875,0.0357919,-1.38394,2.45052
1258,3,24,4,0,-1,-1,-1,0,1.07715,0.0166016,0.105469,3.3125,7,-14.4375,0.0641866,-1.38343,2.42273
1258,0,-8,-2,0,0,0,-1,0,1.07715,0.0166016,0.105469,3.3125,7,-14.4375,0.0641866,-1.38343,2.42273
1270,1,-2,-10,-3,-2,-1,3,-1,1.07715,0.0166016,0.105469,3.3125,7,-14.4375,0.0641866,-1.38343,2.42273
1270,-4,-20,0,-2,-1,-2,0,-3,1.07715,0.0166016,0.105469,3.3125,7,-14.4375,0.0641866,-1.38343,2.42273
1279,-1,9,6,0,0,-1,0,0,1.15479,0.050293,0.105469,3.4375,5.5625,-17.375,0.10121,-1.38363,2.38646
1279,4,12,1,-1,0,-2,-2,0,1.15479,0.050293,0.105469,3.4375,5.5625,-17.375,0.10121,-1.38363,2.38646
1295,5,6,11,3,1,0,3,1,1.15479,0.050293,0.105469,3.4375,5.5625,-17.375,0.10121,-1.38363,2.38646
1295,-7,-6,-18,-7,-4,-1,-2,-4,1.15479,0.050293,0.105469,3.4375,5.5625,-17.375,0.10121,-1.38363,2.38646
1296,-3,4,3,2,1,-1,-2,0,1.19092,0.0444336,0.110352,4.875,8.3125,-15.3125,0.132961,-1.38273,2.35598
1296,-5,-7,-11,0,-2,-1,-1,-3,1.19092,0.0444336,0.110352,4.875,8.3125,-15.3125,0.132961,-1.38273,2.35598
1317,-2,-1,0,5,1,1,1,2,1.19092,0.0444336,0.110352,4.875,8.3125,-15.3125,0.132961,-1.38273,2.35598
1317,5,34,26,7,0,0,0,2,1.19092,0.0444336,0.110352,4.875,8.3125,-15.3125,0.132961,-1.38273,2.35598
1318,-6,-36,-7,-10,-5,-4,-6,-6,1.18457,0.0439453,0.0766602,14.75,2.875,-12.9375,0.164201,-1.38428,2.32928
1318,-8,-51,-29,-7,-1,-2,-3,1,1.18457,0.0439453,0.0766602,14.75,2.875,-12.9375,0.164201,-1.38428,2.32928
1331,-2,1,14,-2,0,0,1,5,1.18457,0.0439453,0.0766602,14.75,2.875,-12.9375,0.164201,-1.38428,2.32928
1331,2,49,6,2,-1,0,-1,-17,1.18457,0.0439453,0.0766602,14.75,2.875,-12.9375,0.164201,-1.38428,2.32928
1340,-3,-27,-14,6,2,1,1,3,1.21973,0.00488281,0.0361328,5.4375,2.4375,-8.8125,0.181181,-1.38775,2.31426
1340,-9,3,-2,-2,0,0,-3,-6,1.21973,0.00488281,0.0361328,5.4375,2.4375,-8.8125,0.181181,-1.38775,2.31426
1354,4,-55,-25,-2,-1,2,2,5,1.21973,0.00488281,0.0361328,5.4375,2.4375,-8.8125,0.181181,-1.38775,2.31426
1354,-5,10,-2,-7,-3,-4,-1,2,1.21973,0.00488281,0.0361328,5.4375,2.4375,-8.8125,0.181181,-1.38775,2.31426
1356,2,25,6,-1,-2,-2,-1,2,1.21631,-0.0288086,0.0493164,2.25,1.5625,-4.375,0.185006,-1.39099,2.31075
1356,3,19,1,2,0,1,0,1,1.21631,-0.0288086,0.0493164,2.25,1.5625,-4.375,0.185006,-1.39099,2.31075
1385,-4,-7,1,2,1,0,-2,-1,1.21631,-0.0288086,0.0493164,2.25,1.5625,-4.375,0.185006,-1.39099,2.31075
1385,-5,7,-4,-1,-2,-2,-1,-1,1.21631,-0.0288086,0.0493164,2.25,1.5625,-4.375,0.185006,-1.39099,2.31075
1386,-4,-9,0,-3,0,-2,-2,-7,1.23193,-0.0224609,0.0400391,14.4375,0.9375,-1.5,0.188367,-1.39546,2.31281
1386,1,-10,5,-1,-2,-1,-3,-1,1.23193,-0.0224609,0.0400391,14.4375,0.9375,-1.5,0.188367,-1.39546,2.31281
1400,1,5,-8,-6,-4,-2,-3,-3,1.23193,-0.0224609,0.0400391,14.4375,0.9375,-1.5,0.188367,-1.39546,2.31281
1400,-2,-20,0,0,-2,-3,2,7,1.23193,-0.0224609,0.0400391,14.4375,0.9375,-1.5,0.188367,-1.39546,2.31281
1401,4,7,-1,2,-1,-2,11,4,1.21045,0.0170898,0.0410156,20.9375,2.3125,0.6875,0.194742,-1.39884,2.31389
1401,-3,-6,-16,-2,-1,-1,-5,-6,1.21045,0.0170898,0.0410156,20.9375,2.3125,0.6875,0.194742,-1.39884,2.31389
1414,0,7,-3,0,-1,-1,1,-4,1.21045,0.0170898,0.0410156,20.9375,2.3125,0.6875,0.194742,-1.39884,2.31389
1414,2,-9,8,3,1,1,-1,4,1.21045,0.0170898,0.0410156,20.9375,2.3125,0.6875,0.194742,-1.39884,2.31389
1421,-3,-9,-5,-2,-4,-1,1,-5,1.20557,0.0717773,0.0688477,19.375,1.8125,0.0625,0.208348,-1.40095,2.30681
1421,-1,12,22,3,-3,-4,-1,-1,1.20557,0.0717773,0.0688477,19.375,1.8125,0.0625,0.208348,-1.40095,2.30681
1437,4,-12,-13,0,2,2,2,5,1.20557,0.0717773,0.0688477,19.375,1.8125,0.0625,0.208348,-1.40095,2.30681
1437,3,-4,-3,3,2,3,1,1,1.20557,0.0717773,0.0688477,19.375,1.8125,0.0625,0.208348,-1.40095,2.30681
1438,-12,1,-4,-7,-9,-7,-7,-12,1.21729,0.149902,0.0405273,-1.125,6.3125,4.5625,0.216305,-1.40248,2.29908
1438,0,3,-9,-7,-7,-7,-3,-5,1.21729,0.149902,0.0405273,-1.125,6.3125,4.5625,0.216305,-1.40248,2.29908
1460,-1,27,13,-2,-3,-1,-2,1,1.21729,0.149902,0.0405273,-1.125,6.3125,4.5625,0.216305,-1.40248,2.29908
1460,-1,-12,-4,-3,-5,-3,-5,-1,1.21729,0.149902,0.0405273,-1.125,6.3125,4.5625,0.216305,-1.40248,2.29908
1461,4,17,3,2,4,3,-1,0,1.1748,0.147949,0.0996094,-16.125,10.5625,3.1875,0.217665,-1.40081,2.2925
1461,2,3,0,-2,-1,-1,0,3,1.1748,0.147949,0.0996094,-16.125,10.5625,3.1875,0.217665,-1.40081,2.2925
1475,-4,-1,-7,-3,-4,-5,0,-6,1.1748,0.147949,0.0996094,-16.125,10.5625,3.1875,0.217665,-1.40081,2.2925
1475,3,9,0,0,3,0,0,-3,1.1748,0.147949,0.0996094,-16.125,10.5625,3.1875,0.217665,-1.40081,2.2925
1488,3,-22,1,3,2,-1,1,4,1.14062,0.102051,0.0952148,-36.4375,13.25,2.1875,0.206234,-1.39843,2.29156
1488,-6,-9,-2,-4,-3,-3,-1,-3,1.14062,0.102051,0.0952148,-36.4375,13.25,2.1875,0.206234,-1.39843,2.29156
1497,1,17,9,2,1,-1,1,-1,1.14062,0.102051,0.0952148,-36.4375,13.25,2.1875,0.206234,-1.39843,2.29156
1497,-9,-14,-6,-4,-2,-5,-2,-5,1.14062,0.102051,0.0952148,-36.4375,13.25,2.1875,0.206234,-1.39843,2.29156
1498,2,27,-12,-2,1,-1,-2,2,1.09766,0.0429688,0.130371,-40.0625,15.3125,5.5,0.178235,-1.39491,2.30582
1498,0,12,7,0,-2,-1,0,0,1.09766,0.0429688,0.130371,-40.0625,15.3125,5.5,0.178235,-1.39491,2.30582
1520,-1,-1,-6,-5,-2,-3,-3,-4,1.09766,0.0429688,0.130371,-40.0625,15.3125,5.5,0.178235,-1.39491,2.30582
1520,2,5,3,-4,-1,-1,-3,1,1.09766,0.0429688,0.130371,-40.0625,15.3125,5.5,0.178235,-1.39491,2.30582
1521,3,-5,4,4,4,0,-1,4,1.06201,-0.0439453,0.153809,-34.6875,15.8125,9.5625,0.134455,-1.39075,2.33745
1521,-2,-33,5,7,2,2,2,-1,1.06201,-0.0439453,0.153809,-34.6875,15.8125,9.5625,0.134455,-1.39075,2.33745
1533,-8,-5,0,-2,-3,-3,-4,-2,1.06201,-0.0439453,0.153809,-34.6875,15.8125,9.5625,0.134455,-1.39075,2.33745
1533,0,4,-4,-3,-1,-1,0,-1,1.06201,-0.0439453,0.153809,-34.6875,15.8125,9.5625,0.134455,-1.39075,2.33745
1542,2,4,-3,-5,-2,0,-2,1,1.0415,-0.0561523,0.183105,-25.5625,17.125,12.375,0.0883286,-1.38607,2.37537
1542,2,10,3,0,-1,1,0,4,1.0415,-0.0561523,0.183105,-25.5625,17.125,12.375,0.0883286,-1.38607,2.37537
1557,11,-23,-1,-1,-1,0,0,5,1.0415,-0.0561523,0.183105,-25.5625,17.125,12.375,0.0883286,-1.38607,2.37537
1557,-9,-12,-7,-5,-6,-2,-5,-8,1.0415,-0.0561523,0.183105,-25.5625,17.125,12.375,0.0883286,-1.38607,2.37537
1558,-2,-12,-2,-7,-4,1,1,0,1.02441,-0.034668,0.209473,-15.75,18.8125,12.5,0.0516921,-1.37985,2.40705
1558,1,-31,2,-5,-2,2,0,-3,1.02441,-0.034668,0.209473,-15.75,18.8125,12.5,0.0516921,-1.37985,2.40705
1580,-5,1,-3,3,2,-1,-2,0,1.02441,-0.034668,0.209473,-15.75,18.8125,12.5,0.0516921,-1.37985,2.40705
1580,4,27,4,17,8,4,1,0,1.02441,-0.034668,0.209473,-15.75,18.8125,12.5,0.0516921,-1.37985,2.40705
1581,2,49,5,4,-1,3,-2,-1,0.986328,-0.0307617,0.202148,-12,21.4375,15.1875,0.0149696,-1.37225,2.43981
1581,-1,35,-2,-2,-5,1,0,4,0.986328,-0.0307617,0.202148,-12,21.4375,15.1875,0.0149696,-1.37225,2.43981
1593,6,14,-3,-8,-3,2,-1,0,0.986328,-0.0307617,0.202148,-12,21.4375,15.1875,0.0149696,-1.37225,2.43981
1593,0,-1,-3,-9,-5,-2,0,-2,0.986328,-0.0307617,0.202148,-12,21.4375,15.1875,0.0149696,-1.37225,2.43981
1602,-8,4,-3,-2,1,0,-3,-5,0.961914,-0.0292969,0.217285,-18.9375,24.5,16.75,-0.0227715,-1.36345,2.47168
1602,-1,-4,0,0,3,1,0,2,0.961914,-0.0292969,0.217285,-18.9375,24.5,16.75,-0.0227715,-1.36345,2.47168
1617,-5,-20,0,-1,-1,-1,0,-4,0.961914,-0.0292969,0.217285,-18.9375,24.5,16.75,-0.0227715,-1.36345,2.47168
1617,2,-15,-3,0,0,1,0,0,0.961914,-0.0292969,0.217285,-18.9375,24.5,16.75,-0.0227715,-1.36345,2.47168
1619,2,-13,3,3,3,3,3,2,0.939453,-0.0449219,0.259277,-30.5625,25.25,15.25,-0.0604019,-1.35313,2.49917
1619,0,-51,2,1,1,1,-1,-4,0.939453,-0.0449219,0.259277,-30.5625,25.25,15.25,-0.0604019,-1.35313,2.49917
1640,-2,-22,-4,1,-1,-3,-7,-2,0.939453,-0.0449219,0.259277,-30.5625,25.25,15.25,-0.0604019,-1.35313,2.49917
1640,3,2,-3,-4,-8,-4,26,13,0.939453,-0.0449219,0.259277,-30.5625,25.25,15.25,-0.0604019,-1.35313,2.49917
1641,-11,13,-4,-5,-5,-6,-27,-11,0.885254,-0.117188,0.288574,-28,27.125,16.5625,-0.101774,-1.34076,2.53098
1641,-4,49,-1,2,3,0,4,-9,0.885254,-0.117188,0.288574,-28,27.125,16.5625,-0.101774,-1.34076,2.53098
1662,2,24,2,5,5,4,-1,2,0.885254,-0.117188,0.288574,-28,27.125,16.5625,-0.101774,-1.34076,2.53098
1662,-2,-63,-2,-2,-2,-6,-31,-27,0.885254,-0.117188,0.288574,-28,27.125,16.5625,-0.101774,-1.34076,2.53098
1663,12,-12,5,3,-1,-1,19,19,0.833984,-0.165527,0.30957,-6.0625,26.3125,17.0625,-0.136904,-1.32827,2.56444
1663,-2,3,-1,-1,-1,-3,-8,-23,0.833984,-0.165527,0.30957,-6.0625,26.3125,17.0625,-0.136904,-1.32827,2.56444
1677,-8,1,-7,-5,-2,13,34,39,0.833984,-0.165527,0.30957,-6.0625,26.3125,17.0625,-0.136904,-1.32827,2.56444
1677,3,29,-4,-3,2,3,20,11,0.833984,-0.165527,0.30957,-6.0625,26.3125,17.0625,-0.136904,-1.32827,2.56444
1679,12,3,1,-1,-4,-19,-33,7,0.824707,-0.0957031,0.325195,7.375,26.5,11.6875,-0.149682,-1.31578,2.57993
1679,-7,-1,-1,-2,-4,-8,-28,-8,0.824707,-0.0957031,0.325195,7.375,26.5,11.6875,-0.149682,-1.31578,2.57993
1700,-9,-3,1,-2,0,-5,1,-26,0.824707,-0.0957031,0.325195,7.375,26.5,11.6875,-0.149682,-1.31578,2.57993
1700,17,0,3,5,10,17,26,15,0.824707,-0.0957031,0.325195,7.375,26.5,11.6875,-0.149682,-1.31578,2.57993
1701,-4,-38,-7,-4,-4,6,49,25,0.803711,-0.012207,0.347168,9.8125,29.625,6.1875,-0.144789,-1.30238,2.5788
1701,-36,-8,-5,-5,-10,-16,-28,-25,0.803711,-0.012207,0.347168,9.8125,29.625,6.1875,-0.144789,-1.30238,2.5788
1712,-5,-1,-1,-2,-7,-5,-6,11,0.803711,-0.012207,0.347168,9.8125,29.625,6.1875,-0.144789,-1.30238,2.5788
1712,1,-4,2,0,0,0,-5,0,0.803711,-0.012207,0.347168,9.8125,29.625,6.1875,-0.144789,-1.30238,2.5788
1722,20,0,1,3,6,8,-20,-21,0.758789,0.03125,0.415527,-0.75,28.9375,-1.6875,-0.130481,-1.28779,2.56418
1722,26,12,2,3,8,13,26,22,0.758789,0.03125,0.415527,-0.75,28.9375,-1.6875,-0.130481,-1.28779,2.56418
1737,-7,-16,-1,0,-5,-12,-21,-3,0.758789,0.03125,0.415527,-0.75,28.9375,-1.6875,-0.130481,-1.28779,2.56418
1737,-25,1,-3,-2,-6,-12,-35,-11,0.758789,0.03125,0.415527,-0.75,28.9375,-1.6875,-0.130481,-1.28779,2.56418
1738,-6,-2,4,1,0,0,4,-14,0.731934,-0.0112305,0.400879,-9.3125,25.9375,1.1875,-0.127772,-1.27458,2.55814
1738,4,-7,-5,-4,-2,0,16,19,0.731934,-0.0112305,0.400879,-9.3125,25.9375,1.1875,-0.127772,-1.27458,2.55814
1767,5,-4,0,-3,0,2,-7,-11,0.731934,-0.0112305,0.400879,-9.3125,25.9375,1.1875,-0.127772,-1.27458,2.55814
1767,13,-22,-1,0,1,-3,10,24,0.731934,-0.0112305,0.400879,-9.3125,25.9375,1.1875,-0.127772,-1.27458,2.55814
1768,-9,-20,-2,-1,-1,-4,0,30,0.754395,-0.0737305,0.397949,-16.375,25.1875,7.125,-0.139261,-1.26169,2.56416
1768,-3,-1,3,-2,1,3,3,-16,0.754395,-0.0737305,0.397949,-16.375,25.1875,7.125,-0.139261,-1.26169,2.56416
1773,15,16,7,3,3,1,2,1,0.754395,-0.0737305,0.397949,-16.375,25.1875,7.125,-0.139261,-1.26169,2.56416
1773,-12,25,-6,-5,-6,-5,-18,-26,0.754395,-0.0737305,0.397949,-16.375,25.1875,7.125,-0.139261,-1.26169,2.56416
1782,-17,9,-2,-2,0,3,11,-5,0.729004,-0.149414,0.419922,-25.1875,22.9375,6.25,-0.157471,-1.2492,2.57352
1782,3,6,0,1,1,-1,0,15,0.729004,-0.149414,0.419922,-25.1875,22.9375,6.25,-0.157471,-1.2492,2.57352
1797,1,8,-1,-1,-2,-3,-8,-10,0.729004,-0.149414,0.419922,-25.1875,22.9375,6.25,-0.157471,-1.2492,2.57352
1797,2,11,1,-3,-5,-2,9,-4,0.729004,-0.149414,0.419922,-25.1875,22.9375,6.25,-0.157471,-1.2492,2.57352
1798,-15,2,0,-2,1,1,-4,-29,0.724609,-0.238281,0.440918,-11.9375,20.5625,11.25,-0.181357,-1.23618,2.593
1798,12,3,1,-1,-1,-5,-18,2,0.724609,-0.238281,0.440918,-11.9375,20.5625,11.25,-0.181357,-1.23618,2.593
1819,-8,-5,-3,-2,1,3,-5,-6,0.724609,-0.238281,0.440918,-11.9375,20.5625,11.25,-0.181357,-1.23618,2.593
1819,-3,-5,-1,0,-2,1,5,5,0.724609,-0.238281,0.440918,-11.9375,20.5625,11.25,-0.181357,-1.23618,2.593
1821,7,-2,-3,-3,-2,0,-6,-6,0.703613,-0.21582,0.45166,6.3125,16.875,9.5,-0.194366,-1.22443,2.60812
1821,-1,1,-1,-1,-2,1,6,-11,0.703613,-0.21582,0.45166,6.3125,16.875,9.5,-0.194366,-1.22443,2.60812
1833,2,2,5,6,2,1,-4,-3,0.703613,-0.21582,0.45166,6.3125,16.875,9.5,-0.194366,-1.22443,2.60812
1833,16,-2,5,0,1,1,-3,-1,0.703613,-0.21582,0.45166,6.3125,16.875,9.5,-0.194366,-1.22443,2.60812
1842,-29,21,3,0,-1,0,-5,-16,0.717285,-0.105957,0.446289,24.0625,12.25,5.625,-0.190479,-1.21548,2.61264
1842,-1,34,9,0,-4,-7,-4,-2,0.717285,-0.105957,0.446289,24.0625,12.25,5.625,-0.190479,-1.21548,2.61264
1857,-7,-93,-43,-11,-5,-2,0,-4,0.717285,-0.105957,0.446289,24.0625,12.25,5.625,-0.190479,-1.21548,2.61264
1857,-7,32,1,-11,-6,-3,-4,2,0.717285,-0.105957,0.446289,24.0625,12.25,5.625,-0.190479,-1.21548,2.61264
1859,7,10,14,-3,-3,-2,2,-4,0.783691,-0.0253906,0.452148,20.8125,9.75,7.375,-0.184107,-1.20804,2.61416
1859,6,-12,-3,16,4,2,1,19,0.783691,-0.0253906,0.452148,20.8125,9.75,7.375,-0.184107,-1.20804,2.61416
1880,20,39,26,16,8,0,12,4,0.783691,-0.0253906,0.452148,20.8125,9.75,7.375,-0.184107,-1.20804,2.61416
1880,-25,-5,-1,3,0,-6,-20,-70,0.783691,-0.0253906,0.452148,20.8125,9.75,7.375,-0.184107,-1.20804,2.61416
1881,8,5,1,-7,-3,1,1,46,0.797363,-0.0439453,0.44043,12.875,6.375,14.125,-0.188784,-1.20175,2.62427
1881,-19,12,8,-13,-8,-3,-1,-13,0.797363,-0.0439453,0.44043,12.875,6.375,14.125,-0.188784,-1.20175,2.62427
1893,-3,-11,-9,-7,-6,-4,-3,5,0.797363,-0.0439453,0.44043,12.875,6.375,14.125,-0.188784,-1.20175,2.62427
1893,36,5,4,12,8,6,10,17,0.797363,-0.0439453,0.44043,12.875,6.375,14.125,-0.188784,-1.20175,2.62427
1902,34,10,2,5,5,2,-2,17,0.881348,-0.0498047,0.419434,-0.4375,4.1875,13.3125,-0.197715,-1.19787,2.63413
1902,-10,-13,-2,1,3,1,-4,-45,0.881348,-0.0498047,0.419434,-0.4375,4.1875,13.3125,-0.197715,-1.19787,2.63413
1917,-26,14,3,-4,-5,-2,-2,19,0.881348,-0.0498047,0.419434,-0.4375,4.1875,13.3125,-0.197715,-1.19787,2.63413
1917,0,22,1,-15,-10,-7,-6,-11,0.881348,-0.0498047,0.419434,-0.4375,4.1875,13.3125,-0.197715,-1.19787,2.63413
1918,24,-45,-22,-6,-4,-1,0,19,0.953613,-0.0991211,0.406738,-5.0625,9.625,11,-0.208036,-1.19282,2.64326
1918,21,5,0,4,5,6,17,83,0.953613,-0.0991211,0.406738,-5.0625,9.625,11,-0.208036,-1.19282,2.64326
1940,23,-7,0,-4,0,-4,10,34,0.953613,-0.0991211,0.406738,-5.0625,9.625,11,-0.208036,-1.19282,2.64326
1940,-87,15,3,7,-4,-5,-10,-74,0.953613,-0.0991211,0.406738,-5.0625,9.625,11,-0.208036,-1.19282,2.64326
1942,27,25,9,4,-3,-3,-5,-13,1.0166,-0.11377,0.446777,13,14.5,15,-0.214721,-1.18575,2.65518
1942,44,-33,-18,-13,-2,-2,-3,16,1.0166,-0.11377,0.446777,13,14.5,15,-0.214721,-1.18575,2.65518
1953,37,4,-2,1,6,4,-16,-3,1.0166,-0.11377,0.446777,13,14.5,15,-0.214721,-1.18575,2.65518
1953,-31,-7,10,6,-1,-13,6,5,1.0166,-0.11377,0.446777,13,14.5,15,-0.214721,-1.18575,2.65518
1962,-28,-10,-16,-18,-11,-5,-7,-61,1.0752,-0.154785,0.441895,21.6875,21.25,20.625,-0.223806,-1.17619,2.67266
1962,1,-25,-5,-30,-16,-3,6,-10,1.0752,-0.154785,0.441895,21.6875,21.25,20.625,-0.223806,-1.17619,2.67266
1977,8,11,-5,28,15,1,4,-7,1.0752,-0.154785,0.441895,21.6875,21.25,20.625,-0.223806,-1.17619,2.67266
1977,48,-18,17,47,27,8,4,56,1.0752,-0.154785,0.441895,21.6875,21.25,20.625,-0.223806,-1.17619,2.67266
1978,9,10,9,21,15,6,5,44,1.16797,-0.150879,0.438965,24.3125,25.4375,33.6875,-0.240235,-1.16587,2.69934
1978,-23,-19,3,-13,-16,-9,-6,-32,1.16797,-0.150879,0.438965,24.3125,25.4375,33.6875,-0.240235,-1.16587,2.69934
1999,-22,15,-12,-32,-19,-11,-10,-34,1.16797,-0.150879,0.438965,24.3125,25.4375,33.6875,-0.240235,-1.16587,2.69934
1999,-15,-46,-6,-11,-8,-1,0,13,1.16797,-0.150879,0.438965,24.3125,25.4375,33.6875,-0.240235,-1.16587,2.69934
2000,31,12,-16,7,9,9,8,31,1.34961,0.00927734,0.355469,35.75,19.5,31.25,-0.242537,-1.16207,2.7164
2000,47,12,11,-10,-10,13,43,14,1.34961,0.00927734,0.355469,35.75,19.5,31.25,-0.242537,-1.16207,2.7164
2013,-118,-11,-20,-32,-13,-5,-19,-101,1.34961,0.00927734,0.355469,35.75,19.5,31.25,-0.242537,-1.16207,2.7164
2013,89,35,6,5,11,-5,-17,68,1.34961,0.00927734,0.355469,35.75,19.5,31.25,-0.242537,-1.16207,2.7164
2022,-29,-16,17,33,10,-2,-2,-67,1.49561,0.103516,0.539062,67.25,40.875,18.5625,-0.212894,-1.15043,2.71202
2022,58,10,6,18,-1,-18,-49,-41,1.49561,0.103516,0.539062,67.25,40.875,18.5625,-0.212894,-1.15043,2.71202
2044,32,27,33,3,-4,0,20,-10,1.49561,0.103516,0.539062,67.25,40.875,18.5625,-0.212894,-1.15043,2.71202
2044,-9,-14,-16,-44,-26,9,45,30,1.49561,0.103516,0.539062,67.25,40.875,18.5625,-0.212894,-1.15043,2.71202
2046,34,6,-7,-29,0,-7,-16,44,1.01611,-0.0786133,0.707031,45.0625,62.8125,52.5,-0.221049,-1.12043,2.73925
2046,-92,9,-39,-20,4,-17,-39,-36,1.01611,-0.0786133,0.707031,45.0625,62.8125,52.5,-0.221049,-1.12043,2.73925
2060,32,16,57,62,27,-6,-9,20,1.01611,-0.0786133,0.707031,45.0625,62.8125,52.5,-0.221049,-1.12043,2.73925
2060,25,4,1,34,31,30,19,27,1.01611,-0.0786133,0.707031,45.0625,62.8125,52.5,-0.221049,-1.12043,2.73925
2061,-22,-15,3,19,-6,3,23,-8,0.538574,-0.234375,0.791504,-20.3125,37.75,65.3125,-0.26727,-1.09025,2.78281
2061,-6,4,3,-24,-51,-29,-23,42,0.538574,-0.234375,0.791504,-20.3125,37.75,65.3125,-0.26727,-1.09025,2.78281
2073,36,-14,-24,-80,-32,-6,-15,59,0.538574,-0.234375,0.791504,-20.3125,37.75,65.3125,-0.26727,-1.09025,2.78281
2073,-22,-18,-18,3,6,14,29,12,0.538574,-0.234375,0.791504,-20.3125,37.75,65.3125,-0.26727,-1.09025,2.78281
2083,-53,-41,-12,-38,-23,2,5,-57,0.394531,-0.333984,0.377441,25.4375,-0.625,53.3125,-0.30336,-1.07979,2.83094
2083,-8,4,-5,66,108,58,16,-1,0.394531,-0.333984,0.377441,25.4375,-0.625,53.3125,-0.30336,-1.07979,2.83094
2097,-12,2,23,89,16,-35,-64,24,0.394531,-0.333984,0.377441,25.4375,-0.625,53.3125,-0.30336,-1.07979,2.83094
2097,37,27,11,-64,-93,-18,-28,-57,0.394531,-0.333984,0.377441,25.4375,-0.625,53.3125,-0.30336,-1.07979,2.83094
2098,48,34,-5,-72,-21,-10,-24,23,1.11572,-0.183105,0.436523,52.6875,0.25,5.3125,-0.290732,-1.08188,2.83685
2098,10,12,-12,63,52,23,110,36,1.11572,-0.183105,0.436523,52.6875,0.25,5.3125,-0.290732,-1.08188,2.83685
2120,-72,19,13,93,55,37,-14,-40,1.11572,-0.183105,0.436523,52.6875,0.25,5.3125,-0.290732,-1.08188,2.83685
2120,-64,-15,6,47,19,-2,-28,-65,1.11572,-0.183105,0.436523,52.6875,0.25,5.3125,-0.290732,-1.08188,2.83685
2121,-46,-20,-10,-45,-67,-15,-21,-15,0.841309,0.123535,-0.0102539,47.5625,-5.375,26.75,-0.286006,-1.09154,2.85188
2121,93,9,11,-52,27,-17,42,88,0.841309,0.123535,-0.0102539,47.5625,-5.375,26.75,-0.286006,-1.09154,2.85188
2133,-31,-28,-48,-69,-26,19,13,-63,0.841309,0.123535,-0.0102539,47.5625,-5.375,26.75,-0.286006,-1.09154,2.85188
2133,50,16,-31,-31,-31,-19,-99,5,0.841309,0.123535,-0.0102539,47.5625,-5.375,26.75,-0.286006,-1.09154,2.85188
2142,28,15,23,60,5,-3,-1,-2,1.08789,0.0327148,0,15.875,-5.9375,-21.75,-0.265702,-1.10775,2.8356
2142,38,18,31,45,-9,3,-22,26,1.08789,0.0327148,0,15.875,-5.9375,-21.75,-0.265702,-1.10775,2.8356
2157,60,17,-14,-29,37,-1,62,15,1.08789,0.0327148,0,15.875,-5.9375,-21.75,-0.265702,-1.10775,2.8356
2157,-79,-31,1,7,-13,-24,-15,-31,1.08789,0.0327148,0,15.875,-5.9375,-21.75,-0.265702,-1.10775,2.8356
2163,-57,-9,-42,-102,-94,-52,-21,-46,1.33105,0.0878906,-0.0366211,-23.9375,0.375,-3.8125,-0.267342,-1.12331,2.82895
2163,45,0,-18,-16,-54,-11,-4,18,1.33105,0.0878906,-0.0366211,-23.9375,0.375,-3.8125,-0.267342,-1.12331,2.82895
2179,-59,1,66,78,66,12,5,-55,1.33105,0.0878906,-0.0366211,-23.9375,0.375,-3.8125,-0.267342,-1.12331,2.82895
2179,91,7,76,83,110,19,40,44,1.33105,0.0878906,-0.0366211,-23.9375,0.375,-3.8125,-0.267342,-1.12331,2.82895
2181,25,8,-12,-26,15,13,-7,-14,1.20605,-0.104004,0.169922,-14.6875,3.1875,2,-0.27631,-1.13036,2.83267
2181,-86,-23,-8,-82,-85,-35,-39,-80,1.20605,-0.104004,0.169922,-14.6875,3.1875,2,-0.27631,-1.13036,2.83267
2193,68,-17,-99,-72,-96,-5,13,62,1.20605,-0.104004,0.169922,-14.6875,3.1875,2,-0.27631,-1.13036,2.83267
2193,1,-7,-8,-59,25,-13,24,51,1.20605,-0.104004,0.169922,-14.6875,3.1875,2,-0.27631,-1.13036,2.83267
2202,64,-21,-55,50,83,20,12,83,1.13184,-0.0151367,0.270996,11.1875,4.8125,3.125,-0.270444,-1.13434,2.83114
2202,-22,8,33,55,-17,8,5,-62,1.13184,-0.0151367,0.270996,11.1875,4.8125,3.125,-0.270444,-1.13434,2.83114
2217,-71,-2,68,91,34,-29,-47,-52,1.13184,-0.0151367,0.270996,11.1875,4.8125,3.125,-0.270444,-1.13434,2.83114
2217,31,7,44,1,-23,25,14,5,1.13184,-0.0151367,0.270996,11.1875,4.8125,3.125,-0.270444,-1.13434,2.83114
2223,19,27,-25,-69,-12,-20,-24,-38,1.10107,0.133301,0.31543,-14.125,9.875,-18.8125,-0.24784,-1.13818,2.80317
2223,-38,-12,-20,62,50,13,-64,4,1.10107,0.133301,0.31543,-14.125,9.875,-18.8125,-0.24784,-1.13818,2.80317
2240,56,0,12,21,9,28,70,66,1.10107,0.133301,0.31543,-14.125,9.875,-18.8125,-0.24784,-1.13818,2.80317
2240,-2,8,-52,-73,-89,-29,-10,18,1.10107,0.133301,0.31543,-14.125,9.875,-18.8125,-0.24784,-1.13818,2.80317
2241,-48,-37,0,-65,-98,-21,31,-10,1.20996,0.0297852,0.356445,-64.3125,14.4375,-25.75,-0.242002,-1.1403,2.77333
2241,-93,42,14,68,86,-3,-32,-64,1.20996,0.0297852,0.356445,-64.3125,14.4375,-25.75,-0.242002,-1.1403,2.77333
2253,-6,-37,23,116,91,-4,7,-7,1.20996,0.0297852,0.356445,-64.3125,14.4375,-25.75,-0.242002,-1.1403,2.77333
2253,113,-21,-43,-71,-9,22,12,81,1.20996,0.0297852,0.356445,-64.3125,14.4375,-25.75,-0.242002,-1.1403,2.77333
2262,-82,-59,4,-56,-74,3,-5,-78,1.0625,-0.208984,0.406738,-63.3125,13.9375,-9.8125,-0.2601,-1.13737,2.76774
2262,127,3,-44,2,11,-28,3,119,1.0625,-0.208984,0.406738,-63.3125,13.9375,-9.8125,-0.2601,-1.13737,2.76774
2276,-63,-11,15,56,51,33,25,-19,1.0625,-0.208984,0.406738,-63.3125,13.9375,-9.8125,-0.2601,-1.13737,2.76774
2276,-1,-22,29,94,27,5,-55,-95,1.0625,-0.208984,0.406738,-63.3125,13.9375,-9.8125,-0.2601,-1.13737,2.76774
2283,101,19,31,62,11,7,30,75,1.16162,-0.286133,0.392578,-19.6875,16.6875,-3.1875,-0.271275,-1.13392,2.77055
2283,22,-24,-12,-125,-109,-22,-11,1,1.16162,-0.286133,0.392578,-19.6875,16.6875,-3.1875,-0.271275,-1.13392,2.77055
2300,12,35,-12,-28,-51,-19,-41,-57,1.16162,-0.286133,0.392578,-19.6875,16.6875,-3.1875,-0.271275,-1.13392,2.77055
2300,-47,-11,-62,2,5,8,59,29,1.16162,-0.286133,0.392578,-19.6875,16.6875,-3.1875,-0.271275,-1.13392,2.77055
2301,-28,8,56,40,26,-2,15,-38,1.15137,-0.12793,0.357422,3.625,24,-4.5,-0.263803,-1.1298,2.7634
2301,71,-11,-26,-112,-39,-24,-72,1,1.15137,-0.12793,0.357422,3.625,24,-4.5,-0.263803,-1.1298,2.7634
2322,95,36,-8,-24,34,39,50,127,1.15137,-0.12793,0.357422,3.625,24,-4.5,-0.263803,-1.1298,2.7634
2322,-75,-17,-53,64,-13,-33,-16,4,1.15137,-0.12793,0.357422,3.625,24,-4.5,-0.263803,-1.1298,2.7634
2324,10,45,78,96,34,54,24,52,0.987793,-0.0786133,0.353027,-23.9375,29.5,-13.4375,-0.256341,-1.12376,2.74599
2324,-94,-17,17,101,118,-3,46,-49,0.987793,-0.0786133,0.353027,-23.9375,29.5,-13.4375,-0.256341,-1.12376,2.74599
2336,31,2,-6,3,-43,8,9,-24,0.987793,-0.0786133,0.353027,-23.9375,29.5,-13.4375,-0.256341,-1.12376,2.74599
2336,5,8,41,-66,-28,1,1,26,0.987793,-0.0786133,0.353027,-23.9375,29.5,-13.4375,-0.256341,-1.12376,2.74599
2343,27,29,-22,-2,-19,-13,-38,-16,0.959961,-0.195312,0.389648,-56.6875,34.9375,-21,-0.260222,-1.11479,2.72725
2343,-66,1,36,-9,-49,0,20,24,0.959961,-0.195312,0.389648,-56.6875,34.9375,-21,-0.260222,-1.11479,2.72725
2360,21,-25,-31,-128,-114,-69,-40,-28,0.959961,-0.195312,0.389648,-56.6875,34.9375,-21,-0.260222,-1.11479,2.72725
2360,28,-6,12,0,17,2,-5,23,0.959961,-0.195312,0.389648,-56.6875,34.9375,-21,-0.260222,-1.11479,2.72725
2361,1,-7,15,68,100,47,-8,18,0.935547,-0.264648,0.437012,-65.125,40.75,-26.75,-0.265221,-1.10281,2.70577
2361,-48,5,23,98,30,53,45,10,0.935547,-0.264648,0.437012,-65.125,40.75,-26.75,-0.265221,-1.10281,2.70577
2390,76,23,19,75,43,7,-8,14,0.935547,-0.264648,0.437012,-65.125,40.75,-26.75,-0.265221,-1.10281,2.70577
2390,93,10,-60,-128,-96,-26,22,79,0.935547,-0.264648,0.437012,-65.125,40.75,-26.75,-0.265221,-1.10281,2.70577
2391,-72,-43,-65,-6,-86,-24,-45,-49,0.804199,-0.305176,0.510254,-57.75,44.1875,-23.0625,-0.270619,-1.08682,2.68718
2391,78,21,25,114,97,23,18,43,0.804199,-0.305176,0.510254,-57.75,44.1875,-23.0625,-0.270619,-1.08682,2.68718
2395,-32,8,42,46,13,9,-6,2,0.804199,-0.305176,0.510254,-57.75,44.1875,-23.0625,-0.270619,-1.08682,2.68718
2395,7,14,4,-26,-10,20,41,-28,0.804199,-0.305176,0.510254,-57.75,44.1875,-23.0625,-0.270619,-1.08682,2.68718
2404,16,-9,14,-6,-6,-20,-52,29,0.75293,-0.231445,0.50293,-52.8125,44.1875,-29.125,-0.267697,-1.07164,2.66177
2404,-2,-31,-55,-67,-70,5,8,-28,0.75293,-0.231445,0.50293,-52.8125,44.1875,-29.125,-0.267697,-1.07164,2.66177
2419,-34,-2,-31,-111,-30,-21,-13,-47,0.75293,-0.231445,0.50293,-52.8125,44.1875,-29.125,-0.267697,-1.07164,2.66177
2419,36,14,27,74,64,6,-6,16,0.75293,-0.231445,0.50293,-52.8125,44.1875,-29.125,-0.267697,-1.07164,2.66177
2421,-22,-17,-37,37,55,24,18,-17,0.644531,-0.186035,0.523926,-49.4375,47.5625,-29.1875,-0.261731,-1.05423,2.63461
2421,-70,-12,55,-104,-112,-38,-30,-88,0.644531,-0.186035,0.523926,-49.4375,47.5625,-29.1875,-0.261731,-1.05423,2.63461
2442,-41,-20,-55,-128,-67,-20,-8,15,0.644531,-0.186035,0.523926,-49.4375,47.5625,-29.1875,-0.261731,-1.05423,2.63461
2442,-38,0,-12,111,85,-40,-9,-55,0.644531,-0.186035,0.523926,-49.4375,47.5625,-29.1875,-0.261731,-1.05423,2.63461
2444,-3,14,9,28,37,86,79,1,0.681641,-0.156738,0.555176,-51.5,52.3125,-28.25,-0.255458,-1.03544,2.60654
2444,26,11,46,115,98,14,-25,35,0.681641,-0.156738,0.555176,-51.5,52.3125,-28.25,-0.255458,-1.03544,2.60654
2456,12,1,31,-15,-64,-11,-13,-12,0.681641,-0.156738,0.555176,-51.5,52.3125,-28.25,-0.255458,-1.03544,2.60654
2456,-37,2,-34,-96,-50,-8,10,-6,0.681641,-0.156738,0.555176,-51.5,52.3125,-28.25,-0.255458,-1.03544,2.60654
2464,11,19,-7,98,84,-35,-1,7,0.703125,-0.213379,0.550293,-56,53.1875,-28.3125,-0.254687,-1.01687,2.58191
2464,66,26,58,80,69,44,30,57,0.703125,-0.213379,0.550293,-56,53.1875,-28.3125,-0.254687,-1.01687,2.58191
2480,-26,-15,-41,-70,-81,-14,-7,-43,0.703125,-0.213379,0.550293,-56,53.1875,-28.3125,-0.254687,-1.01687,2.58191
2480,-96,-8,5,-34,-23,-4,-39,-80,0.703125,-0.213379,0.550293,-56,53.1875,-28.3125,-0.254687,-1.01687,2.58191
2481,37,-30,16,-32,-32,-17,-4,21,0.716797,-0.11084,0.508301,-41.875,55.625,-28.4375,-0.245663,-0.999165,2.55411
2481,11,-46,-106,-128,-110,-22,-2,7,0.716797,-0.11084,0.508301,-41.875,55.625,-28.4375,-0.245663,-0.999165,2.55411
2503,127,-8,-9,2,-16,-35,49,118,0.716797,-0.11084,0.508301,-41.875,55.625,-28.4375,-0.245663,-0.999165,2.55411
2503,-48,-45,-36,-99,-29,25,-42,-74,0.716797,-0.11084,0.508301,-41.875,55.625,-28.4375,-0.245663,-0.999165,2.55411
2504,10,37,49,72,86,23,7,27,0.64502,-0.0888672,0.549805,-26.5,60.875,-25.4375,-0.232334,-0.978264,2.52779
2504,-22,16,65,107,111,34,11,-18,0.64502,-0.0888672,0.549805,-26.5,60.875,-25.4375,-0.232334,-0.978264,2.52779
2516,19,35,21,-57,-53,-1,-8,26,0.64502,-0.0888672,0.549805,-26.5,60.875,-25.4375,-0.232334,-0.978264,2.52779
2516,-6,-11,-92,-78,-80,-65,12,-10,0.64502,-0.0888672,0.549805,-26.5,60.875,-25.4375,-0.232334,-0.978264,2.52779
2525,5,5,-30,29,2,50,-20,1,0.641113,-0.078125,0.570312,-35.75,60.5625,-32.75,-0.219624,-0.95783,2.49806
2525,50,7,25,43,69,48,48,45,0.641113,-0.078125,0.570312,-35.75,60.5625,-32.75,-0.219624,-0.95783,2.49806
2539,-45,-15,-8,42,-37,-45,3,-17,0.641113,-0.078125,0.570312,-35.75,60.5625,-32.75,-0.219624,-0.95783,2.49806
2539,-8,36,32,85,100,46,-3,35,0.641113,-0.078125,0.570312,-35.75,60.5625,-32.75,-0.219624,-0.95783,2.49806
2541,35,6,19,-55,-69,-37,-33,16,0.640137,-0.13916,0.596191,-38.125,64.6875,-35.4375,-0.209894,-0.935501,2.46944
2541,10,-9,-86,-128,-115,-57,-28,7,0.640137,-0.13916,0.596191,-38.125,64.6875,-35.4375,-0.209894,-0.935501,2.46944
2563,2,-14,28,113,90,47,15,-11,0.640137,-0.13916,0.596191,-38.125,64.6875,-35.4375,-0.209894,-0.935501,2.46944
2563,58,2,-1,121,78,30,-32,21,0.640137,-0.13916,0.596191,-38.125,64.6875,-35.4375,-0.209894,-0.935501,2.46944
2564,-40,-3,5,-106,-61,-69,6,-24,0.612793,-0.18457,0.617188,-33.375,70.875,-33.0625,-0.202107,-0.91034,2.44407
2564,-8,-9,-16,28,-19,4,2,-6,0.612793,-0.18457,0.617188,-33.375,70.875,-33.0625,-0.202107,-0.91034,2.44407
2576,1,-32,-55,-128,-118,-10,-7,20,0.612793,-0.18457,0.617188,-33.375,70.875,-33.0625,-0.202107,-0.91034,2.44407
2576,21,4,27,25,31,-30,36,-38,0.612793,-0.18457,0.617188,-33.375,70.875,-33.0625,-0.202107,-0.91034,2.44407
2585,-23,-17,44,127,127,100,-30,9,0.524902,-0.21875,0.643066,-26.0625,75.5625,-29.75,-0.195436,-0.882084,2.42222
2585,0,39,59,-79,-43,-25,-35,-20,0.524902,-0.21875,0.643066,-26.0625,75.5625,-29.75,-0.195436,-0.882084,2.42222
2600,-28,17,-17,-68,-52,-23,-19,16,0.524902,-0.21875,0.643066,-26.0625,75.5625,-29.75,-0.195436,-0.882084,2.42222
2600,20,7,34,87,21,1,20,12,0.524902,-0.21875,0.643066,-26.0625,75.5625,-29.75,-0.195436,-0.882084,2.42222
2601,75,-23,9,16,9,7,35,33,0.51123,-0.134277,0.640625,-24.6875,76.875,-25.3125,-0.188145,-0.853593,2.40121
2601,-106,-68,-114,-23,-42,-31,-14,-55,0.51123,-0.134277,0.640625,-24.6875,76.875,-25.3125,-0.188145,-0.853593,2.40121
2622,2,-24,4,-40,-18,10,-10,-17,0.51123,-0.134277,0.640625,-24.6875,76.875,-25.3125,-0.188145,-0.853593,2.40121
2622,46,38,53,-48,48,-15,2,30,0.51123,-0.134277,0.640625,-24.6875,76.875,-25.3125,-0.188145,-0.853593,2.40121
2624,-13,-13,-9,39,-64,-52,22,-1,0.478516,-0.0888672,0.651367,-26.3125,79.75,-29.25,-0.179456,-0.824145,2.37779
2624,10,39,33,-9,94,46,-21,-6,0.478516,-0.0888672,0.651367,-26.3125,79.75,-29.25,-0.179456,-0.824145,2.37779
2636,-1,22,37,127,127,92,22,11,0.478516,-0.0888672,0.651367,-26.3125,79.75,-29.25,-0.179456,-0.824145,2.37779
2636,-39,10,17,4,-46,-6,-40,-14,0.478516,-0.0888672,0.651367,-26.3125,79.75,-29.25,-0.179456,-0.824145,2.37779
2652,8,29,-28,-90,-52,-43,-6,-13,0.516113,-0.143066,0.663086,-27.5625,83.375,-22.0625,-0.176458,-0.793952,2.35986
2652,-14,-18,-63,-111,-116,-67,-34,-42,0.516113,-0.143066,0.663086,-27.5625,83.375,-22.0625,-0.176458,-0.793952,2.35986
2661,-23,-25,-23,58,23,32,18,-17,0.516113,-0.143066,0.663086,-27.5625,83.375,-22.0625,-0.176458,-0.793952,2.35986
2661,28,-10,32,-34,-58,16,-4,3,0.516113,-0.143066,0.663086,-27.5625,83.375,-22.0625,-0.176458,-0.793952,2.35986
2662,27,28,26,50,84,-19,-9,7,0.535156,-0.104004,0.654297,-13.5,88.875,-22.75,-0.167874,-0.762888,2.3412
2662,17,-12,-57,-81,-71,-44,16,37,0.535156,-0.104004,0.654297,-13.5,88.875,-22.75,-0.167874,-0.762888,2.3412
2682,-12,-9,-30,-76,-42,-3,-35,-49,0.535156,-0.104004,0.654297,-13.5,88.875,-22.75,-0.167874,-0.762888,2.3412
2682,12,-3,39,127,117,51,20,12,0.535156,-0.104004,0.654297,-13.5,88.875,-22.75,-0.167874,-0.762888,2.3412
2684,11,33,49,71,24,2,31,2,0.550293,-0.0556641,0.599609,-0.6875,94.25,-13.1875,-0.157614,-0.731423,2.3269
2684,-20,17,73,26,-8,13,5,-10,0.550293,-0.0556641,0.599609,-0.6875,94.25,-13.1875,-0.157614,-0.731423,2.3269
2696,32,10,-50,-20,-11,-46,-13,18,0.550293,-0.0556641,0.599609,-0.6875,94.25,-13.1875,-0.157614,-0.731423,2.3269
2696,-24,-25,16,-128,-127,-27,-9,-31,0.550293,-0.0556641,0.599609,-0.6875,94.25,-13.1875,-0.157614,-0.731423,2.3269
2712,3,-41,-61,-36,14,20,9,2,0.633301,-0.233887,0.586426,10.9375,123.312,-19,-0.143904,-0.690373,2.31061
2712,-16,-27,-35,49,36,4,32,8,0.633301,-0.233887,0.586426,10.9375,123.312,-19,-0.143904,-0.690373,2.31061
2719,3,10,5,-66,-54,-33,-37,-11,0.633301,-0.233887,0.586426,10.9375,123.312,-19,-0.143904,-0.690373,2.31061
2719,3,-14,-61,-54,-36,2,11,13,0.633301,-0.233887,0.586426,10.9375,123.312,-19,-0.143904,-0.690373,2.31061
2721,-4,1,-1,5,2,-4,1,-7,-0.0664062,0.292969,0.51709,13,87.1875,-36.1875,-0.115283,-0.653605,2.2827
2721,57,4,35,104,86,31,44,28,-0.0664062,0.292969,0.51709,13,87.1875,-36.1875,-0.115283,-0.653605,2.2827
2742,7,16,44,12,-20,-14,-13,24,-0.0664062,0.292969,0.51709,13,87.1875,-36.1875,-0.115283,-0.653605,2.2827
2742,-82,-34,-91,-116,-54,-4,-14,-43,-0.0664062,0.292969,0.51709,13,87.1875,-36.1875,-0.115283,-0.653605,2.2827
2744,33,-27,-31,-119,-124,-39,38,20,0.492188,0.00878906,0.778809,-5.25,92.375,-21.4375,-0.106056,-0.621135,2.26721
2744,28,20,89,99,81,89,-19,-16,0.492188,0.00878906,0.778809,-5.25,92.375,-21.4375,-0.106056,-0.621135,2.26721
2756,14,24,64,81,51,-1,33,61,0.492188,0.00878906,0.778809,-5.25,92.375,-21.4375,-0.106056,-0.621135,2.26721
2756,-7,6,-10,-37,-36,-30,-15,-1,0.492188,0.00878906,0.778809,-5.25,92.375,-21.4375,-0.106056,-0.621135,2.26721
2772,-45,-8,-31,7,-11,-23,-9,-27,0.150879,-0.315918,0.855957,-11.4375,91.9375,-21.875,-0.109017,-0.581254,2.25772
2772,58,-23,-91,-128,-128,-67,-13,38,0.150879,-0.315918,0.855957,-11.4375,91.9375,-21.875,-0.109017,-0.581254,2.25772
2780,-86,-46,-20,110,127,73,-1,-107,0.150879,-0.315918,0.855957,-11.4375,91.9375,-21.875,-0.109017,-0.581254,2.25772
2780,52,65,127,127,113,72,34,56,0.150879,-0.315918,0.855957,-11.4375,91.9375,-21.875,-0.109017,-0.581254,2.25772
2786,-20,-8,-49,-94,-64,-3,-15,-6,0.304199,-0.222168,0.880371,7.125,87.25,0.9375,-0.108299,-0.545842,2.256
2786,-19,11,-66,-90,-96,-33,6,0,0.304199,-0.222168,0.880371,7.125,87.25,0.9375,-0.108299,-0.545842,2.256
2802,-4,-3,14,-29,-32,-37,-11,2,0.304199,-0.222168,0.880371,7.125,87.25,0.9375,-0.108299,-0.545842,2.256
2802,9,-16,-60,-9,-11,-16,5,-2,0.304199,-0.222168,0.880371,7.125,87.25,0.9375,-0.108299,-0.545842,2.256
2803,19,9,20,-49,-47,-1,-11,17,0.237793,-0.112793,0.765137,13.875,82.0625,2.25,-0.103097,-0.51305,2.25398
2803,-52,-2,69,127,127,31,-26,-48,0.237793,-0.112793,0.765137,13.875,82.0625,2.25,-0.103097,-0.51305,2.25398
2815,32,13,-14,-49,-40,-10,33,54,0.237793,-0.112793,0.765137,13.875,82.0625,2.25,-0.103097,-0.51305,2.25398
2815,-29,-34,-29,-27,-20,13,23,-53,0.237793,-0.112793,0.765137,13.875,82.0625,2.25,-0.103097,-0.51305,2.25398
2824,-17,13,32,96,77,-11,-54,-28,0.273926,-0.0336914,0.73877,11.5625,78.8125,12.9375,-0.0988576,-0.482725,2.25547
2824,25,8,-1,17,-24,-13,32,47,0.273926,-0.0336914,0.73877,11.5625,78.8125,12.9375,-0.0988576,-0.482725,2.25547
2840,-22,-9,-31,-67,-54,-8,-18,-42,0.273926,-0.0336914,0.73877,11.5625,78.8125,12.9375,-0.0988576,-0.482725,2.25547
2840,28,11,24,68,17,-22,7,9,0.273926,-0.0336914,0.73877,11.5625,78.8125,12.9375,-0.0988576,-0.482725,2.25547
2841,-42,-6,15,39,-37,-1,-2,-28,0.32666,-0.0595703,0.766602,-9.75,79.4375,9.75,-0.102052,-0.453775,2.25584
2841,34,-19,-11,-6,55,48,-15,-28,0.32666,-0.0595703,0.766602,-9.75,79.4375,9.75,-0.102052,-0.453775,2.25584
2861,-4,14,58,125,127,-9,25,-17,0.32666,-0.0595703,0.766602,-9.75,79.4375,9.75,-0.102052,-0.453775,2.25584
2861,9,7,-53,-128,-128,-3,-38,69,0.32666,-0.0595703,0.766602,-9.75,79.4375,9.75,-0.102052,-0.453775,2.25584
2876,-16,-15,20,61,63,10,29,-11,0.342285,-0.157715,0.800781,-17.5625,77.9375,2.6875,-0.109153,-0.425974,2.25454
2876,-60,21,72,127,98,33,-30,-22,0.342285,-0.157715,0.800781,-17.5625,77.9375,2.6875,-0.109153,-0.425974,2.25454
2877,-9,14,3,-71,-51,-38,2,47,0.342285,-0.157715,0.800781,-17.5625,77.9375,2.6875,-0.109153,-0.425974,2.25454
2877,99,19,-1,-68,-2,3,73,50,0.342285,-0.157715,0.800781,-17.5625,77.9375,2.6875,-0.109153,-0.425974,2.25454
2884,-14,-1,71,59,22,25,-63,4,0.296875,-0.155762,0.828613,-6.1875,77.3125,-6,-0.110872,-0.398116,2.24978
2884,70,-33,-51,-81,-120,-45,9,-24,0.296875,-0.155762,0.828613,-6.1875,77.3125,-6,-0.110872,-0.398116,2.24978
2898,102,10,-72,-1,34,-39,-27,43,0.296875,-0.155762,0.828613,-6.1875,77.3125,-6,-0.110872,-0.398116,2.24978
2898,-124,13,54,89,48,64,-23,-62,0.296875,-0.155762,0.828613,-6.1875,77.3125,-6,-0.110872,-0.398116,2.24978
2907,117,12,-35,-128,-81,-35,52,110,0.193848,-0.0922852,0.857422,-0.6875,73.4375,2.625,-0.110156,-0.369364,2.24765
2907,-111,16,11,-2,4,-17,13,21,0.193848,-0.0922852,0.857422,-0.6875,73.4375,2.625,-0.110156,-0.369364,2.24765
2922,-49,-47,-4,-121,-128,-64,-54,-95,0.193848,-0.0922852,0.857422,-0.6875,73.4375,2.625,-0.110156,-0.369364,2.24765
2922,3,-9,-22,45,71,-57,3,35,0.193848,-0.0922852,0.857422,-0.6875,73.4375,2.625,-0.110156,-0.369364,2.24765
2924,31,0,-24,67,92,93,5,0,0.140137,-0.0488281,0.861328,-6.9375,73.3125,6.8125,-0.11122,-0.339846,2.24679
2924,42,28,32,-1,4,-37,26,44,0.140137,-0.0488281,0.861328,-6.9375,73.3125,6.8125,-0.11122,-0.339846,2.24679
2936,-5,-7,12,-44,-24,9,61,39,0.140137,-0.0488281,0.861328,-6.9375,73.3125,6.8125,-0.11122,-0.339846,2.24679
2936,0,-2,25,-17,-51,-42,-13,-35,0.140137,-0.0488281,0.861328,-6.9375,73.3125,6.8125,-0.11122,-0.339846,2.24679
2952,-106,-20,-41,23,48,-23,-52,-99,0.105957,-0.144531,0.887695,-6.1875,80.4375,8.6875,-0.114304,-0.307404,2.24703
2952,95,53,68,-25,-22,11,0,60,0.105957,-0.144531,0.887695,-6.1875,80.4375,8.6875,-0.114304,-0.307404,2.24703
2959,45,-7,25,127,84,93,9,0,0.105957,-0.144531,0.887695,-6.1875,80.4375,8.6875,-0.114304,-0.307404,2.24703
2959,-55,-53,-83,39,-4,-18,-18,-49,0.105957,-0.144531,0.887695,-6.1875,80.4375,8.6875,-0.114304,-0.307404,2.24703
2961,57,33,-10,-81,-36,-25,25,68,0.156738,-0.179199,0.944336,2,79.9375,4.4375,-0.114921,-0.276722,2.24581
2961,-7,-28,29,-111,-101,4,-6,-80,0.156738,-0.179199,0.944336,2,79.9375,4.4375,-0.114921,-0.276722,2.24581
2982,-42,12,-75,78,49,7,-3,26,0.156738,-0.179199,0.944336,2,79.9375,4.4375,-0.114921,-0.276722,2.24581
2982,39,2,51,-4,-29,5,16,22,0.156738,-0.179199,0.944336,2,79.9375,4.4375,-0.114921,-0.276722,2.24581
2983,-70,-21,13,-1,22,-2,-33,-92,0.184082,-0.0639648,0.936523,7.25,73.4375,8.625,-0.1114,-0.249674,2.24563
2983,47,31,34,38,37,-18,-25,32,0.184082,-0.0639648,0.936523,7.25,73.4375,8.625,-0.1114,-0.249674,2.24563
3004,98,-16,-38,-118,-116,-10,48,77,0.184082,-0.0639648,0.936523,7.25,73.4375,8.625,-0.1114,-0.249674,2.24563
3004,-35,-15,13,69,127,-47,-71,-46,0.184082,-0.0639648,0.936523,7.25,73.4375,8.625,-0.1114,-0.249674,2.24563
3020,89,26,41,50,61,91,52,32,0.171387,-0.0507812,0.92041,-4.0625,68.5625,8.6875,-0.111562,-0.224558,2.2457
3020,-13,-6,0,-97,-34,-59,12,-19,0.171387,-0.0507812,0.92041,-4.0625,68.5625,8.6875,-0.111562,-0.224558,2.2457
3020,33,-9,45,85,57,-2,-20,-37,0.171387,-0.0507812,0.92041,-4.0625,68.5625,8.6875,-0.111562,-0.224558,2.2457
3020,-20,-3,-12,-2,-55,46,31,43,0.171387,-0.0507812,0.92041,-4.0625,68.5625,8.6875,-0.111562,-0.224558,2.2457
3026,37,-21,-12,-128,-124,-89,-51,59,0.17041,-0.0683594,0.935059,-10.4375,62.3125,6.25,-0.114094,-0.202182,2.24512
3026,-16,-24,6,-2,4,-3,-19,-62,0.17041,-0.0683594,0.935059,-10.4375,62.3125,6.25,-0.114094,-0.202182,2.24512
3049,91,1,-17,73,97,31,3,16,0.17041,-0.0683594,0.935059,-10.4375,62.3125,6.25,-0.114094,-0.202182,2.24512
3049,46,1,-51,-4,-30,8,-13,7,0.17041,-0.0683594,0.935059,-10.4375,62.3125,6.25,-0.114094,-0.202182,2.24512
3050,77,-4,47,-65,-36,13,59,20,0.106934,-0.0610352,0.987305,-0.4375,55.375,3,-0.112872,-0.181053,2.24378
3050,-118,-25,-90,2,-16,-23,-78,-63,0.106934,-0.0610352,0.987305,-0.4375,55.375,3,-0.112872,-0.181053,2.24378
3055,50,46,84,32,12,19,-2,87,0.106934,-0.0610352,0.987305,-0.4375,55.375,3,-0.112872,-0.181053,2.24378
3055,-60,0,79,-23,-20,-19,-14,-76,0.106934,-0.0610352,0.987305,-0.4375,55.375,3,-0.112872,-0.181053,2.24378
3064,-128,16,9,61,-7,-10,19,-30,0.0610352,-0.0239258,0.907715,-1.4375,43.5,6.625,-0.111565,-0.163549,2.24409
3064,119,-8,6,9,10,-15,19,62,0.0610352,-0.0239258,0.907715,-1.4375,43.5,6.625,-0.111565,-0.163549,2.24409
3079,-21,-12,37,-40,22,70,-39,-63,0.0610352,-0.0239258,0.907715,-1.4375,43.5,6.625,-0.111565,-0.163549,2.24409
3079,-34,5,46,46,60,-11,-30,4,0.0610352,-0.0239258,0.907715,-1.4375,43.5,6.625,-0.111565,-0.163549,2.24409
3086,96,39,-4,-128,-97,-25,39,-27,0.17627,-0.128418,0.943359,7.6875,41.8125,16.0625,-0.110015,-0.149245,2.24827
3086,-55,10,-61,88,40,-36,-41,25,0.17627,-0.128418,0.943359,7.6875,41.8125,16.0625,-0.110015,-0.149245,2.24827
3102,-8,-7,17,29,-13,69,57,17,0.17627,-0.128418,0.943359,7.6875,41.8125,16.0625,-0.110015,-0.149245,2.24827
3102,115,2,13,-31,10,7,70,72,0.17627,-0.128418,0.943359,7.6875,41.8125,16.0625,-0.110015,-0.149245,2.24827
3103,-105,-14,6,-75,-44,-3,-106,-119,0.0380859,-0.0297852,0.904785,11.125,37.625,14.625,-0.105092,-0.133565,2.25162
3103,45,-37,-47,12,-3,28,59,18,0.0380859,-0.0297852,0.904785,11.125,37.625,14.625,-0.105092,-0.133565,2.25162
3124,-14,9,26,69,72,-21,-48,12,0.0380859,-0.0297852,0.904785,11.125,37.625,14.625,-0.105092,-0.133565,2.25162
3124,64,13,-120,-122,-128,-44,-21,10,0.0380859,-0.0297852,0.904785,11.125,37.625,14.625,-0.105092,-0.133565,2.25162
3126,23,-5,-29,116,127,5,-9,-19,0.159668,-0.0332031,0.899902,5.375,27.75,11.6875,-0.10207,-0.124697,2.25456
3126,55,9,29,-104,-78,36,81,35,0.159668,-0.0332031,0.899902,5.375,27.75,11.6875,-0.10207,-0.124697,2.25456
3154,-45,17,-36,42,52,-23,-72,4,0.159668,-0.0332031,0.899902,5.375,27.75,11.6875,-0.10207,-0.124697,2.25456
3154,-10,-11,127,124,119,72,85,13,0.159668,-0.0332031,0.899902,5.375,27.75,11.6875,-0.10207,-0.124697,2.25456
3164,-10,26,20,-53,-67,-83,-64,29,0.081543,-0.0678711,0.866211,10.8125,26.5,12,-0.0982989,-0.114533,2.25778
3164,14,-12,-12,0,-28,52,89,27,0.081543,-0.0678711,0.866211,10.8125,26.5,12,-0.0982989,-0.114533,2.25778
3165,-103,-34,-20,-100,-64,-48,-41,-78,0.081543,-0.0678711,0.866211,10.8125,26.5,12,-0.0982989,-0.114533,2.25778
3165,55,-37,-113,-16,-4,-40,-111,-30,0.081543,-0.0678711,0.866211,10.8125,26.5,12,-0.0982989,-0.114533,2.25778
3169,63,2,26,126,111,35,46,36,0.216797,-0.156738,0.900391,4.375,20.5,5.875,-0.0985506,-0.110074,2.25933
3169,66,46,43,28,16,-23,-72,55,0.216797,-0.156738,0.900391,4.375,20.5,5.875,-0.0985506,-0.110074,2.25933
3176,70,-11,5,-128,-111,-10,48,34,0.216797,-0.156738,0.900391,4.375,20.5,5.875,-0.0985506,-0.110074,2.25933
3176,-43,-6,-5,-22,-54,-4,-70,-57,0.216797,-0.156738,0.900391,4.375,20.5,5.875,-0.0985506,-0.110074,2.25933
3185,-42,-32,-38,-34,-63,-18,33,43,0.178711,-0.0771484,0.916016,7.5625,19.1875,7.375,-0.0957924,-0.105109,2.26127
3185,10,-6,-75,-67,-38,-8,-23,-26,0.178711,-0.0771484,0.916016,7.5625,19.1875,7.375,-0.0957924,-0.105109,2.26127
3199,-52,-18,-7,87,114,-21,32,-35,0.178711,-0.0771484,0.916016,7.5625,19.1875,7.375,-0.0957924,-0.105109,2.26127
3199,75,53,112,66,28,33,19,36,0.178711,-0.0771484,0.916016,7.5625,19.1875,7.375,-0.0957924,-0.105109,2.26127
3207,-46,-40,-71,-5,-14,0,10,77,0.0405273,-0.0859375,0.910645,0.4375,20.75,0.875,-0.0955492,-0.096652,2.26079
3207,-105,-8,22,13,7,-19,-37,-74,0.0405273,-0.0859375,0.910645,0.4375,20.75,0.875,-0.0955492,-0.096652,2.26079
3221,-5,16,-48,-128,-90,-32,4,-1,0.0405273,-0.0859375,0.910645,0.4375,20.75,0.875,-0.0955492,-0.096652,2.26079
3221,95,11,21,81,28,-4,44,58,0.0405273,-0.0859375,0.910645,0.4375,20.75,0.875,-0.0955492,-0.096652,2.26079
3224,6,-3,14,75,79,64,16,-14,0.0839844,-0.0976562,0.92334,0.5,22.25,-3.75,-0.0953772,-0.0891398,2.25882
3224,-26,10,121,127,84,2,-32,-24,0.0839844,-0.0976562,0.92334,0.5,22.25,-3.75,-0.0953772,-0.0891398,2.25882
3244,-55,-4,-6,37,-5,-6,4,-19,0.0839844,-0.0976562,0.92334,0.5,22.25,-3.75,-0.0953772,-0.0891398,2.25882
3244,-27,27,-71,-128,-90,-38,-6,-48,0.0839844,-0.0976562,0.92334,0.5,22.25,-3.75,-0.0953772,-0.0891398,2.25882
3246,68,15,-77,-104,-123,-8,15,57,0.0185547,-0.117188,0.918457,-1.4375,16.0625,-2.125,-0.096472,-0.0821743,2.25764
3246,-60,-36,73,100,108,22,-11,-20,0.0185547,-0.117188,0.918457,-1.4375,16.0625,-2.125,-0.096472,-0.0821743,2.25764
3260,19,8,-23,-69,-44,-17,-51,-17,0.0185547,-0.117188,0.918457,-1.4375,16.0625,-2.125,-0.096472,-0.0821743,2.25764
3260,11,-3,51,1,21,-31,40,30,0.0185547,-0.117188,0.918457,-1.4375,16.0625,-2.125,-0.096472,-0.0821743,2.25764
3265,18,-7,-36,57,16,34,42,57,-0.000488281,-0.118164,0.922363,-0.875,14.6875,1.75,-0.0974092,-0.0753055,2.2578
3265,-73,-36,-128,-128,-57,-35,-9,-96,-0.000488281,-0.118164,0.922363,-0.875,14.6875,1.75,-0.0974092,-0.0753055,2.2578
3282,69,20,49,102,21,-41,-3,25,-0.000488281,-0.118164,0.922363,-0.875,14.6875,1.75,-0.0974092,-0.0753055,2.2578
3282,-8,1,18,-29,-25,57,-31,-1,-0.000488281,-0.118164,0.922363,-0.875,14.6875,1.75,-0.0974092,-0.0753055,2.2578
3283,25,1,2,-11,63,26,78,-33,-0.0117188,-0.0947266,0.908203,-3.125,13.625,4.4375,-0.0987106,-0.0685487,2.2589
3283,57,-13,-4,20,-11,-9,-43,68,-0.0117188,-0.0947266,0.908203,-3.125,13.625,4.4375,-0.0987106,-0.0685487,2.2589
3312,29,7,-1,-100,-48,-40,43,34,-0.0117188,-0.0947266,0.908203,-3.125,13.625,4.4375,-0.0987106,-0.0685487,2.2589
3312,-90,-32,-115,77,85,34,18,-46,-0.0117188,-0.0947266,0.908203,-3.125,13.625,4.4375,-0.0987106,-0.0685487,2.2589
3313,48,17,127,98,62,-10,-28,-42,0.015625,-0.0927734,0.922852,-2.25,13.9375,3.125,-0.0996256,-0.0625915,2.25949
3313,-18,26,34,110,65,44,41,41,0.015625,-0.0927734,0.922852,-2.25,13.9375,3.125,-0.0996256,-0.0625915,2.25949
3327,-47,-30,-51,-46,-67,7,-9,-32,0.015625,-0.0927734,0.922852,-2.25,13.9375,3.125,-0.0996256,-0.0625915,2.25949
3327,19,-23,-39,-52,-79,-41,-25,37,0.015625,-0.0927734,0.922852,-2.25,13.9375,3.125,-0.0996256,-0.0625915,2.25949
3329,-3,29,92,-16,-16,-21,-14,-18,-0.0209961,-0.0405273,0.900391,-0.4375,13.8125,-2.1875,-0.0985036,-0.0560619,2.25824
3329,-54,-5,10,43,62,39,15,-73,-0.0209961,-0.0405273,0.900391,-0.4375,13.8125,-2.1875,-0.0985036,-0.0560619,2.25824
3342,36,-7,-42,-16,2,-39,-52,9,-0.0209961,-0.0405273,0.900391,-0.4375,13.8125,-2.1875,-0.0985036,-0.0560619,2.25824
3342,-22,-10,21,-36,-30,-33,20,12,-0.0209961,-0.0405273,0.900391,-0.4375,13.8125,-2.1875,-0.0985036,-0.0560619,2.25824
3344,53,-29,-86,-122,-48,38,18,4,-0.0126953,-0.0751953,0.915039,-2.0625,8.1875,1.875,-0.0987965,-0.0517166,2.25865
3344,-65,-18,-37,-27,9,-28,-6,19,-0.0126953,-0.0751953,0.915039,-2.0625,8.1875,1.875,-0.0987965,-0.0517166,2.25865
3364,-16,31,67,91,44,-10,-34,-26,-0.0126953,-0.0751953,0.915039,-2.0625,8.1875,1.875,-0.0987965,-0.0517166,2.25865
3364,3,-24,-41,4,4,22,-28,-11,-0.0126953,-0.0751953,0.915039,-2.0625,8.1875,1.875,-0.0987965,-0.0517166,2.25865
3366,-10,12,-33,-101,-70,15,49,-8,0.0302734,-0.0874023,0.924805,-3.0625,8.1875,3.125,-0.0997175,-0.0483206,2.25938
3366,127,7,-34,-26,6,1,40,82,0.0302734,-0.0874023,0.924805,-3.0625,8.1875,3.125,-0.0997175,-0.0483206,2.25938
3379,-85,4,55,122,83,48,24,-83,0.0302734,-0.0874023,0.924805,-3.0625,8.1875,3.125,-0.0997175,-0.0483206,2.25938
3379,67,20,94,52,27,1,33,66,0.0302734,-0.0874023,0.924805,-3.0625,8.1875,3.125,-0.0997175,-0.0483206,2.25938
3381,-55,-18,-44,-50,-60,-93,-76,-55,-0.00537109,-0.106445,0.928711,-3.3125,6.3125,1.375,-0.101178,-0.0449398,2.25972
3381,50,-6,2,67,16,44,26,14,-0.00537109,-0.106445,0.928711,-3.3125,6.3125,1.375,-0.101178,-0.0449398,2.25972
3402,75,-7,-42,-14,-61,-7,29,56,-0.00537109,-0.106445,0.928711,-3.3125,6.3125,1.375,-0.101178,-0.0449398,2.25972
3402,-7,-14,30,-9,24,-7,-10,-17,-0.00537109,-0.106445,0.928711,-3.3125,6.3125,1.375,-0.101178,-0.0449398,2.25972
3404,-44,0,-28,-51,-10,-4,-13,-21,-0.0131836,-0.059082,0.896973,0.6875,3.375,-3.4375,-0.100105,-0.0426284,2.25825
3404,-74,-2,-39,-61,-44,-30,-11,-41,-0.0131836,-0.059082,0.896973,0.6875,3.375,-3.4375,-0.100105,-0.0426284,2.25825
3431,73,25,102,65,57,36,15,53,-0.0131836,-0.059082,0.896973,0.6875,3.375,-3.4375,-0.100105,-0.0426284,2.25825
3431,4,16,-16,3,24,16,30,-13,-0.0131836,-0.059082,0.896973,0.6875,3.375,-3.4375,-0.100105,-0.0426284,2.25825
3433,-15,-18,-41,14,-5,-14,-51,-3,-0.0131836,-0.0810547,0.925293,-3.4375,-3.25,1.75,-0.10105,-0.0423498,2.25912
3433,-4,0,-26,-70,-45,-47,7,24,-0.0131836,-0.0810547,0.925293,-3.4375,-3.25,1.75,-0.10105,-0.0423498,2.25912
3439,10,-23,-35,-40,-19,54,16,-4,-0.0131836,-0.0810547,0.925293,-3.4375,-3.25,1.75,-0.10105,-0.0423498,2.25912
3439,19,-5,-23,-2,24,14,-28,21,-0.0131836,-0.0810547,0.925293,-3.4375,-3.25,1.75,-0.10105,-0.0423498,2.25912
3446,-31,6,-45,42,51,-24,-1,-12,0.059082,-0.09375,0.913574,-6.1875,-6.875,-0.75,-0.103196,-0.0452584,2.25911
3446,70,6,-4,59,-24,-11,-61,38,0.059082,-0.09375,0.913574,-6.1875,-6.875,-0.75,-0.103196,-0.0452584,2.25911
3462,-58,-8,-2,-38,-28,22,84,-43,0.059082,-0.09375,0.913574,-6.1875,-6.875,-0.75,-0.103196,-0.0452584,2.25911
3462,22,29,1,-38,3,16,9,7,0.059082,-0.09375,0.913574,-6.1875,-6.875,-0.75,-0.103196,-0.0452584,2.25911
3463,34,12,41,112,58,25,19,-7,0.065918,-0.13916,0.955566,-2.3125,-7.4375,3.1875,-0.10494,-0.0481533,2.26054
3463,-96,-28,-26,-124,-69,-30,-30,-45,0.065918,-0.13916,0.955566,-2.3125,-7.4375,3.1875,-0.10494,-0.0481533,2.26054
3493,35,-18,-110,108,61,33,4,24,0.065918,-0.13916,0.955566,-2.3125,-7.4375,3.1875,-0.10494,-0.0481533,2.26054
3493,19,25,-26,17,3,-7,8,13,0.065918,-0.13916,0.955566,-2.3125,-7.4375,3.1875,-0.10494,-0.0481533,2.26054
3495,66,-8,44,-22,-57,-14,-28,4,-0.0146484,-0.0810547,0.908691,-4.875,-11.25,-2.1875,-0.106194,-0.0506651,2.26011
3495,-46,38,67,-27,13,4,-4,-73,-0.0146484,-0.0810547,0.908691,-4.875,-11.25,-2.1875,-0.106194,-0.0506651,2.26011
3498,36,-24,-82,-127,-110,-69,-29,15,0.0556641,-0.0961914,0.916016,-6.375,-13.5,0.9375,-0.108413,-0.055439,2.26096
3498,-28,-36,-4,-16,21,15,-50,-39,0.0556641,-0.0961914,0.916016,-6.375,-13.5,0.9375,-0.108413,-0.055439,2.26096
3506,76,16,47,114,113,18,19,80,0.0556641,-0.0961914,0.916016,-6.375,-13.5,0.9375,-0.108413,-0.055439,2.26096
3506,-65,-18,23,37,39,30,-52,-17,0.0556641,-0.0961914,0.916016,-6.375,-13.5,0.9375,-0.108413,-0.055439,2.26096
3521,-20,8,-2,-101,-57,1,82,-13,0.0288086,-0.0800781,0.924316,-6.25,-13,-1.0625,-0.1101,-0.0593323,2.26111
3521,76,20,33,60,74,43,18,92,0.0288086,-0.0800781,0.924316,-6.25,-13,-1.0625,-0.1101,-0.0593323,2.26111
3522,-90,-40,-43,-39,-66,-48,-31,-88,0.0288086,-0.0800781,0.924316,-6.25,-13,-1.0625,-0.1101,-0.0593323,2.26111
3522,103,26,45,9,-19,3,39,39,0.0288086,-0.0800781,0.924316,-6.25,-13,-1.0625,-0.1101,-0.0593323,2.26111
3544,-24,-21,-6,47,44,-10,-39,-37,0.0517578,-0.124512,0.928711,-6.375,-11.875,-5.1875,-0.112672,-0.0633435,2.25974
3544,17,-5,45,5,-19,-6,0,12,0.0517578,-0.124512,0.928711,-6.375,-11.875,-5.1875,-0.112672,-0.0633435,2.25974
3544,-23,-9,53,-58,-17,5,7,6,0.0517578,-0.124512,0.928711,-6.375,-11.875,-5.1875,-0.112672,-0.0633435,2.25974
3544,-5,-11,-100,20,-22,-2,16,5,0.0517578,-0.124512,0.928711,-6.375,-11.875,-5.1875,-0.112672,-0.0633435,2.25974
3568,46,22,65,-2,26,3,-32,6,-0.00585938,-0.0991211,0.922852,-2.8125,-11.25,-4.25,-0.113408,-0.0657985,2.25868
3568,-39,-14,1,-12,-4,1,22,-44,-0.00585938,-0.0991211,0.922852,-2.8125,-11.25,-4.25,-0.113408,-0.0657985,2.25868
3569,-21,-6,9,-16,7,-26,-46,21,-0.00585938,-0.0991211,0.922852,-2.8125,-11.25,-4.25,-0.113408,-0.0657985,2.25868
3569,32,-3,-15,12,-62,-9,13,-16,-0.00585938,-0.0991211,0.922852,-2.8125,-11.25,-4.25,-0.113408,-0.0657985,2.25868
3581,64,13,68,-21,-44,-22,8,93,0.0239258,-0.10498,0.927734,-7,-11.25,-1.9375,-0.115776,-0.0688226,2.25856
3581,-78,-21,-56,-2,49,29,-52,-28,0.0239258,-0.10498,0.927734,-7,-11.25,-1.9375,-0.115776,-0.0688226,2.25856
3582,-62,23,46,77,36,33,68,5,0.0239258,-0.10498,0.927734,-7,-11.25,-1.9375,-0.115776,-0.0688226,2.25856
3582,50,-7,-71,-108,-36,-13,1,25,0.0239258,-0.10498,0.927734,-7,-11.25,-1.9375,-0.115776,-0.0688226,2.25856
3603,37,18,109,73,96,55,9,48,0.0400391,-0.109863,0.952148,-4.9375,-10.0625,-3.125,-0.117403,-0.071675,2.25783
3603,-92,9,-6,2,-45,-90,-39,-99,0.0400391,-0.109863,0.952148,-4.9375,-10.0625,-3.125,-0.117403,-0.071675,2.25783
3604,115,-1,-55,83,35,22,15,45,0.0400391,-0.109863,0.952148,-4.9375,-10.0625,-3.125,-0.117403,-0.071675,2.25783
3604,29,10,56,-30,-57,12,42,5,0.0400391,-0.109863,0.952148,-4.9375,-10.0625,-3.125,-0.117403,-0.071675,2.25783
3627,-101,-49,-56,-45,41,-19,-45,-85,0.0229492,-0.0913086,0.9375,-5.6875,-9.4375,-4.5,-0.118727,-0.0740212,2.25661
3627,17,2,55,50,-21,-6,17,-8,0.0229492,-0.0913086,0.9375,-5.6875,-9.4375,-4.5,-0.118727,-0.0740212,2.25661
3628,49,15,4,-101,-39,16,-1,36,0.0229492,-0.0913086,0.9375,-5.6875,-9.4375,-4.5,-0.118727,-0.0740212,2.25661
3628,-61,7,1,55,37,-23,-48,-47,0.0229492,-0.0913086,0.9375,-5.6875,-9.4375,-4.5,-0.118727,-0.0740212,2.25661
3642,30,8,-3,-60,-61,-15,0,7,0.034668,-0.0981445,0.948242,-8.8125,-10.375,-0.375,-0.121426,-0.076636,2.25687
3642,-3,-7,49,49,20,21,-2,14,0.034668,-0.0981445,0.948242,-8.8125,-10.375,-0.375,-0.121426,-0.076636,2.25687
3642,13,-14,-46,-5,-20,-50,15,6,0.034668,-0.0981445,0.948242,-8.8125,-10.375,-0.375,-0.121426,-0.076636,2.25687
3642,54,-12,52,37,56,68,50,61,0.034668,-0.0981445,0.948242,-8.8125,-10.375,-0.375,-0.121426,-0.076636,2.25687
3664,-103,11,6,-57,-59,-24,-57,-104,0.0239258,-0.102051,0.938965,-7.125,-8.625,-0.9375,-0.123551,-0.0784509,2.25694
3664,-12,5,-3,23,12,0,84,7,0.0239258,-0.102051,0.938965,-7.125,-8.625,-0.9375,-0.123551,-0.0784509,2.25694
3665,60,4,-18,-79,-31,4,18,27,0.0239258,-0.102051,0.938965,-7.125,-8.625,-0.9375,-0.123551,-0.0784509,2.25694
3665,6,7,2,13,39,32,55,22,0.0239258,-0.102051,0.938965,-7.125,-8.625,-0.9375,-0.123551,-0.0784509,2.25694
3689,-22,-13,-73,16,4,-31,-51,55,0.0341797,-0.104492,0.931152,-3.8125,-6.75,-4.375,-0.124472,-0.0799369,2.25577
3689,-23,-9,-48,-8,-18,-9,3,-21,0.0341797,-0.104492,0.931152,-3.8125,-6.75,-4.375,-0.124472,-0.0799369,2.25577
3689,13,4,22,92,41,10,-22,-11,0.0341797,-0.104492,0.931152,-3.8125,-6.75,-4.375,-0.124472,-0.0799369,2.25577
3689,66,-3,19,-79,-47,-8,60,42,0.0341797,-0.104492,0.931152,-3.8125,-6.75,-4.375,-0.124472,-0.0799369,2.25577
3710,9,29,68,57,50,32,22,-21,0.03125,-0.118652,0.922363,-6.5,-8,-3.625,-0.126716,-0.0817642,2.25476
3710,44,-13,-115,-53,-73,-33,-38,58,0.03125,-0.118652,0.922363,-6.5,-8,-3.625,-0.126716,-0.0817642,2.25476
3711,-92,-25,-30,-55,25,-7,-15,-64,0.03125,-0.118652,0.922363,-6.5,-8,-3.625,-0.126716,-0.0817642,2.25476
3711,10,2,17,18,42,12,-16,-4,0.03125,-0.118652,0.922363,-6.5,-8,-3.625,-0.126716,-0.0817642,2.25476
3724,64,7,43,21,-16,-7,-19,23,0.0458984,-0.133789,0.933594,-6.75,-7.375,-0.5625,-0.129282,-0.0835103,2.25495
3724,-3,-4,47,-21,-9,23,-12,-24,0.0458984,-0.133789,0.933594,-6.75,-7.375,-0.5625,-0.129282,-0.0835103,2.25495
3724,-4,14,9,78,42,-3,-6,29,0.0458984,-0.133789,0.933594,-6.75,-7.375,-0.5625,-0.129282,-0.0835103,2.25495
3724,-54,-14,-17,-15,-22,-12,-4,-32,0.0458984,-0.133789,0.933594,-6.75,-7.375,-0.5625,-0.129282,-0.0835103,2.25495
3738,61,4,-34,-128,-115,-32,15,21,0.0429688,-0.134277,0.944824,-3.875,-7.5625,-2.25,-0.130896,-0.085264,2.25458
3738,-87,-4,62,70,86,20,-3,-70,0.0429688,-0.134277,0.944824,-3.875,-7.5625,-2.25,-0.130896,-0.085264,2.25458
3746,105,15,-4,16,3,35,32,38,0.0429688,-0.134277,0.944824,-3.875,-7.5625,-2.25,-0.130896,-0.085264,2.25458
3746,-97,-23,-56,15,-22,-55,-92,-92,0.0429688,-0.134277,0.944824,-3.875,-7.5625,-2.25,-0.130896,-0.085264,2.25458
3761,43,-11,-20,5,48,11,23,32,0.0322266,-0.0874023,0.920898,-3.75,-6.4375,-2.5,-0.131279,-0.086448,2.25397
3761,60,29,13,27,19,6,19,18,0.0322266,-0.0874023,0.920898,-3.75,-6.4375,-2.5,-0.131279,-0.086448,2.25397
3762,-19,-6,92,1,-10,-7,-37,-26,0.0322266,-0.0874023,0.920898,-3.75,-6.4375,-2.5,-0.131279,-0.086448,2.25397
3762,18,-4,-71,-32,-33,-8,-14,17,0.0322266,-0.0874023,0.920898,-3.75,-6.4375,-2.5,-0.131279,-0.086448,2.25397
3784,-62,-18,-11,95,72,26,42,-20,0.0678711,-0.132324,0.931641,-7.9375,-7.3125,0.5625,-0.134245,-0.0884971,2.25439
3784,34,-10,-36,-128,-128,-46,0,14,0.0678711,-0.132324,0.931641,-7.9375,-7.3125,0.5625,-0.134245,-0.0884971,2.25439
3784,-13,7,45,40,85,43,-43,25,0.0678711,-0.132324,0.931641,-7.9375,-7.3125,0.5625,-0.134245,-0.0884971,2.25439
3784,-42,-10,0,-90,-42,3,28,-61,0.0678711,-0.132324,0.931641,-7.9375,-7.3125,0.5625,-0.134245,-0.0884971,2.25439
3798,-11,-16,-82,56,33,-1,-6,56,0.065918,-0.117676,0.937988,-3.625,-6,-0.5,-0.135334,-0.0902258,2.25453
3798,45,28,64,92,66,-30,-32,-30,0.065918,-0.117676,0.937988,-3.625,-6,-0.5,-0.135334,-0.0902258,2.25453
3806,20,-19,-51,-102,-124,33,47,13,0.065918,-0.117676,0.937988,-3.625,-6,-0.5,-0.135334,-0.0902258,2.25453
3806,6,12,39,85,127,-4,-31,2,0.065918,-0.117676,0.937988,-3.625,-6,-0.5,-0.135334,-0.0902258,2.25453
3821,-15,1,17,34,-36,17,16,-11,0.0688477,-0.114746,0.924805,-4.125,-4.375,-4.5625,-0.136343,-0.0915004,2.25324
3821,-18,4,-14,-56,-17,-26,-8,16,0.0688477,-0.114746,0.924805,-4.125,-4.375,-4.5625,-0.136343,-0.0915004,2.25324
3822,2,-4,-50,-37,-52,-11,28,-12,0.0688477,-0.114746,0.924805,-4.125,-4.375,-4.5625,-0.136343,-0.0915004,2.25324
3822,106,18,111,42,33,13,-38,46,0.0688477,-0.114746,0.924805,-4.125,-4.375,-4.5625,-0.136343,-0.0915004,2.25324
3843,-123,4,81,-10,11,-18,-50,-102,0.0498047,-0.125,0.942383,-4.9375,-6.1875,-3.25,-0.137753,-0.0927965,2.25234
3843,41,1,-35,-57,-70,-12,-9,-8,0.0498047,-0.125,0.942383,-4.9375,-6.1875,-3.25,-0.137753,-0.0927965,2.25234
3844,0,-34,-95,-1,53,-32,10,-2,0.0498047,-0.125,0.942383,-4.9375,-6.1875,-3.25,-0.137753,-0.0927965,2.25234
3844,-19,10,22,-37,-73,38,-30,17,0.0498047,-0.125,0.942383,-4.9375,-6.1875,-3.25,-0.137753,-0.0927965,2.25234
3858,15,-2,-6,-18,-26,8,-9,-12,0.0683594,-0.137695,0.950684,-5.0625,-4.25,-0.1875,-0.139646,-0.0936841,2.25255
3858,-3,-21,6,41,82,54,-2,14,0.0683594,-0.137695,0.950684,-5.0625,-4.25,-0.1875,-0.139646,-0.0936841,2.25255
3891,-55,33,121,82,23,-24,1,-4,0.0683594,-0.137695,0.950684,-5.0625,-4.25,-0.1875,-0.139646,-0.0936841,2.25255
3891,34,4,-73,-17,-16,-54,-48,20,0.0683594,-0.137695,0.950684,-5.0625,-4.25,-0.1875,-0.139646,-0.0936841,2.25255
3892,21,1,-20,-58,-12,58,63,29,0.0878906,-0.126953,0.944824,-2.4375,-3.3125,0.4375,-0.140343,-0.0948107,2.25281
3892,-33,-2,6,-66,-81,-6,-4,-28,0.0878906,-0.126953,0.944824,-2.4375,-3.3125,0.4375,-0.140343,-0.0948107,2.25281
3893,16,4,-73,31,23,-19,-3,4,0.0878906,-0.126953,0.944824,-2.4375,-3.3125,0.4375,-0.140343,-0.0948107,2.25281
3893,8,-4,3,-32,-14,-11,-8,-1,0.0878906,-0.126953,0.944824,-2.4375,-3.3125,0.4375,-0.140343,-0.0948107,2.25281
3903,44,8,-17,-48,-41,-21,-20,18,0.0864258,-0.0693359,0.919434,-0.375,-1.5625,-2.0625,-0.139004,-0.0953164,2.2521
3903,-14,-11,-29,50,57,24,55,25,0.0864258,-0.0693359,0.919434,-0.375,-1.5625,-2.0625,-0.139004,-0.0953164,2.2521
3904,-64,18,54,17,-1,-19,-77,-62,0.0864258,-0.0693359,0.919434,-0.375,-1.5625,-2.0625,-0.139004,-0.0953164,2.2521
3904,20,23,59,-17,4,13,73,21,0.0864258,-0.0693359,0.919434,-0.375,-1.5625,-2.0625,-0.139004,-0.0953164,2.2521
3918,0,-37,-53,56,70,14,-11,-15,0.102539,-0.126953,0.947266,-1.5625,-1.375,-1.5,-0.139277,-0.0961693,2.25167
3918,65,4,38,25,-23,-8,4,30,0.102539,-0.126953,0.947266,-1.5625,-1.375,-1.5,-0.139277,-0.0961693,2.25167
3926,-57,-24,-69,84,53,7,-8,-16,0.102539,-0.126953,0.947266,-1.5625,-1.375,-1.5,-0.139277,-0.0961693,2.25167
3926,21,7,-4,33,-11,9,31,11,0.102539,-0.126953,0.947266,-1.5625,-1.375,-1.5,-0.139277,-0.0961693,2.25167
3941,13,10,54,-73,-49,-38,-9,14,0.11377,-0.132812,0.928711,-1.4375,-2.8125,-3.4375,-0.139812,-0.0978742,2.25066
3941,50,1,-46,-48,6,-39,-25,-6,0.11377,-0.132812,0.928711,-1.4375,-2.8125,-3.4375,-0.139812,-0.0978742,2.25066
3942,-24,5,48,42,48,69,39,13,0.11377,-0.132812,0.928711,-1.4375,-2.8125,-3.4375,-0.139812,-0.0978742,2.25066
3942,-51,-15,-6,33,14,-6,-51,-18,0.11377,-0.132812,0.928711,-1.4375,-2.8125,-3.4375,-0.139812,-0.0978742,2.25066
3964,8,13,-26,-36,-22,-10,-4,4,0.0756836,-0.123047,0.912109,-0.9375,-3.375,-2.875,-0.139894,-0.0988123,2.24973
3964,-27,-24,-34,-55,-67,-17,-14,-10,0.0756836,-0.123047,0.912109,-0.9375,-3.375,-2.875,-0.139894,-0.0988123,2.24973
3964,48,-1,95,-113,-104,-15,11,23,0.0756836,-0.123047,0.912109,-0.9375,-3.375,-2.875,-0.139894,-0.0988123,2.24973
3964,-98,-28,-58,58,78,21,3,-23,0.0756836,-0.123047,0.912109,-0.9375,-3.375,-2.875,-0.139894,-0.0988123,2.24973
3986,36,27,9,-49,-96,-15,-13,7,0.0537109,-0.161133,0.925781,0.4375,-4.0625,-3.75,-0.140294,-0.0993738,2.24872
3986,22,9,62,74,77,21,6,41,0.0537109,-0.161133,0.925781,0.4375,-4.0625,-3.75,-0.140294,-0.0993738,2.24872
3988,-43,-2,-45,40,27,-4,3,-68,0.0537109,-0.161133,0.925781,0.4375,-4.0625,-3.75,-0.140294,-0.0993738,2.24872
3988,20,-15,0,-29,-75,-8,10,29,0.0537109,-0.161133,0.925781,0.4375,-4.0625,-3.75,-0.140294,-0.0993738,2.24872
4010,0,-7,-21,-42,-16,-25,-22,-13,0.0893555,-0.151855,0.894043,-2.5625,-6,-2.9375,-0.141726,-0.101475,2.24807
4010,10,28,-9,-11,4,1,2,-6,0.0893555,-0.151855,0.894043,-2.5625,-6,-2.9375,-0.141726,-0.101475,2.24807
4010,4,-24,-19,-17,-6,8,37,25,0.0893555,-0.151855,0.894043,-2.5625,-6,-2.9375,-0.141726,-0.101475,2.24807
4010,-23,-1,22,-2,-25,20,20,-28,0.0893555,-0.151855,0.894043,-2.5625,-6,-2.9375,-0.141726,-0.101475,2.24807
4024,-10,9,12,118,112,3,-11,14,0.0727539,-0.158691,0.901855,-4.875,-7.4375,-1.6875,-0.144125,-0.103591,2.248
4024,-2,-2,-8,-64,-53,26,63,-13,0.0727539,-0.158691,0.901855,-4.875,-7.4375,-1.6875,-0.144125,-0.103591,2.248
4024,7,4,28,37,27,-29,-54,6,0.0727539,-0.158691,0.901855,-4.875,-7.4375,-1.6875,-0.144125,-0.103591,2.248
4024,27,-26,-20,-70,-82,-21,25,6,0.0727539,-0.158691,0.901855,-4.875,-7.4375,-1.6875,-0.144125,-0.103591,2.248
4039,-30,45,53,-23,11,11,14,-43,0.0917969,-0.14502,0.887207,-8.4375,-8.9375,-4.375,-0.147204,-0.106804,2.24697
4039,-40,-26,-20,127,119,11,-43,2,0.0917969,-0.14502,0.887207,-8.4375,-8.9375,-4.375,-0.147204,-0.106804,2.24697
4047,19,26,21,-34,-58,-9,7,-6,0.0917969,-0.14502,0.887207,-8.4375,-8.9375,-4.375,-0.147204,-0.106804,2.24697
4047,19,-7,42,-81,-61,-19,-10,9,0.0917969,-0.14502,0.887207,-8.4375,-8.9375,-4.375,-0.147204,-0.106804,2.24697
4062,23,-13,-63,50,61,17,3,16,0.0893555,-0.134766,0.894043,-5.8125,-9.125,-6.5,-0.149031,-0.110044,2.24513
4062,-4,3,59,-25,-23,-2,11,-25,0.0893555,-0.134766,0.894043,-5.8125,-9.125,-6.5,-0.149031,-0.110044,2.24513
4062,-6,-14,-47,-43,-38,-12,-36,-11,0.0893555,-0.134766,0.894043,-5.8125,-9.125,-6.5,-0.149031,-0.110044,2.24513
4062,9,13,10,101,93,0,9,-19,0.0893555,-0.134766,0.894043,-5.8125,-9.125,-6.5,-0.149031,-0.110044,2.24513
4084,31,5,23,-14,-9,8,20,14,0.0981445,-0.161133,0.908203,-10.4375,-10.875,-5.0625,-0.15304,-0.113866,2.24397
4084,-25,12,43,-88,-77,-16,-15,2,0.0981445,-0.161133,0.908203,-10.4375,-10.875,-5.0625,-0.15304,-0.113866,2.24397
4084,30,-64,-122,-106,-93,-16,3,-3,0.0981445,-0.161133,0.908203,-10.4375,-10.875,-5.0625,-0.15304,-0.113866,2.24397
4084,-1,35,100,105,114,-12,-11,-1,0.0981445,-0.161133,0.908203,-10.4375,-10.875,-5.0625,-0.15304,-0.113866,2.24397
4099,-25,16,42,113,94,47,5,4,0.0991211,-0.14502,0.919434,-6.9375,-9.25,-5.8125,-0.15532,-0.117024,2.24255
4099,34,6,-1,-29,-11,-7,6,31,0.0991211,-0.14502,0.919434,-6.9375,-9.25,-5.8125,-0.15532,-0.117024,2.24255
4106,51,-2,-31,-106,-109,-23,15,43,0.0991211,-0.14502,0.919434,-6.9375,-9.25,-5.8125,-0.15532,-0.117024,2.24255
4106,-56,-49,-66,-27,2,-17,-39,-50,0.0991211,-0.14502,0.919434,-6.9375,-9.25,-5.8125,-0.15532,-0.117024,2.24255
4121,16,-22,-12,58,27,-6,-11,18,0.101074,-0.101562,0.924805,-6.8125,-8.8125,-6.875,-0.156343,-0.120197,2.24037
4121,7,4,9,127,104,18,14,32,0.101074,-0.101562,0.924805,-6.8125,-8.8125,-6.875,-0.156343,-0.120197,2.24037
4122,23,36,39,-7,-1,14,-5,16,0.101074,-0.101562,0.924805,-6.8125,-8.8125,-6.875,-0.156343,-0.120197,2.24037
4122,39,-18,-66,-53,-36,3,25,1,0.101074,-0.101562,0.924805,-6.8125,-8.8125,-6.875,-0.156343,-0.120197,2.24037
4160,-22,-6,49,-43,-44,-13,-16,-12,0.104492,-0.154297,0.92334,-11.0625,-9.9375,-6.9375,-0.160078,-0.12371,2.23858
4160,-46,-20,-43,-32,-28,-10,-8,-22,0.104492,-0.154297,0.92334,-11.0625,-9.9375,-6.9375,-0.160078,-0.12371,2.23858
4160,-10,3,5,24,37,6,13,-13,0.104492,-0.154297,0.92334,-11.0625,-9.9375,-6.9375,-0.160078,-0.12371,2.23858
4160,66,21,-20,-12,-1,5,-26,58,0.104492,-0.154297,0.92334,-11.0625,-9.9375,-6.9375,-0.160078,-0.12371,2.23858
4162,-42,3,26,-106,-83,-37,-35,-46,0.0883789,-0.170898,0.897461,-10.3125,-7.875,-6.75,-0.164071,-0.126138,2.23684
4162,-34,-23,-109,-26,-6,-18,-20,8,0.0883789,-0.170898,0.897461,-10.3125,-7.875,-6.75,-0.164071,-0.126138,2.23684
4166,-29,-5,32,28,42,12,-6,-35,0.0883789,-0.170898,0.897461,-10.3125,-7.875,-6.75,-0.164071,-0.126138,2.23684
4166,21,29,73,127,127,60,50,1,0.0883789,-0.170898,0.897461,-10.3125,-7.875,-6.75,-0.164071,-0.126138,2.23684
4181,10,23,7,39,-18,-1,37,46,0.0976562,-0.161133,0.916992,-7.9375,-6.625,-13.75,-0.166346,-0.128568,2.23241
4181,14,-14,7,-46,-35,-13,-17,-19,0.0976562,-0.161133,0.916992,-7.9375,-6.625,-13.75,-0.166346,-0.128568,2.23241
4182,60,14,-73,-68,-13,-24,-6,33,0.0976562,-0.161133,0.916992,-7.9375,-6.625,-13.75,-0.166346,-0.128568,2.23241
4182,-58,-8,1,-76,-82,5,-20,-40,0.0976562,-0.161133,0.916992,-7.9375,-6.625,-13.75,-0.166346,-0.128568,2.23241
4203,41,-1,-112,-37,-14,-15,-2,26,0.138184,-0.122559,0.919922,-8.5,-9.9375,-19.25,-0.167765,-0.133525,2.22632
4203,14,-10,-32,92,80,32,17,-2,0.138184,-0.122559,0.919922,-8.5,-9.9375,-19.25,-0.167765,-0.133525,2.22632
4204,-30,38,123,30,0,-1,-12,-1,0.138184,-0.122559,0.919922,-8.5,-9.9375,-19.25,-0.167765,-0.133525,2.22632
4204,106,1,27,-45,-45,-2,30,44,0.138184,-0.122559,0.919922,-8.5,-9.9375,-19.25,-0.167765,-0.133525,2.22632
4227,-63,-25,-76,-42,-31,-9,-23,-23,0.153809,-0.138184,0.941406,-10.5,-11.75,-13.6875,-0.170276,-0.138823,2.22208
4227,-19,18,19,-67,-78,-27,-15,-13,0.153809,-0.138184,0.941406,-10.5,-11.75,-13.6875,-0.170276,-0.138823,2.22208
4227,22,-8,-6,55,70,34,15,17,0.153809,-0.138184,0.941406,-10.5,-11.75,-13.6875,-0.170276,-0.138823,2.22208
4227,-26,-3,-6,18,-8,-3,-8,-19,0.153809,-0.138184,0.941406,-10.5,-11.75,-13.6875,-0.170276,-0.138823,2.22208
4250,51,9,71,-29,-20,2,39,17,0.128906,-0.164551,0.941406,-6.1875,-12.125,-8.4375,-0.172145,-0.143301,2.21994
4250,-70,-7,13,-6,-21,-5,-3,-43,0.128906,-0.164551,0.941406,-6.1875,-12.125,-8.4375,-0.172145,-0.143301,2.21994
4250,-44,-16,-12,-14,-19,-22,-47,-13,0.128906,-0.164551,0.941406,-6.1875,-12.125,-8.4375,-0.172145,-0.143301,2.21994
4250,6,20,22,-24,-25,-12,2,4,0.128906,-0.164551,0.941406,-6.1875,-12.125,-8.4375,-0.172145,-0.143301,2.21994
4272,51,7,49,10,38,16,7,14,0.0874023,-0.141602,0.945801,6.25,-10.4375,-7.1875,-0.169113,-0.145975,2.21798
4272,39,-10,51,60,81,37,29,21,0.0874023,-0.141602,0.945801,6.25,-10.4375,-7.1875,-0.169113,-0.145975,2.21798
4273,-47,-10,-17,72,34,-13,-22,-42,0.0874023,-0.141602,0.945801,6.25,-10.4375,-7.1875,-0.169113,-0.145975,2.21798
4273,-3,16,-83,-69,-67,-28,-9,17,0.0874023,-0.141602,0.945801,6.25,-10.4375,-7.1875,-0.169113,-0.145975,2.21798
4286,-24,-24,4,56,44,8,-6,-24,0.0991211,-0.101562,0.933594,5.875,-9,-5.6875,-0.165548,-0.148349,2.21632
4286,78,29,47,-65,-94,-6,-2,18,0.0991211,-0.101562,0.933594,5.875,-9,-5.6875,-0.165548,-0.148349,2.21632
4286,23,-22,-54,-66,-26,0,20,38,0.0991211,-0.101562,0.933594,5.875,-9,-5.6875,-0.165548,-0.148349,2.21632
4286,-13,-9,61,98,71,-3,-14,-40,0.0991211,-0.101562,0.933594,5.875,-9,-5.6875,-0.165548,-0.148349,2.21632
4301,-39,-8,9,-12,-4,14,2,-10,0.151367,-0.163086,0.950684,-0.6875,-11.875,-2.875,-0.165832,-0.152774,2.21602
4301,11,12,-10,9,-10,-13,-13,1,0.151367,-0.163086,0.950684,-0.6875,-11.875,-2.875,-0.165832,-0.152774,2.21602
4308,10,-15,41,76,61,-3,11,9,0.151367,-0.163086,0.950684,-0.6875,-11.875,-2.875,-0.165832,-0.152774,2.21602
4308,23,9,7,-3,4,3,-21,26,0.151367,-0.163086,0.950684,-0.6875,-11.875,-2.875,-0.165832,-0.152774,2.21602
4324,-7,-14,-25,-53,-62,12,-16,-17,0.178711,-0.175293,0.939453,-4.625,-11.375,1.875,-0.168019,-0.15711,2.21755
4324,-2,-16,-30,-109,-70,-29,5,7,0.178711,-0.175293,0.939453,-4.625,-11.375,1.875,-0.168019,-0.15711,2.21755
4325,-43,7,-3,26,43,14,17,-25,0.178711,-0.175293,0.939453,-4.625,-11.375,1.875,-0.168019,-0.15711,2.21755
4325,48,12,30,11,26,25,80,39,0.178711,-0.175293,0.939453,-4.625,-11.375,1.875,-0.168019,-0.15711,2.21755
4354,-86,-11,-27,15,-38,-30,-49,-10,0.0883789,-0.217285,0.946289,-4.6875,-11.9375,-1.25,-0.171033,-0.159676,2.21787
4354,-8,-4,35,74,64,-3,-23,-15,0.0883789,-0.217285,0.946289,-4.6875,-11.9375,-1.25,-0.171033,-0.159676,2.21787
4355,20,28,86,-19,-35,-3,-13,-6,0.0883789,-0.217285,0.946289,-4.6875,-11.9375,-1.25,-0.171033,-0.159676,2.21787
4355,2,-23,-89,56,68,16,15,34,0.0883789,-0.217285,0.946289,-4.6875,-11.9375,-1.25,-0.171033,-0.159676,2.21787
4361,-19,-26,-54,-69,-23,-6,-3,-40,0.108887,-0.15625,0.919922,-0.375,-11.875,-0.3125,-0.171118,-0.162642,2.21859
4361,11,-2,65,-45,-98,-22,-16,31,0.108887,-0.15625,0.919922,-0.375,-11.875,-0.3125,-0.171118,-0.162642,2.21859
4362,-47,19,45,15,26,-7,-8,-11,0.108887,-0.15625,0.919922,-0.375,-11.875,-0.3125,-0.171118,-0.162642,2.21859
4362,-19,-4,-11,50,11,9,-19,-3,0.108887,-0.15625,0.919922,-0.375,-11.875,-0.3125,-0.171118,-0.162642,2.21859
4384,59,8,-37,-1,-1,1,21,14,0.111816,-0.150879,0.899414,-2.0625,-14.125,5.0625,-0.172188,-0.166276,2.22113
4384,7,37,46,-19,33,23,38,7,0.111816,-0.150879,0.899414,-2.0625,-14.125,5.0625,-0.172188,-0.166276,2.22113
4384,12,-27,-87,-51,-72,-32,-42,-26,0.111816,-0.150879,0.899414,-2.0625,-14.125,5.0625,-0.172188,-0.166276,2.22113
4384,-20,-26,28,-4,4,-5,-5,-10,0.111816,-0.150879,0.899414,-2.0625,-14.125,5.0625,-0.172188,-0.166276,2.22113
4407,-10,11,16,-2,-1,6,8,10,0.123047,-0.197266,0.927246,-4.5,-15.5,7.3125,-0.17513,-0.170138,2.22483
4407,1,-12,-41,3,30,-15,1,-11,0.123047,-0.197266,0.927246,-4.5,-15.5,7.3125,-0.17513,-0.170138,2.22483
4407,35,3,-1,-42,-50,-11,-20,8,0.123047,-0.197266,0.927246,-4.5,-15.5,7.3125,-0.17513,-0.170138,2.22483
4407,-7,3,37,68,67,35,36,-2,0.123047,-0.197266,0.927246,-4.5,-15.5,7.3125,-0.17513,-0.170138,2.22483
4437,-17,-18,9,31,18,-2,-24,-6,0.152832,-0.191406,0.901367,-7.125,-15.1875,4.3125,-0.178727,-0.174871,2.22748
4437,-15,5,-41,-68,-32,0,-6,-1,0.152832,-0.191406,0.901367,-7.125,-15.1875,4.3125,-0.178727,-0.174871,2.22748
4438,14,8,58,91,50,18,16,19,0.152832,-0.191406,0.901367,-7.125,-15.1875,4.3125,-0.178727,-0.174871,2.22748
4438,13,2,54,-48,-41,-25,-16,18,0.152832,-0.191406,0.901367,-7.125,-15.1875,4.3125,-0.178727,-0.174871,2.22748
4444,-58,0,48,-17,-7,-1,12,-38,0.160156,-0.154785,0.878418,-6.5,-13.625,-0.375,-0.180949,-0.179431,2.2282
4444,6,-15,-92,27,28,3,-32,4,0.160156,-0.154785,0.878418,-6.5,-13.625,-0.375,-0.180949,-0.179431,2.2282
4444,-6,-21,-72,-70,-79,-16,8,3,0.160156,-0.154785,0.878418,-6.5,-13.625,-0.375,-0.180949,-0.179431,2.2282
4444,-4,14,51,-83,3,-10,-9,11,0.160156,-0.154785,0.878418,-6.5,-13.625,-0.375,-0.180949,-0.179431,2.2282
4467,25,7,58,127,87,34,54,12,0.146484,-0.137207,0.912109,-5.5,-11.6875,1.625,-0.182369,-0.182845,2.22931
4467,-71,6,18,-31,-76,-27,-31,-21,0.146484,-0.137207,0.912109,-5.5,-11.6875,1.625,-0.182369,-0.182845,2.22931
4468,16,-15,-59,-41,49,2,-9,1,0.146484,-0.137207,0.912109,-5.5,-11.6875,1.625,-0.182369,-0.182845,2.22931
4468,19,9,-32,81,35,-29,-10,1,0.146484,-0.137207,0.912109,-5.5,-11.6875,1.625,-0.182369,-0.182845,2.22931
4482,2,-9,-34,-81,-74,6,-36,7,0.15918,-0.180176,0.942383,-11.0625,-8.6875,3.3125,-0.186588,-0.185117,2.23105
4482,7,-3,-6,11,64,-16,42,6,0.15918,-0.180176,0.942383,-11.0625,-8.6875,3.3125,-0.186588,-0.185117,2.23105
4497,25,-11,-4,21,2,21,-19,-17,0.15918,-0.180176,0.942383,-11.0625,-8.6875,3.3125,-0.186588,-0.185117,2.23105
4497,-6,16,-23,-110,-113,-10,-6,21,0.15918,-0.180176,0.942383,-11.0625,-8.6875,3.3125,-0.186588,-0.185117,2.23105
4503,-6,-3,29,122,100,17,-29,-14,0.169922,-0.200684,0.936523,-9.8125,-5.8125,3.5625,-0.190805,-0.186548,2.23287
4503,-17,12,27,37,27,37,20,-44,0.169922,-0.200684,0.936523,-9.8125,-5.8125,3.5625,-0.190805,-0.186548,2.23287
4512,-36,18,43,-32,-28,-70,-51,-7,0.169922,-0.200684,0.936523,-9.8125,-5.8125,3.5625,-0.190805,-0.186548,2.23287
4512,24,-4,-43,-22,-18,9,18,-18,0.169922,-0.200684,0.936523,-9.8125,-5.8125,3.5625,-0.190805,-0.186548,2.23287
4527,43,-3,-13,-93,-63,-19,22,17,0.169434,-0.161133,0.939453,1.4375,-4.0625,2.1875,-0.189967,-0.187517,2.23372
4527,-57,-47,-99,-67,-38,-12,-57,-14,0.169434,-0.161133,0.939453,1.4375,-4.0625,2.1875,-0.189967,-0.187517,2.23372
4527,34,21,45,-33,6,17,52,11,0.169434,-0.161133,0.939453,1.4375,-4.0625,2.1875,-0.189967,-0.187517,2.23372
4527,-41,-6,74,71,53,4,-25,-26,0.169434,-0.161133,0.939453,1.4375,-4.0625,2.1875,-0.189967,-0.187517,2.23372
4541,36,-15,-75,26,7,-4,15,23,0.196777,-0.141113,0.940918,2.9375,-6.625,8.1875,-0.188554,-0.189643,2.23694
4541,-47,31,52,127,89,15,9,-4,0.196777,-0.141113,0.940918,2.9375,-6.625,8.1875,-0.188554,-0.189643,2.23694
4542,-19,-26,-31,-49,-68,-10,17,-7,0.196777,-0.141113,0.940918,2.9375,-6.625,8.1875,-0.188554,-0.189643,2.23694
4542,9,-4,-83,-114,-56,-30,-24,-21,0.196777,-0.141113,0.940918,2.9375,-6.625,8.1875,-0.188554,-0.189643,2.23694
4564,19,4,55,90,67,23,-35,13,0.25293,-0.186523,0.888184,-2.375,-10.375,7.625,-0.190419,-0.194431,2.24034
4564,79,4,38,22,1,4,32,28,0.25293,-0.186523,0.888184,-2.375,-10.375,7.625,-0.190419,-0.194431,2.24034
4565,-100,-11,-33,-52,-53,3,-51,-32,0.25293,-0.186523,0.888184,-2.375,-10.375,7.625,-0.190419,-0.194431,2.24034
4565,-6,-10,-8,39,18,-59,-34,19,0.25293,-0.186523,0.888184,-2.375,-10.375,7.625,-0.190419,-0.194431,2.24034
4586,3,-6,11,-1,5,42,-23,-15,0.253418,-0.187012,0.874512,-2.625,-14.0625,2.5625,-0.192149,-0.200862,2.24236
4586,19,9,7,-83,-38,1,15,29,0.253418,-0.187012,0.874512,-2.625,-14.0625,2.5625,-0.192149,-0.200862,2.24236
4610,43,16,70,127,89,30,37,0,0.253418,-0.187012,0.874512,-2.625,-14.0625,2.5625,-0.192149,-0.200862,2.24236
4610,-14,-10,2,-50,-97,-38,-38,-8,0.253418,-0.187012,0.874512,-2.625,-14.0625,2.5625,-0.192149,-0.200862,2.24236
4612,-13,14,-4,-64,26,-41,-1,-16,0.228027,-0.202148,0.896484,-3.6875,-14.5,-2.25,-0.194019,-0.206783,2.24254
4612,52,1,-32,124,85,75,65,14,0.228027,-0.202148,0.896484,-3.6875,-14.5,-2.25,-0.194019,-0.206783,2.24254
4613,-66,13,85,-56,-52,-42,-23,12,0.228027,-0.202148,0.896484,-3.6875,-14.5,-2.25,-0.194019,-0.206783,2.24254
4613,-16,-11,-71,-56,-47,-1,4,-38,0.228027,-0.202148,0.896484,-3.6875,-14.5,-2.25,-0.194019,-0.206783,2.24254
4624,-31,-30,-24,-8,-34,-26,26,-17,0.16748,-0.257324,0.902344,-6,-15,1.9375,-0.198374,-0.2109,2.24468
4624,39,-9,47,32,48,14,-12,7,0.16748,-0.257324,0.902344,-6,-15,1.9375,-0.198374,-0.2109,2.24468
4624,23,28,40,120,72,27,19,8,0.16748,-0.257324,0.902344,-6,-15,1.9375,-0.198374,-0.2109,2.24468
4624,-4,22,5,38,33,20,20,18,0.16748,-0.257324,0.902344,-6,-15,1.9375,-0.198374,-0.2109,2.24468
4646,44,5,-19,-119,-112,-77,-26,8,0.0996094,-0.223633,0.880859,-8.4375,-12.1875,1.5625,-0.202581,-0.212717,2.2464
4646,-82,-26,-11,-39,-41,56,-17,-38,0.0996094,-0.223633,0.880859,-8.4375,-12.1875,1.5625,-0.202581,-0.212717,2.2464
4653,-22,-15,-13,87,86,24,7,-12,0.0996094,-0.223633,0.880859,-8.4375,-12.1875,1.5625,-0.202581,-0.212717,2.2464
4653,11,12,18,24,-9,23,49,13,0.0996094,-0.223633,0.880859,-8.4375,-12.1875,1.5625,-0.202581,-0.212717,2.2464
4662,28,30,-24,-50,-11,-31,-22,21,0.140137,-0.182129,0.88916,-10.25,-8.1875,4.3125,-0.206578,-0.213806,2.24839
4662,26,-1,19,3,20,-7,2,21,0.140137,-0.182129,0.88916,-10.25,-8.1875,4.3125,-0.206578,-0.213806,2.24839
4662,4,1,-29,33,10,8,1,4,0.140137,-0.182129,0.88916,-10.25,-8.1875,4.3125,-0.206578,-0.213806,2.24839
4662,-2,-1,18,-115,-87,6,11,-19,0.140137,-0.182129,0.88916,-10.25,-8.1875,4.3125,-0.206578,-0.213806,2.24839
4685,21,-18,-10,-1,26,-36,20,15,0.173828,-0.154297,0.897949,-11.75,-3.875,1.125,-0.209918,-0.214402,2.24898
4685,-41,-15,14,85,58,-15,-88,-38,0.173828,-0.154297,0.897949,-11.75,-3.875,1.125,-0.209918,-0.214402,2.24898
4685,27,5,-22,-2,51,47,82,31,0.173828,-0.154297,0.897949,-11.75,-3.875,1.125,-0.209918,-0.214402,2.24898
4685,-4,24,97,26,38,-1,7,-36,0.173828,-0.154297,0.897949,-11.75,-3.875,1.125,-0.209918,-0.214402,2.24898
4724,-15,-13,58,48,-21,14,-59,7,0.208496,-0.146973,0.932129,-9.5625,-0.9375,-0.875,-0.211861,-0.21487,2.24847
4724,41,11,-32,-128,-115,-59,-4,24,0.208496,-0.146973,0.932129,-9.5625,-0.9375,-0.875,-0.211861,-0.21487,2.24847
4724,-39,-22,-36,-33,-42,-17,-20,-50,0.208496,-0.146973,0.932129,-9.5625,-0.9375,-0.875,-0.211861,-0.21487,2.24847
4724,34,13,-23,22,63,21,19,15,0.208496,-0.146973,0.932129,-9.5625,-0.9375,-0.875,-0.211861,-0.21487,2.24847
4726,-64,-17,-40,26,40,3,1,-9,0.230469,-0.117188,0.943359,-8.8125,-0.5,-4.4375,-0.212502,-0.215902,2.2465
4726,-6,9,29,9,-58,-6,5,-33,0.230469,-0.117188,0.943359,-8.8125,-0.5,-4.4375,-0.212502,-0.215902,2.2465
4729,64,11,25,-59,6,-9,-2,30,0.230469,-0.117188,0.943359,-8.8125,-0.5,-4.4375,-0.212502,-0.215902,2.2465
4729,-42,-31,-27,13,17,-19,-27,-11,0.230469,-0.117188,0.943359,-8.8125,-0.5,-4.4375,-0.212502,-0.215902,2.2465
4743,12,12,6,-55,-89,29,36,10,0.199707,-0.157227,0.954102,-5.25,-2.4375,0.625,-0.213128,-0.216335,2.24656
4743,9,5,-1,-29,33,-41,11,-3,0.199707,-0.157227,0.954102,-5.25,-2.4375,0.625,-0.213128,-0.216335,2.24656
4745,-3,-16,-15,35,26,59,-58,-7,0.199707,-0.157227,0.954102,-5.25,-2.4375,0.625,-0.213128,-0.216335,2.24656
4745,-45,-26,-90,-18,-27,-49,2,4,0.199707,-0.157227,0.954102,-5.25,-2.4375,0.625,-0.213128,-0.216335,2.24656
4767,-35,23,33,78,112,36,-30,-22,0.223145,-0.154785,0.930664,-3.125,-3.875,0.1875,-0.213196,-0.217987,2.24674
4767,15,10,30,84,38,21,50,18,0.223145,-0.154785,0.930664,-3.125,-3.875,0.1875,-0.213196,-0.217987,2.24674
4768,3,16,-35,-89,-97,-19,20,3,0.223145,-0.154785,0.930664,-3.125,-3.875,0.1875,-0.213196,-0.217987,2.24674
4768,57,-18,6,-19,14,32,-2,23,0.223145,-0.154785,0.930664,-3.125,-3.875,0.1875,-0.213196,-0.217987,2.24674
4790,-25,-1,-5,-55,-19,-15,-13,2,0.232422,-0.186035,0.914551,-0.375,-6.0625,-0.25,-0.213035,-0.220703,2.24709
4790,24,-13,20,43,-9,9,50,-7,0.232422,-0.186035,0.914551,-0.375,-6.0625,-0.25,-0.213035,-0.220703,2.24709
4791,-84,-21,25,86,41,-44,-81,-27,0.232422,-0.186035,0.914551,-0.375,-6.0625,-0.25,-0.213035,-0.220703,2.24709
4791,22,-6,-55,-63,-90,-3,-2,11,0.232422,-0.186035,0.914551,-0.375,-6.0625,-0.25,-0.213035,-0.220703,2.24709
4820,26,-4,0,15,37,5,43,3,0.214844,-0.195312,0.890625,1.5,-7.5625,0.625,-0.212814,-0.223326,2.2479
4820,17,6,-25,-2,-23,-8,-26,9,0.214844,-0.195312,0.890625,1.5,-7.5625,0.625,-0.212814,-0.223326,2.2479
4820,9,-10,12,-18,17,-8,36,-22,0.214844,-0.195312,0.890625,1.5,-7.5625,0.625,-0.212814,-0.223326,2.2479
4820,-7,12,64,97,43,37,16,15,0.214844,-0.195312,0.890625,1.5,-7.5625,0.625,-0.212814,-0.223326,2.2479
4827,-13,-4,-36,-46,-73,-41,-12,-14,0.204102,-0.22168,0.872559,-5.75,-6.25,1.75,-0.215724,-0.225226,2.24918
4827,-7,-7,-49,-87,-47,9,-23,-12,0.204102,-0.22168,0.872559,-5.75,-6.25,1.75,-0.215724,-0.225226,2.24918
4827,54,17,42,37,-45,-23,-9,28,0.204102,-0.22168,0.872559,-5.75,-6.25,1.75,-0.215724,-0.225226,2.24918
4827,-69,5,12,18,59,18,10,-6,0.204102,-0.22168,0.872559,-5.75,-6.25,1.75,-0.215724,-0.225226,2.24918
4850,43,17,53,127,127,37,0,13,0.22168,-0.233398,0.875,-4.5,-3.3125,-1.0625,-0.218265,-0.226857,2.24924
4850,-62,11,-58,-12,-18,-20,-5,-19,0.22168,-0.233398,0.875,-4.5,-3.3125,-1.0625,-0.218265,-0.226857,2.24924
4850,60,-30,-69,-128,-113,-27,-15,23,0.22168,-0.233398,0.875,-4.5,-3.3125,-1.0625,-0.218265,-0.226857,2.24924
4850,-48,-11,37,109,123,26,0,-28,0.22168,-0.233398,0.875,-4.5,-3.3125,-1.0625,-0.218265,-0.226857,2.24924
4864,25,29,-27,61,17,16,28,20,0.212891,-0.210449,0.894043,-3.1875,-0.0625,-4,-0.219289,-0.22716,2.24797
4864,-34,-13,22,-34,-31,-5,-28,7,0.212891,-0.210449,0.894043,-3.1875,-0.0625,-4,-0.219289,-0.22716,2.24797
4864,40,5,25,-83,-37,9,49,0,0.212891,-0.210449,0.894043,-3.1875,-0.0625,-4,-0.219289,-0.22716,2.24797
4864,-19,-29,-66,-77,-105,-37,-40,2,0.212891,-0.210449,0.894043,-3.1875,-0.0625,-4,-0.219289,-0.22716,2.24797
4887,-5,-26,-13,55,88,-24,-7,-43,0.185059,-0.185547,0.893555,-7.0625,2.1875,-1.75,-0.221193,-0.225926,2.24706
4887,2,9,20,37,-6,22,0,11,0.185059,-0.185547,0.893555,-7.0625,2.1875,-1.75,-0.221193,-0.225926,2.24706
4887,-11,11,25,76,83,67,54,6,0.185059,-0.185547,0.893555,-7.0625,2.1875,-1.75,-0.221193,-0.225926,2.24706
4887,29,-2,-23,-15,-23,-4,15,-4,0.185059,-0.185547,0.893555,-7.0625,2.1875,-1.75,-0.221193,-0.225926,2.24706
4901,46,17,25,-34,-47,-15,3,29,0.223145,-0.182617,0.921875,-6.3125,5.1875,-1,-0.222536,-0.224426,2.24613
4901,-55,-35,-63,-119,-81,-76,-14,-12,0.223145,-0.182617,0.921875,-6.3125,5.1875,-1,-0.222536,-0.224426,2.24613
4925,-7,3,-2,97,107,50,-40,-17,0.223145,-0.182617,0.921875,-6.3125,5.1875,-1,-0.222536,-0.224426,2.24613
4925,16,37,86,39,-32,-7,16,19,0.223145,-0.182617,0.921875,-6.3125,5.1875,-1,-0.222536,-0.224426,2.24613
4926,2,11,5,-44,-7,31,44,1,0.25,-0.165039,0.950195,-0.5,6,-1.75,-0.221359,-0.223236,2.24484
4926,0,-18,-72,19,8,-9,0,-39,0.25,-0.165039,0.950195,-0.5,6,-1.75,-0.221359,-0.223236,2.24484
4927,-14,-17,-54,-97,-80,-27,-13,-4,0.25,-0.165039,0.950195,-0.5,6,-1.75,-0.221359,-0.223236,2.24484
4927,17,21,43,59,59,9,2,10,0.25,-0.165039,0.950195,-0.5,6,-1.75,-0.221359,-0.223236,2.24484
4955,60,15,52,81,36,15,4,10,0.230957,-0.156738,0.934082,-0.5,4.125,-0.6875,-0.220086,-0.222336,2.24406
4955,-69,-24,-2,-30,-64,-9,6,11,0.230957,-0.156738,0.934082,-0.5,4.125,-0.6875,-0.220086,-0.222336,2.24406
4956,-4,2,30,-65,-70,-55,-23,-14,0.230957,-0.156738,0.934082,-0.5,4.125,-0.6875,-0.220086,-0.222336,2.24406
4956,-3,-7,42,27,53,-3,-12,-22,0.230957,-0.156738,0.934082,-0.5,4.125,-0.6875,-0.220086,-0.222336,2.24406
4961,-20,-24,-49,9,-18,5,-4,-7,0.213867,-0.154297,0.921387,0.75,2.625,-0.3125,-0.218494,-0.221509,2.24339
4961,68,13,36,-41,-6,1,-7,41,0.213867,-0.154297,0.921387,0.75,2.625,-0.3125,-0.218494,-0.221509,2.24339
4969,-47,-1,19,25,65,12,16,-26,0.213867,-0.154297,0.921387,0.75,2.625,-0.3125,-0.218494,-0.221509,2.24339
4969,16,14,9,36,20,2,-22,13,0.213867,-0.154297,0.921387,0.75,2.625,-0.3125,-0.218494,-0.221509,2.24339
4992,12,-4,-14,-86,-90,-11,-7,15,0.241211,-0.174316,0.912598,3.75,1.5625,0.625,-0.216499,-0.221638,2.2433
4992,-38,-33,-22,-49,-35,-15,10,-29,0.241211,-0.174316,0.912598,3.75,1.5625,0.625,-0.216499,-0.221638,2.2433
4993,6,-6,-98,-15,1,-31,-14,0,0.241211,-0.174316,0.912598,3.75,1.5625,0.625,-0.216499,-0.221638,2.2433
4993,54,12,36,43,39,-2,-2,0,0.241211,-0.174316,0.912598,3.75,1.5625,0.625,-0.216499,-0.221638,2.2433
5007,-30,16,81,127,127,65,8,-5,0.209473,-0.230469,0.916504,3.125,0.4375,-0.5625,-0.216054,-0.221424,2.24331
5007,20,13,62,23,-3,15,30,13,0.209473,-0.230469,0.916504,3.125,0.4375,-0.5625,-0.216054,-0.221424,2.24331
5008,-20,-18,-52,-110,-104,-39,-23,6,0.209473,-0.230469,0.916504,3.125,0.4375,-0.5625,-0.216054,-0.221424,2.24331
5008,-9,12,-11,-31,19,-8,4,-19,0.209473,-0.230469,0.916504,3.125,0.4375,-0.5625,-0.216054,-0.221424,2.24331
5020,3,-43,-114,-128,-128,-32,10,1,0.173828,-0.242676,0.879395,1.0625,0.3125,-0.3125,-0.216884,-0.220582,2.24352
5020,37,13,68,48,120,17,-54,5,0.173828,-0.242676,0.879395,1.0625,0.3125,-0.3125,-0.216884,-0.220582,2.24352
5029,7,21,64,127,126,36,54,-2,0.173828,-0.242676,0.879395,1.0625,0.3125,-0.3125,-0.216884,-0.220582,2.24352
5029,4,2,-49,-32,-46,-5,-26,1,0.173828,-0.242676,0.879395,1.0625,0.3125,-0.3125,-0.216884,-0.220582,2.24352
5044,-17,-8,-19,-122,-116,-39,6,3,0.174316,-0.231934,0.859863,-0.3125,1.1875,0.3125,-0.218036,-0.219603,2.24369
5044,-7,20,0,2,51,-5,-43,-4,0.174316,-0.231934,0.859863,-0.3125,1.1875,0.3125,-0.218036,-0.219603,2.24369
5045,20,-5,2,-28,-8,17,6,2,0.174316,-0.231934,0.859863,-0.3125,1.1875,0.3125,-0.218036,-0.219603,2.24369
5045,-33,-22,-65,69,63,24,-18,-30,0.174316,-0.231934,0.859863,-0.3125,1.1875,0.3125,-0.218036,-0.219603,2.24369
5067,-6,23,87,66,49,28,8,9,0.199707,-0.221191,0.891113,-1.0625,2.125,0.4375,-0.21891,-0.218667,2.24381
5067,8,2,-41,-42,-83,-32,4,11,0.199707,-0.221191,0.891113,-1.0625,2.125,0.4375,-0.21891,-0.218667,2.24381
5068,10,8,72,66,62,7,-27,-4,0.199707,-0.221191,0.891113,-1.0625,2.125,0.4375,-0.21891,-0.218667,2.24381
5068,-28,-14,-25,-105,-79,-17,14,5,0.199707,-0.221191,0.891113,-1.0625,2.125,0.4375,-0.21891,-0.218667,2.24381
5080,-25,-21,-68,-78,-31,-12,-24,-3,0.174316,-0.215332,0.89502,-7.25,1,-1.3125,-0.22165,-0.217768,2.24334
5080,30,24,78,11,5,12,20,4,0.174316,-0.215332,0.89502,-7.25,1,-1.3125,-0.22165,-0.217768,2.24334
5096,-13,-22,-81,89,63,-16,-42,12,0.174316,-0.215332,0.89502,-7.25,1,-1.3125,-0.22165,-0.217768,2.24334
5096,16,5,26,23,-5,39,38,10,0.174316,-0.215332,0.89502,-7.25,1,-1.3125,-0.22165,-0.217768,2.24334
5105,-38,-22,21,-26,10,-20,-45,-22,0.159668,-0.196289,0.899902,-6.4375,1.5625,-0.375,-0.223614,-0.216186,2.243
5105,-10,-6,-34,-36,-60,-44,-24,-11,0.159668,-0.196289,0.899902,-6.4375,1.5625,-0.375,-0.223614,-0.216186,2.243
5105,10,6,-10,-93,-37,-4,12,19,0.159668,-0.196289,0.899902,-6.4375,1.5625,-0.375,-0.223614,-0.216186,2.243
5105,-7,-9,15,43,48,5,-22,2,0.159668,-0.196289,0.899902,-6.4375,1.5625,-0.375,-0.223614,-0.216186,2.243
5127,9,15,88,112,29,28,39,5,0.188965,-0.163574,0.922363,-3.3125,1.6875,-1,-0.223575,-0.215333,2.24234
5127,30,15,-31,76,76,15,46,34,0.188965,-0.163574,0.922363,-3.3125,1.6875,-1,-0.223575,-0.215333,2.24234
5128,-56,-8,14,-55,-78,-31,-6,-43,0.188965,-0.163574,0.922363,-3.3125,1.6875,-1,-0.223575,-0.215333,2.24234
5128,13,-32,-63,-84,-105,-30,-7,2,0.188965,-0.163574,0.922363,-3.3125,1.6875,-1,-0.223575,-0.215333,2.24234
5140,-1,34,46,-68,53,-9,-10,-1,0.198242,-0.171875,0.930176,1,-0.0625,1.25,-0.222335,-0.215078,2.24268
5140,30,-10,16,-19,26,20,-13,-10,0.198242,-0.171875,0.930176,1,-0.0625,1.25,-0.222335,-0.215078,2.24268
5149,11,8,47,127,50,5,-9,20,0.198242,-0.171875,0.930176,1,-0.0625,1.25,-0.222335,-0.215078,2.24268
5149,-22,29,55,24,20,28,-32,-15,0.198242,-0.171875,0.930176,1,-0.0625,1.25,-0.222335,-0.215078,2.24268
5172,-6,-2,-45,-61,-93,-40,-16,-20,0.18457,-0.154297,0.917969,-0.625,-1.625,3,-0.221483,-0.214922,2.24352
5172,-5,-33,-71,-84,-81,-65,47,-15,0.18457,-0.154297,0.917969,-0.625,-1.625,3,-0.221483,-0.214922,2.24352
5172,16,0,37,62,95,51,18,-2,0.18457,-0.154297,0.917969,-0.625,-1.625,3,-0.221483,-0.214922,2.24352
5172,-26,24,55,64,60,14,32,8,0.18457,-0.154297,0.917969,-0.625,-1.625,3,-0.221483,-0.214922,2.24352
5186,-5,-24,-79,-47,-57,-14,-15,12,0.214355,-0.173828,0.920898,-1.625,-1.5,2.0625,-0.221403,-0.215469,2.24416
5186,-11,12,7,28,32,28,-10,-19,0.214355,-0.173828,0.920898,-1.625,-1.5,2.0625,-0.221403,-0.215469,2.24416
5186,35,5,4,-15,-49,-12,24,7,0.214355,-0.173828,0.920898,-1.625,-1.5,2.0625,-0.221403,-0.215469,2.24416
5186,-4,-5,-99,10,-19,-7,-19,-24,0.214355,-0.173828,0.920898,-1.625,-1.5,2.0625,-0.221403,-0.215469,2.24416
5210,7,3,67,25,22,0,2,21,0.202148,-0.215332,0.929199,3.5625,-0.5625,1.625,-0.220472,-0.215455,2.24474
5210,-29,6,16,-26,20,18,2,12,0.202148,-0.215332,0.929199,3.5625,-0.5625,1.625,-0.220472,-0.215455,2.24474
5211,-7,-23,-57,-2,-7,7,21,-24,0.202148,-0.215332,0.929199,3.5625,-0.5625,1.625,-0.220472,-0.215455,2.24474
5211,17,2,-60,-36,3,-27,-21,6,0.202148,-0.215332,0.929199,3.5625,-0.5625,1.625,-0.220472,-0.215455,2.24474
5224,36,1,-23,-49,-43,-12,55,-8,0.177246,-0.219727,0.902344,1.5,-1.3125,3.5625,-0.22068,-0.214906,2.24627
5224,-55,-10,34,27,3,21,-21,-17,0.177246,-0.219727,0.902344,1.5,-1.3125,3.5625,-0.22068,-0.214906,2.24627
5225,-12,14,21,8,-35,-28,-27,0,0.177246,-0.219727,0.902344,1.5,-1.3125,3.5625,-0.22068,-0.214906,2.24627
5225,8,-11,26,-7,28,10,16,17,0.177246,-0.219727,0.902344,1.5,-1.3125,3.5625,-0.22068,-0.214906,2.24627
5246,11,11,24,21,6,1,16,-28,0.189453,-0.20459,0.886719,0.8125,0.75,4.25,-0.220822,-0.214191,2.24775
5246,-5,-15,-74,70,59,-27,-16,-2,0.189453,-0.20459,0.886719,0.8125,0.75,4.25,-0.220822,-0.214191,2.24775
5254,-7,10,-14,-85,-52,48,-3,-12,0.189453,-0.20459,0.886719,0.8125,0.75,4.25,-0.220822,-0.214191,2.24775
5254,12,-21,-21,-120,-119,-44,6,21,0.189453,-0.20459,0.886719,0.8125,0.75,4.25,-0.220822,-0.214191,2.24775
5269,-37,4,57,112,80,19,-31,-8,0.1875,-0.189941,0.900391,0.1875,0.75,3.25,-0.22058,-0.213361,2.24879
5269,34,-4,-44,-52,-43,-20,17,28,0.1875,-0.189941,0.900391,0.1875,0.75,3.25,-0.22058,-0.213361,2.24879
5270,-49,-26,-31,37,39,10,-2,-18,0.1875,-0.189941,0.900391,0.1875,0.75,3.25,-0.22058,-0.213361,2.24879
5270,67,-2,-4,-1,-2,10,9,22,0.1875,-0.189941,0.900391,0.1875,0.75,3.25,-0.22058,-0.213361,2.24879
5284,-38,7,8,-49,-1,-17,8,-19,0.191406,-0.213867,0.920898,0,0.875,2.5,-0.220972,-0.212606,2.24956
5284,-11,-2,18,35,-28,28,-2,-7,0.191406,-0.213867,0.920898,0,0.875,2.5,-0.220972,-0.212606,2.24956
5284,55,26,38,-50,-64,-32,0,17,0.191406,-0.213867,0.920898,0,0.875,2.5,-0.220972,-0.212606,2.24956
5284,-42,-29,-107,-128,-3,-26,-29,-33,0.191406,-0.213867,0.920898,0,0.875,2.5,-0.220972,-0.212606,2.24956
5307,-34,-8,43,127,103,43,11,-5,0.177734,-0.225586,0.896973,-1.875,0.5625,2.125,-0.222311,-0.211625,2.25046
5307,25,22,29,31,49,55,5,3,0.177734,-0.225586,0.896973,-1.875,0.5625,2.125,-0.222311,-0.211625,2.25046
5307,3,-15,-33,-63,-61,-38,-2,13,0.177734,-0.225586,0.896973,-1.875,0.5625,2.125,-0.222311,-0.211625,2.25046
5307,28,6,70,-51,-28,-4,7,-4,0.177734,-0.225586,0.896973,-1.875,0.5625,2.125,-0.222311,-0.211625,2.25046
5329,-21,-14,-46,7,8,-3,-31,-11,0.220703,-0.192871,0.885742,1.1875,1.25,2.375,-0.221893,-0.211721,2.25116
5329,5,9,49,86,80,18,20,10,0.220703,-0.192871,0.885742,1.1875,1.25,2.375,-0.221893,-0.211721,2.25116
5330,-40,-7,11,-4,-26,-23,-37,-13,0.220703,-0.192871,0.885742,1.1875,1.25,2.375,-0.221893,-0.211721,2.25116
5330,-13,-1,-20,-46,-50,-16,0,0,0.220703,-0.192871,0.885742,1.1875,1.25,2.375,-0.221893,-0.211721,2.25116
5344,28,-5,-8,-43,-9,-1,-5,10,0.216309,-0.182617,0.880371,1.75,-0.375,3.0625,-0.221077,-0.212104,2.25219
5344,11,2,-42,-110,-84,-4,6,-7,0.216309,-0.182617,0.880371,1.75,-0.375,3.0625,-0.221077,-0.212104,2.25219
5344,16,5,55,126,108,-6,-14,15,0.216309,-0.182617,0.880371,1.75,-0.375,3.0625,-0.221077,-0.212104,2.25219
5344,10,2,34,55,12,72,94,25,0.216309,-0.182617,0.880371,1.75,-0.375,3.0625,-0.221077,-0.212104,2.25219
5375,-12,3,-15,-100,-59,10,-8,5,0.233887,-0.201172,0.901367,-2.625,-1.6875,2.25,-0.22208,-0.213277,2.25295
5375,5,6,-11,116,54,-8,13,32,0.233887,-0.201172,0.901367,-2.625,-1.6875,2.25,-0.22208,-0.213277,2.25295
5375,4,6,-8,-118,-64,-31,-26,-17,0.233887,-0.201172,0.901367,-2.625,-1.6875,2.25,-0.22208,-0.213277,2.25295
5375,-52,-12,0,65,57,17,-14,-18,0.233887,-0.201172,0.901367,-2.625,-1.6875,2.25,-0.22208,-0.213277,2.25295
5390,11,15,45,110,84,25,39,11,0.237793,-0.196777,0.908691,-3.9375,-2.375,-1.625,-0.223157,-0.215084,2.25267
5390,4,0,7,-78,-32,9,18,5,0.237793,-0.196777,0.908691,-3.9375,-2.375,-1.625,-0.223157,-0.215084,2.25267
5390,15,3,-58,-82,-92,-45,-42,9,0.237793,-0.196777,0.908691,-3.9375,-2.375,-1.625,-0.223157,-0.215084,2.25267
5390,9,3,52,31,-5,-4,5,-3,0.237793,-0.196777,0.908691,-3.9375,-2.375,-1.625,-0.223157,-0.215084,2.25267
5404,12,-10,-7,-105,-53,-26,-11,-9,0.240723,-0.182129,0.90918,2,-1.6875,1.0625,-0.222023,-0.21637,2.25305
5404,-3,4,11,16,16,-19,-7,-21,0.240723,-0.182129,0.90918,2,-1.6875,1.0625,-0.222023,-0.21637,2.25305
5405,17,-11,-41,97,92,85,81,44,0.240723,-0.182129,0.90918,2,-1.6875,1.0625,-0.222023,-0.21637,2.25305
5405,-36,14,70,60,47,1,-16,-38,0.240723,-0.182129,0.90918,2,-1.6875,1.0625,-0.222023,-0.21637,2.25305
5427,-23,-11,-78,-75,-53,-11,8,-20,0.189453,-0.18457,0.892578,-0.8125,-1.5625,2,-0.221988,-0.216513,2.2537
5427,11,-21,-54,-74,-69,-45,-60,-19,0.189453,-0.18457,0.892578,-0.8125,-1.5625,2,-0.221988,-0.216513,2.2537
5428,-10,4,20,-23,51,18,-2,-18,0.189453,-0.18457,0.892578,-0.8125,-1.5625,2,-0.221988,-0.216513,2.2537
5428,22,10,-1,109,85,8,42,37,0.189453,-0.18457,0.892578,-0.8125,-1.5625,2,-0.221988,-0.216513,2.2537
5450,23,5,-45,10,-16,6,-25,5,0.230469,-0.204102,0.904297,-0.5,-1.1875,0,-0.222199,-0.217555,2.25381
5450,-35,-8,-14,-46,-41,-23,-6,-21,0.230469,-0.204102,0.904297,-0.5,-1.1875,0,-0.222199,-0.217555,2.25381
5450,19,12,46,-20,-18,4,21,5,0.230469,-0.204102,0.904297,-0.5,-1.1875,0,-0.222199,-0.217555,2.25381
5450,1,-8,-33,-49,-49,-54,-81,-6,0.230469,-0.204102,0.904297,-0.5,-1.1875,0,-0.222199,-0.217555,2.25381
5464,13,-4,-2,-24,-8,37,34,-20,0.232422,-0.181641,0.911133,2.875,-1.5625,-1.0625,-0.220535,-0.218702,2.25343
5464,21,7,17,58,99,38,-10,11,0.232422,-0.181641,0.911133,2.875,-1.5625,-1.0625,-0.220535,-0.218702,2.25343
5464,-35,-6,8,21,-20,1,34,1,0.232422,-0.181641,0.911133,2.875,-1.5625,-1.0625,-0.220535,-0.218702,2.25343
5464,44,-1,32,-11,13,12,-27,12,0.232422,-0.181641,0.911133,2.875,-1.5625,-1.0625,-0.220535,-0.218702,2.25343
5488,-28,-17,-85,-61,-49,-43,-27,-11,0.185059,-0.199219,0.899414,-1.375,-1.4375,0.5,-0.221081,-0.218779,2.25383
5488,30,9,9,-42,-2,-14,-16,5,0.185059,-0.199219,0.899414,-1.375,-1.4375,0.5,-0.221081,-0.218779,2.25383
5488,-6,0,51,87,112,35,8,4,0.185059,-0.199219,0.899414,-1.375,-1.4375,0.5,-0.221081,-0.218779,2.25383
5488,10,8,36,-56,-48,18,48,5,0.185059,-0.199219,0.899414,-1.375,-1.4375,0.5,-0.221081,-0.218779,2.25383
5510,-38,-2,-3,56,16,-25,-44,-12,0.182617,-0.213867,0.897949,-2.3125,-0.875,0.4375,-0.222202,-0.218476,2.25405
5510,54,2,-22,-108,-64,-1,28,14,0.182617,-0.213867,0.897949,-2.3125,-0.875,0.4375,-0.222202,-0.218476,2.25405
5510,-71,-25,-93,-42,-93,-48,-39,-49,0.182617,-0.213867,0.897949,-2.3125,-0.875,0.4375,-0.222202,-0.218476,2.25405
5510,30,7,-2,79,105,8,-4,-4,0.182617,-0.213867,0.897949,-2.3125,-0.875,0.4375,-0.222202,-0.218476,2.25405
5524,24,14,83,103,70,56,9,37,0.211426,-0.193359,0.914551,1.3125,-1.625,1.125,-0.221446,-0.218975,2.25456
5524,36,20,34,-20,-25,-6,-26,22,0.211426,-0.193359,0.914551,1.3125,-1.625,1.125,-0.221446,-0.218975,2.25456
5525,25,6,34,67,40,-2,23,26,0.211426,-0.193359,0.914551,1.3125,-1.625,1.125,-0.221446,-0.218975,2.25456
5525,-60,-17,-60,-93,-95,-12,25,-26,0.211426,-0.193359,0.914551,1.3125,-1.625,1.125,-0.221446,-0.218975,2.25456
5547,32,10,3,-64,-26,-42,7,-2,0.19043,-0.193848,0.912598,-3.5625,-2.8125,1.125,-0.222511,-0.219409,2.25506
5547,-14,-32,-63,17,5,41,-36,-6,0.19043,-0.193848,0.912598,-3.5625,-2.8125,1.125,-0.222511,-0.219409,2.25506
5548,10,12,58,53,65,54,-7,8,0.19043,-0.193848,0.912598,-3.5625,-2.8125,1.125,-0.222511,-0.219409,2.25506
5548,2,-7,11,-62,-69,-62,-27,4,0.19043,-0.193848,0.912598,-3.5625,-2.8125,1.125,-0.222511,-0.219409,2.25506
5570,-25,-1,19,-45,-24,6,17,-10,0.196777,-0.196289,0.892578,-4.3125,-1.0625,-0.3125,-0.223899,-0.21968,2.25504
5570,-26,-20,-28,-74,-6,-8,-6,-32,0.196777,-0.196289,0.892578,-4.3125,-1.0625,-0.3125,-0.223899,-0.21968,2.25504
5570,-14,5,15,4,19,4,5,-25,0.196777,-0.196289,0.892578,-4.3125,-1.0625,-0.3125,-0.223899,-0.21968,2.25504
5570,3,11,46,127,127,20,-49,15,0.196777,-0.196289,0.892578,-4.3125,-1.0625,-0.3125,-0.223899,-0.21968,2.25504
5584,44,18,91,41,19,11,42,29,0.197754,-0.206543,0.914062,1.5,2.5625,0.625,-0.223362,-0.218463,2.25504
5584,-30,1,1,-17,-60,-17,18,13,0.197754,-0.206543,0.914062,1.5,2.5625,0.625,-0.223362,-0.218463,2.25504
5585,9,-18,-128,-94,-46,-37,-45,-2,0.197754,-0.206543,0.914062,1.5,2.5625,0.625,-0.223362,-0.218463,2.25504
5585,-12,-8,25,65,31,6,-7,-12,0.197754,-0.206543,0.914062,1.5,2.5625,0.625,-0.223362,-0.218463,2.25504
5614,18,-5,-74,12,4,2,-6,7,0.179199,-0.175781,0.90332,2.625,3.0625,1.8125,-0.221728,-0.216685,2.25528
5614,29,8,95,57,21,10,48,32,0.179199,-0.175781,0.90332,2.625,3.0625,1.8125,-0.221728,-0.216685,2.25528
5615,-50,-3,38,-108,-92,-27,-42,-39,0.179199,-0.175781,0.90332,2.625,3.0625,1.8125,-0.221728,-0.216685,2.25528
5615,-6,16,-18,-6,-8,-20,-11,17,0.179199,-0.175781,0.90332,2.625,3.0625,1.8125,-0.221728,-0.216685,2.25528
5629,13,-9,20,18,23,-34,-27,16,0.166504,-0.20459,0.896484,0.8125,4.25,5.5625,-0.221823,-0.21402,2.25694
5629,-31,-3,-32,-10,-26,1,-10,-34,0.166504,-0.20459,0.896484,0.8125,4.25,5.5625,-0.221823,-0.21402,2.25694
5630,41,9,-3,38,10,59,58,60,0.166504,-0.20459,0.896484,0.8125,4.25,5.5625,-0.221823,-0.21402,2.25694
5630,-15,6,34,-33,0,1,2,-22,0.166504,-0.20459,0.896484,0.8125,4.25,5.5625,-0.221823,-0.21402,2.25694
5652,-48,-10,-13,52,38,-8,-34,15,0.200195,-0.210449,0.896973,-1.625,5.1875,2,-0.222729,-0.212092,2.25723
5652,-2,-15,-76,-52,-79,-37,-28,-13,0.200195,-0.210449,0.896973,-1.625,5.1875,2,-0.222729,-0.212092,2.25723
5653,12,11,57,54,23,-36,-23,-18,0.200195,-0.210449,0.896973,-1.625,5.1875,2,-0.222729,-0.212092,2.25723
5653,31,-31,-101,-14,-60,18,22,2,0.200195,-0.210449,0.896973,-1.625,5.1875,2,-0.222729,-0.212092,2.25723
5682,6,-1,-44,-32,-17,-10,8,13,0.225098,-0.189941,0.89502,0.875,5.4375,-0.6875,-0.221962,-0.211012,2.25659
5682,-24,25,127,123,127,38,6,-8,0.225098,-0.189941,0.89502,0.875,5.4375,-0.6875,-0.221962,-0.211012,2.25659
5682,-12,1,-23,-51,-48,-40,26,0,0.225098,-0.189941,0.89502,0.875,5.4375,-0.6875,-0.221962,-0.211012,2.25659
5682,23,-10,-53,-97,-49,26,-11,4,0.225098,-0.189941,0.89502,0.875,5.4375,-0.6875,-0.221962,-0.211012,2.25659
5690,-5,-5,-52,38,-13,-46,0,-13,0.195801,-0.186523,0.88623,-1.1875,4.5,1.625,-0.222031,-0.209387,2.25671
5690,-1,4,6,-16,-79,45,-37,-9,0.195801,-0.186523,0.88623,-1.1875,4.5,1.625,-0.222031,-0.209387,2.25671
