0,-2,0,-1,0,0,0,1,-1
0,-2,-1,0,-1,-1,-1,-4,-3
1,-2,-1,0,-1,0,-1,-2,0
1,-2,-1,-1,-2,-1,-2,-3,-1
2,-1,-1,-1,0,1,-1,-1,-1
2,-1,0,-2,0,-2,-2,0,0
2,1,0,-1,0,0,-1,0,0
2,-3,-1,-1,-1,-1,0,0,0
10,0,-2,-1,-2,-1,-2,-2,-1
10,-1,-1,-1,-1,-1,-3,0,-2
13,-3,-2,-2,-1,1,0,-1,-1
13,0,-2,-1,-2,0,0,0,0
29,0,-2,-1,-2,-1,-1,0,-2
29,-2,-1,1,0,-2,-2,0,-3
37,0,-2,-1,-3,-2,-1,-3,-3
37,-1,-1,-1,0,-1,-1,1,-2
45,-1,0,-1,0,0,-1,-3,-2
45,1,0,-3,0,-1,-1,2,1
67,-1,-1,0,0,-1,0,-1,0
67,-4,0,0,-1,-1,-2,-2,-3
114,0,0,-2,-2,-1,-1,-2,-1
114,-2,-2,-2,-1,-2,-1,-2,-1
114,-1,-1,-1,-1,-2,0,-2,0
114,0,-1,-1,-1,-2,-1,1,-1
119,-1,0,-2,0,-1,0,0,0
119,0,0,0,-1,-1,-2,-1,0
120,0,-1,-2,-1,0,-1,-1,-2
120,0,-2,-1,-1,1,-2,-2,-3
120,-2,-2,0,-1,0,-1,1,-4
120,-1,0,0,-3,-1,1,-3,-4
127,0,-1,0,-1,-1,-3,0,-3
127,-1,1,-3,0,-2,-1,0,-2
132,2,0,-2,-1,-1,-1,1,0
132,-2,-2,-2,0,1,-1,-4,0
149,-3,-2,-1,-1,-1,0,-11,-2
149,-3,-2,-1,0,0,-1,17,6
155,3,1,1,0,1,-2,-3,2
155,1,-1,-1,0,-2,-1,3,2
178,-1,0,-2,0,1,-1,-6,0
178,-3,-2,-1,-1,0,-2,-6,-1
179,-2,-2,-2,1,-1,-1,-1,0
179,-2,-2,-3,-1,0,-1,-1,0
194,0,-1,-1,0,0,0,2,1
194,0,1,0,-2,-1,-1,-7,-2
196,-2,-2,-2,-1,-2,-1,0,-1
196,-1,-1,-1,-1,1,-2,-3,-2
216,-2,-2,0,0,-3,-1,5,4
216,-4,-2,-2,0,-2,0,0,0
217,0,0,2,-3,0,-1,-3,-1
217,-3,-1,-1,-1,-1,-2,0,0
238,-1,0,0,0,0,-1,1,-1
238,-1,-3,0,0,-1,-1,-3,0
238,0,-1,0,0,-1,0,2,-1
238,-1,-1,-1,-2,-1,-1,2,-1
262,-1,0,-2,-3,0,0,1,1
262,-1,0,-2,-1,-1,-2,-3,-5
262,-4,-3,-3,-1,-1,-1,-2,-2
262,3,1,0,-1,0,-2,2,1
276,-2,-2,-3,-3,-1,0,-1,0
276,0,-2,0,-1,0,1,-1,1
276,-2,1,-2,-1,0,-3,-2,0
276,-3,-1,-1,-1,-1,-1,-2,-1
298,0,0,-1,3,-2,-3,-1,0
298,-1,0,-2,0,0,0,-3,0
299,-4,-1,-2,-1,-2,-1,-1,0
299,0,0,-1,-1,-1,-1,-3,-2
313,-1,0,-1,-3,-1,0,-2,-3
313,0,-1,-3,-1,0,1,-2,-2
314,-3,-2,-1,-3,0,0,1,-1
314,-3,-1,-1,-2,-2,-1,-1,-1
336,2,-1,0,-1,-1,-1,-2,2
336,-2,-1,-1,0,0,-2,-2,-2
337,0,1,0,-2,-1,1,-2,0
337,0,-2,-2,1,-3,-1,-2,-1
358,-4,-2,-1,-1,-2,-1,0,-1
358,-1,-1,0,-2,-1,0,-1,-1
359,-2,-2,0,-1,-1,-2,-3,-1
359,0,-1,-1,-2,0,1,1,0
373,2,-1,0,0,-1,-1,-1,-1
373,-1,0,-1,-1,-1,-3,-2,-2
374,0,-1,-1,-1,0,0,0,-2
374,1,0,0,0,-2,1,-1,0
396,-2,-2,-2,-2,1,2,1,-2
396,-1,0,0,-1,-1,0,-2,-2
403,-2,-2,-2,0,-2,-1,-2,-2
403,-1,-1,-1,-1,-2,-1,-3,-2
419,2,-1,-1,-1,-3,0,0,-1
419,-1,-1,-3,-3,-1,-1,-2,-3
419,-3,-1,-2,0,1,-2,1,-3
419,-2,-1,-2,0,-1,0,0,-2
433,-2,-2,0,-1,-2,-2,-2,-1
433,-1,-2,0,-1,-3,0,0,0
434,1,0,-1,-1,-1,-1,-1,0
434,-2,-2,0,-1,-1,-3,0,-1
456,-2,-1,0,0,0,-1,0,-3
456,1,-1,0,-1,-1,-2,-2,1
456,-1,-2,-1,1,-1,1,-2,-1
456,0,0,-1,0,-1,-1,-4,-1
478,-3,0,-2,-1,0,-2,-3,-2
478,0,-1,0,0,-1,-1,-2,-1
479,1,-1,0,-1,0,-1,-1,-3
479,-5,-3,-1,0,0,0,0,-4
493,6,1,0,-1,-1,-1,-1,0
493,-1,0,-1,-1,-1,-1,0,0
494,0,0,-2,-1,-2,-2,-1,0
494,-2,-2,-1,-1,-1,1,0,0
515,-5,-1,-2,-2,-1,1,-2,-3
515,5,2,1,1,1,2,1,-1
516,-1,0,0,0,-2,-2,1,1
516,-2,-2,0,-2,0,-1,0,-1
539,-4,-3,-2,-2,-3,-2,-1,0
539,-4,-2,-1,-1,-1,-1,-5,-3
539,-1,-2,-1,0,-1,-1,-3,-2
539,1,-1,-2,-1,-2,-1,-2,-4
555,10,1,0,-2,0,0,-2,-1
555,0,-2,-1,-3,0,-1,0,-1
556,0,0,0,-1,-1,-2,0,1
556,0,-2,-1,0,0,2,-2,2
576,-1,-1,-2,1,-1,-3,-4,-2
576,-4,-3,-2,-2,0,-2,-1,1
577,2,-2,-2,-1,-2,-1,-1,0
577,-1,-4,-3,-2,-3,-2,-3,-1
598,3,3,1,1,0,0,1,0
598,-1,-1,-2,-1,-2,0,-6,-2
599,-5,-1,-1,-2,0,-1,6,2
599,0,-1,-1,-1,-2,-1,5,2
612,-2,-2,-2,-1,1,-1,3,-1
612,0,-1,-2,-3,0,0,1,0
620,2,-1,-1,-1,0,0,-5,-3
620,3,2,0,0,1,0,-3,-3
637,2,1,-1,0,-2,0,3,1
637,-2,0,-2,0,-3,-1,-5,0
638,8,2,0,0,-1,0,-1,4
638,-4,-2,0,-1,-1,-2,-4,-3
658,-9,-3,-1,-2,0,0,-8,-5
658,0,-2,1,0,-1,0,6,0
659,-4,-3,-1,-3,-1,-1,2,-1
659,-1,-1,-1,-1,0,0,2,2
681,-5,-2,1,-2,0,-2,-3,-2
681,0,0,-4,-2,-2,0,-3,0
681,-9,-4,-1,0,0,-2,-3,-3
681,-1,-1,-1,-3,-1,-2,-1,0
696,-11,-5,-18,-4,-3,-4,-3,0
696,6,-1,14,3,2,1,1,1
696,-3,-3,-1,-1,-3,-2,-3,-2
696,-4,-1,1,-1,-3,1,-1,-2
718,-2,-3,-3,-2,-2,-1,1,-2
718,-4,0,-2,-1,-4,-2,2,-2
719,0,1,-1,-1,-1,1,1,1
719,1,0,-3,0,-1,-2,-3,-3
733,3,0,4,-1,-1,-2,0,1
733,-8,-3,-2,-3,-3,-1,-3,-3
741,-10,-5,-1,0,-1,0,-6,-2
741,0,1,-1,-2,1,2,4,-6
756,5,0,3,0,2,1,1,-3
756,2,-1,1,-1,0,-3,2,-5
757,-1,-2,-5,-1,-1,-1,-4,5
757,-2,6,21,1,-3,-4,-2,4
778,-4,-5,15,5,-1,0,-1,-7
778,11,4,-1,0,-1,1,-4,2
779,2,1,3,-2,-1,-1,-1,2
779,5,1,-5,-1,0,0,2,-8
793,-3,1,-3,-2,-2,0,0,-8
793,2,0,0,-1,-1,0,4,10
800,0,-2,-6,-1,1,-1,1,11
800,5,-2,-6,-1,0,-3,-8,-16
815,2,1,-1,-1,-1,2,4,18
815,-8,-1,-4,-3,0,0,-2,-6
816,7,2,5,-3,-1,1,7,7
816,-1,-5,-25,-1,0,0,1,-11
838,-4,-4,4,0,-1,-3,-2,-3
838,-7,-4,5,0,0,-3,-5,1
839,-8,-4,-5,-3,0,-1,-6,-16
839,-2,-6,-6,-1,0,-1,-4,-1
852,10,5,-12,0,0,4,2,17
852,-8,-3,7,1,-2,-1,-1,3
860,-2,-1,-6,0,1,-1,-1,-13
860,-4,-3,-10,-4,-6,-5,-4,-2
876,2,5,3,-1,-1,-3,1,-20
876,-2,-9,-10,-3,-2,-1,-1,-5
876,5,0,2,0,-3,-1,3,-13
876,-3,1,1,-1,0,1,0,-1
898,4,-2,-2,2,1,-1,-1,5
898,-1,0,-4,-2,1,0,0,35
899,6,3,4,-1,1,-1,-4,-28
899,3,15,-19,-5,-3,1,6,26
912,-15,-24,-11,-4,-3,1,-8,-37
912,5,1,6,2,-2,-3,-3,2
920,-3,-4,-6,-3,-2,-1,-4,14
920,-4,1,-1,8,4,2,0,-4
935,4,19,29,-3,-1,2,0,6
935,3,-8,-13,-7,-5,-2,-1,-6
937,0,2,3,-3,-3,-4,-3,7
937,-1,-6,10,-2,-2,-3,-2,5
958,-14,-2,-7,-2,1,-3,1,0
958,-3,-1,1,1,1,2,5,-4
959,5,4,-1,0,-3,-1,0,1
959,-4,-2,27,-1,0,-1,-2,1
973,1,-4,-5,1,0,1,0,-13
973,-2,4,-6,-3,-2,-4,-2,38
980,0,-2,-4,1,1,4,12,16
980,-1,-6,-2,0,-1,0,-3,-16
995,1,-1,-4,-3,-3,-2,1,21
995,-2,7,3,2,4,-1,-2,-22
997,-3,-3,-8,1,-3,0,-7,-5
997,6,-2,12,0,0,2,3,15
1018,-1,-3,-7,-1,-6,-2,-3,-2
1018,4,0,-4,2,2,0,1,-8
1025,-14,-7,-29,-6,-4,-5,-6,-27
1025,-4,0,-11,-2,1,1,11,47
1040,-13,-8,7,-2,-1,0,-5,-5
1040,1,2,1,-4,-4,-5,-7,-25
1041,-7,-5,0,-3,-1,0,-4,0
1041,1,1,-4,0,0,-2,-4,-21
1056,-6,0,-3,0,0,-2,-2,8
1056,-7,-5,-5,-1,-1,-1,4,7
1056,-14,-2,2,-2,-4,-2,-2,-11
1056,2,-2,0,0,-2,-3,-5,-9
1078,13,5,6,2,1,0,2,-10
1078,-5,-1,-6,-6,1,-1,-4,-18
1079,0,-1,14,2,-3,-1,1,4
1079,1,-6,-3,-4,0,-2,-4,9
1101,-1,2,-14,0,-3,-4,-5,-12
1101,1,-3,2,-2,-1,1,0,0
1102,3,-14,-11,0,1,-2,-2,6
1102,4,7,-4,-3,-1,0,-1,-3
1132,0,0,5,0,0,-1,0,-7
1132,3,-3,-6,0,1,1,1,-2
1132,6,8,10,3,2,-1,-2,13
1132,-3,-4,3,2,-2,0,-2,-21
1146,17,2,-5,-2,1,-2,1,13
1146,-1,4,5,2,-2,-1,4,8
1147,0,-1,4,0,-1,0,0,-15
1147,0,1,4,4,2,0,-1,0
1161,-6,-2,-2,-3,-4,-1,0,13
1161,-8,-3,1,1,-3,-1,-3,-37
1161,31,12,8,0,-1,-1,3,35
1161,-13,-7,-4,-1,-3,-1,1,-3
1184,-9,-4,1,0,1,-2,-4,8
1184,1,2,2,0,0,-1,-7,-11
1184,-7,-2,-3,-3,0,1,6,-5
1184,4,7,5,-1,-1,-2,-6,0
1198,3,0,-1,-3,0,3,7,-4
1198,-11,-22,-3,0,0,-1,-10,4
1206,1,21,0,2,9,9,17,-1
1206,11,1,-1,-2,-7,-5,-15,2
1221,-12,-1,2,5,-1,-7,6,-9
1221,-8,-12,-23,-3,-6,-9,-9,-10
1222,4,-16,1,-3,-3,0,-1,34
1222,-13,10,12,-6,-1,3,-3,-38
1252,0,-2,-34,-2,-4,-1,-3,56
1252,2,3,18,5,1,4,8,17
1252,-19,-9,-7,-7,-6,-4,-11,-24
1252,-2,-7,0,7,5,0,4,11
1257,-8,0,-4,-5,0,-2,-15,-49
1257,3,6,1,4,7,4,-5,49
1266,3,4,5,8,2,-1,7,-3
1266,-9,-11,-11,-11,-7,-3,8,-32
1280,2,-9,16,6,21,55,-101,-27
1280,4,-5,-6,-3,2,-3,70,-4
1281,9,13,-1,-5,-6,-28,76,57
1281,-2,-1,-2,0,-14,-14,-11,-12
1304,2,-7,-3,-12,-33,-65,0,4
1304,22,11,5,-5,-11,-13,-39,-42
1305,-18,-14,-4,1,14,21,-33,-14
1305,12,13,5,7,21,28,9,-3
1318,2,9,10,6,19,30,19,-3
1318,3,-2,1,3,6,22,1,18
1325,-16,-3,-1,1,-4,-2,-9,-32
1325,-6,-1,-29,-6,-5,-8,-15,7
1341,-7,-12,33,-11,-9,-8,10,-1
1341,3,8,-8,7,-1,-9,5,1
1342,-2,-18,-5,-22,-15,0,-19,-5
1342,-6,-9,-6,-6,1,4,-5,1
1364,4,9,0,2,3,-9,20,11
1364,-16,-28,-23,-13,0,-6,-2,-8
1364,9,3,2,9,-2,2,-10,-10
1364,20,51,-1,17,5,-1,9,21
1378,16,4,-21,-14,-3,-6,21,-3
1378,-5,-5,12,4,3,4,-10,-9
1385,1,-12,-5,-13,0,-1,-12,-7
1385,-9,-24,-7,-11,-7,-8,6,3
1401,0,-1,4,-3,0,-2,12,5
1401,-8,12,16,4,-1,1,-7,-8
1401,-4,-1,-6,1,1,-1,-8,-6
1401,2,-6,32,7,3,-9,0,0
1423,-6,9,0,6,21,90,16,5
1423,-6,-3,-4,-4,2,-58,-2,2
1424,-2,-3,10,8,-29,-23,7,-4
1424,-8,-15,-15,-2,-30,-53,-36,-2
1438,-14,-12,-7,6,-14,-35,-24,-12
1438,-3,7,-2,-7,11,41,2,4
1446,3,16,-11,-5,24,31,7,-11
1446,-2,-46,-52,10,19,18,21,8
1461,-8,-6,71,26,0,-6,-2,-39
1461,12,20,23,-3,-4,9,7,71
1462,7,19,13,24,26,-5,-9,-34
1462,12,-11,-14,23,21,24,8,31
1483,6,-1,-4,-30,-40,-15,12,40
1483,-4,-13,-24,-15,-10,17,-19,-36
1485,0,7,19,6,-1,-7,20,13
1485,-1,2,1,-4,4,18,32,-12
1507,-2,-3,-20,12,11,-28,-2,-15
1507,-2,5,0,-1,-12,-18,-11,-5
1508,3,-8,-21,-12,13,27,-18,11
1508,-4,7,18,-1,1,-38,-14,-17
1520,-8,-11,-23,-14,-19,-12,10,11
1520,3,6,9,-1,-8,-1,0,-12
1521,-12,-12,0,5,3,7,-10,-30
1521,-25,-4,7,-13,3,19,8,62
1543,25,14,5,5,4,-2,5,25
1543,-6,-9,-27,-1,0,4,-1,-16
1545,-27,-25,-3,-9,-11,-23,-34,-93
1545,34,28,35,-1,-1,9,-22,-113
1567,28,42,28,12,15,18,36,21
1567,3,-9,-22,6,4,1,-8,-92
1567,-22,-21,-47,-13,-15,-15,15,1
1567,-10,11,46,-12,-18,-10,-15,-100
1580,-2,1,-4,8,9,1,-28,18
1580,2,8,11,4,3,2,27,27
1589,0,-2,3,32,29,-4,-6,30
1589,13,15,-29,4,-14,8,12,60
1604,-8,-15,-17,-49,-39,-10,-8,-15
1604,-2,2,11,4,3,-2,-1,10
1605,-1,-4,7,2,-1,-2,-16,-20
1605,4,15,-1,-1,30,87,25,43
1626,-17,-15,-13,9,16,-66,3,-35
1626,14,15,-4,-18,-39,-4,-4,-5
1628,7,12,14,1,-13,-5,-4,26
1628,-14,-15,-5,11,34,-44,-9,-1
1650,-1,-7,-20,1,-21,22,13,-18
1650,-13,-14,18,0,-14,-44,-36,-11
1651,21,9,2,-2,2,-9,2,12
1651,-20,21,-2,-30,-10,16,0,1
1664,-18,-30,3,6,37,74,-1,-24
1664,15,8,12,62,68,55,16,-2
1665,5,31,-1,-3,-24,-41,38,37
1665,-6,-36,-10,-7,-59,-50,-31,-4
1694,16,51,-2,-15,-36,-100,-47,-16
1694,-9,-4,-2,-22,6,69,17,1
1695,13,8,5,-7,18,14,-17,-6
1695,-9,-10,-2,10,38,-2,45,10
1700,-43,-26,-7,0,-3,30,-9,-59
1700,29,-4,-2,-21,-57,-47,10,97
1710,10,16,0,-10,-19,-30,-38,-60
1710,10,1,3,2,8,17,7,-22
1724,6,-6,-7,5,33,9,-12,-18
1724,-20,-15,-9,4,22,0,23,-5
1725,-14,-12,11,3,-5,17,18,7
1725,12,32,-15,6,-31,-32,-5,-7
1746,-1,-23,34,76,16,20,7,8
1746,-7,-1,-52,-46,1,1,3,6
1747,7,-14,-20,1,0,10,12,37
1747,-27,-57,35,38,19,9,-24,-21
1760,22,93,5,-25,65,24,29,36
1760,-12,-52,46,-47,-90,-40,-22,-23
1769,-29,-37,-84,-62,-24,5,-11,-21
1769,9,-10,56,26,-7,-7,-23,-14
1784,-3,-28,-50,-17,2,-7,7,22
1784,3,35,40,31,14,-6,-5,-27
1785,-4,17,-2,-66,-20,9,-2,-11
1785,1,-6,5,22,4,3,9,17
1806,20,4,-4,24,-1,-12,5,2
1806,-11,0,-10,43,35,5,-7,-29
1808,5,-26,12,3,-3,-3,3,1
1808,15,48,-24,-45,-27,-15,7,20
1820,-7,-5,21,40,4,7,2,-6
1820,-19,-5,-18,1,9,-2,-17,-21
1829,5,24,27,51,20,11,-3,-3
1829,12,18,-9,-36,-10,-4,3,9
1844,-19,-27,-22,-65,-31,33,25,0
1844,10,-54,-55,-45,-26,-40,-34,23
1845,20,29,66,107,45,-4,37,32
1845,-33,-37,-23,17,-8,7,-57,-56
1867,13,48,18,-16,-17,-19,10,25
1867,-22,16,7,41,37,26,8,7
1868,0,55,6,-47,-5,91,0,-2
1868,1,-2,1,-1,-5,-88,7,16
1880,15,-29,-55,-53,-24,-12,-7,-35
1880,16,29,71,76,-4,-31,-30,-14
1890,-4,-26,-26,52,23,-10,-11,0
1890,-14,-11,-6,-19,25,49,2,-19
1904,-5,-4,-13,-36,-16,13,-6,-4
1904,19,33,-5,-47,0,0,33,8
1906,-16,-35,9,-41,-30,-16,-3,13
1906,-5,-6,36,21,-20,4,-3,-7
1926,-1,-36,-50,-56,-4,-6,10,44
1926,-10,-5,-45,-48,20,66,4,-21
1927,-26,-27,56,72,25,-35,-15,-41
1927,6,-31,-18,29,25,26,23,11
1949,33,76,38,18,-62,-62,-33,-9
1949,6,7,-4,-49,-54,-73,-26,2
1950,11,-28,-36,-21,-15,1,-22,2
1950,-17,16,-18,-17,21,9,15,5
1964,18,-16,20,42,21,56,15,50
1964,-16,-5,-23,-30,22,-22,4,-9
1965,3,26,25,-33,-24,-15,-10,-55
1965,2,-13,-12,-4,-29,-31,-21,75
1987,-40,-40,-5,45,26,1,-15,-69
1987,21,20,22,18,12,34,27,34
1988,17,-12,20,12,13,21,11,6
1988,-24,38,-15,-9,23,54,-13,-94
2000,-4,-14,6,6,-13,-22,29,101
2000,-21,-23,1,-4,-29,-25,-18,-52
2009,5,9,-25,-32,-15,-41,-14,37
2009,17,2,6,-14,1,16,7,31
2023,-29,-7,9,-4,9,-9,-32,-72
2023,43,-11,-9,35,27,77,38,46
2025,-20,-2,-1,33,7,-68,10,10
2025,16,-6,23,-11,-20,-20,-21,-16
2046,11,56,-51,-30,-7,6,-15,-18
2046,-16,-13,44,79,17,-12,4,-18
2048,-8,0,-2,-15,-22,13,-3,-4
2048,14,6,1,-23,-22,-29,-19,-3
2060,17,-31,21,-11,27,62,20,-9
2060,-16,46,-3,14,23,-30,4,23
2069,-5,2,-15,-17,-31,-29,-12,-1
2069,-11,-14,-10,-13,-13,-17,-4,0
2083,-22,24,-29,-80,3,4,2,-34
2083,5,-74,14,78,25,68,16,-8
2086,-26,2,11,52,27,4,5,11
2086,-9,-23,2,-8,-21,-17,16,-12
2107,30,24,-19,-13,-13,0,-3,18
2107,-20,-13,4,-27,-18,-54,-31,-9
2112,10,32,-2,11,20,25,4,-1
2112,60,6,2,8,-2,20,8,18
2129,-47,-30,25,34,10,-27,-6,-4
2129,8,14,-14,-48,-6,-4,14,27
2130,29,-4,-9,-22,-7,41,-5,-25
2130,-23,-5,-12,-17,12,10,7,-12
2151,4,-9,9,30,-8,-38,9,-19
2151,-8,8,-16,-7,-23,-29,-28,-18
2153,-3,-23,6,-42,-10,11,-4,21
2153,10,-5,8,24,39,66,17,26
2166,10,19,39,46,-1,-35,-8,-8
2166,-9,-21,-21,-15,-17,-42,-5,-19
2168,23,-5,-5,-15,-16,-1,-6,-8
2168,-5,-5,-12,-25,1,42,4,9
2180,2,-22,8,17,26,-32,-22,9
2180,3,22,6,-1,-8,19,37,8
2189,-2,-13,-19,-31,-14,29,5,-25
2189,-16,-9,-7,17,15,-44,-5,2
2204,12,15,-1,17,-15,24,14,15
2204,-15,3,4,-18,-1,-10,-34,-4
2206,-12,16,-6,-25,1,-5,12,-1
2206,1,-8,11,11,-26,-43,2,3
2226,-9,-8,-1,18,27,50,-10,-8
2226,37,7,2,-1,14,-8,1,-1
2228,-21,-1,4,4,-16,12,19,14
2228,-19,-10,-10,-17,-9,-22,-3,0
2240,12,8,3,-7,11,53,3,2
2240,-2,6,-4,-11,7,15,13,-1
2249,19,5,-1,14,-4,-12,-27,-6
2249,-42,-6,-11,-8,-27,-71,-16,-17
2264,22,-11,-10,0,-18,8,-3,5
2264,-18,20,10,-8,11,-13,-2,-6
2270,7,2,-4,30,32,8,7,4
2270,17,11,2,3,-1,19,6,-1
2286,-16,-10,-3,0,-10,2,1,16
2286,-39,-15,-6,-13,-3,15,-4,-34
2288,-4,3,9,5,4,-8,5,0
2288,4,8,6,4,5,14,5,-1
2299,-14,-19,2,10,-9,-19,6,-1
2299,7,-23,-14,5,-5,-15,-6,9
2309,-18,-22,-5,-19,-14,-28,-1,-2
2309,8,10,-5,7,7,12,-14,0
2324,1,-12,1,-11,-2,0,-3,-11
2324,17,9,14,-8,0,11,11,2
2330,18,1,-1,-3,-7,-44,-1,10
2330,20,4,-14,12,0,29,-5,26
2346,-23,2,3,3,-18,-78,-37,-40
2346,-6,9,2,4,10,46,6,23
2349,-11,-8,-3,0,10,25,4,-4
2349,1,-6,-4,-6,3,-14,7,-4
2360,-6,-4,7,-9,-16,-7,7,15
2360,-3,4,-4,12,-3,3,-15,-14
2369,-1,-4,-5,-7,15,22,18,14
2369,-17,-9,3,-11,-3,-13,-3,-1
2392,-3,-5,-3,3,5,26,2,-4
2392,8,-1,-12,2,5,38,7,8
2393,10,6,2,8,-5,-93,-11,10
2393,2,10,-7,-14,-14,10,-19,-14
2414,-11,-15,-9,-1,-7,-12,-9,-26
2414,16,2,0,-11,-8,-1,-6,-2
2415,-4,2,-9,-7,14,41,11,12
2415,11,2,-2,7,9,-3,1,27
2420,8,-3,24,-6,7,1,10,16
2420,-26,-3,-12,-16,-13,-11,9,-3
2428,16,-14,-12,20,-17,-30,-17,3
2428,10,14,7,-5,-3,-21,-10,-24
2452,35,-1,-2,-8,3,13,9,6
2452,-14,3,8,-3,14,30,0,-2
2453,-12,1,5,4,16,49,19,10
2453,-7,-11,-6,-15,-17,-44,10,-2
2467,-29,-11,-19,-6,-19,-49,-21,-2
2467,7,-14,-8,2,-10,-19,-12,-27
2468,13,4,4,-8,7,42,-1,8
2468,12,22,11,17,12,0,15,1
2496,-2,5,2,0,6,19,-3,18
2496,-21,2,3,-1,-10,-28,-3,-4
2498,-46,-3,0,-24,-11,-4,8,-16
2498,-14,-8,-1,9,15,36,-8,-4
2504,-6,1,-8,12,6,-13,18,13
2504,16,12,-3,7,-10,-11,-11,-2
2510,24,8,4,-2,3,-15,-9,-5
2510,-1,-8,-3,-12,5,20,6,-4
2526,1,4,1,0,-21,-35,-1,-6
2526,9,2,4,-4,-5,-7,-10,3
2528,-24,-26,-22,-13,3,-3,-5,-26
2528,40,16,2,-3,1,6,4,15
2549,10,-9,2,11,10,20,-1,6
2549,10,1,6,12,16,43,16,1
2550,-11,-1,1,0,-11,-34,-7,-16
2550,-13,-8,2,0,-2,26,0,4
2572,-5,10,-13,-8,3,-12,0,-7
2572,22,6,1,2,-23,-47,-3,11
2573,9,22,-2,1,2,10,-15,-6
2573,-12,-6,2,3,12,12,6,-4
2594,13,4,8,-10,1,10,-1,1
2594,1,-5,2,-7,10,17,10,-6
2595,-3,-4,2,18,1,-1,-8,6
2595,-3,25,1,0,-7,2,1,-3
2616,-14,-6,5,3,9,28,1,-11
2616,0,-13,-5,-8,-4,-13,-3,26
2617,-1,32,5,-1,-15,-33,-8,-11
2617,1,-21,-4,-11,-14,-14,-9,-10
2622,-15,-2,-9,3,-5,-18,-8,-6
2622,-11,-5,4,8,6,24,0,-12
2639,14,-5,2,4,27,7,10,15
2639,-13,3,4,-4,-16,5,21,9
2647,4,-7,2,-37,-35,-57,-12,-6
2647,-11,24,-4,32,10,-5,-20,-15
2648,-10,-19,-4,2,9,25,-10,0
2648,11,-3,-2,9,17,14,16,15
2669,-7,-6,1,-19,3,17,-2,-1
2669,-15,1,8,-8,-10,-11,1,-26
2671,9,0,-7,2,-8,5,3,21
2671,-7,-15,-9,-14,-5,-13,-11,-3
2683,11,5,-5,10,10,42,2,-1
2683,4,-15,-8,11,5,-63,-10,-13
2692,22,6,9,-5,-12,22,9,12
2692,-28,-8,-7,-7,-12,-7,-4,-24
2707,-2,-7,7,3,11,-11,4,5
2707,-10,-15,-11,-11,-10,-6,-12,7
2708,15,-5,2,-1,-6,1,-7,-27
2708,-3,-2,-4,9,-4,-18,-3,32
2729,20,4,0,2,11,28,13,-6
2729,-4,0,0,-8,0,3,-1,13
2730,0,1,-4,-12,-9,-9,0,-5
2730,-26,4,4,6,5,-12,-10,-15
2742,-51,-12,-8,-3,13,44,7,-20
2742,11,-17,-8,0,-5,-66,-4,15
2752,-2,26,6,0,-34,-17,-2,3
2752,5,-8,3,11,8,8,-19,-20
2767,-15,-7,-10,9,10,14,-3,-2
2767,2,0,3,-10,7,13,10,8
2768,-11,-18,4,-12,1,-2,11,7
2768,1,15,-12,5,-22,-61,-20,-15
2789,7,7,6,3,2,14,-5,0
2789,-2,-1,3,1,26,71,12,-13
2790,0,-7,1,1,-16,-26,6,28
2790,-11,14,14,-14,-15,-26,-21,-14
2803,28,-2,-17,16,5,-11,3,18
2803,-1,-8,3,2,9,32,3,-12
2811,-9,-13,-12,-6,17,45,-2,-12
2811,29,18,3,4,0,19,18,30
2827,7,0,7,-10,-25,-44,-33,-7
2827,15,5,-3,-7,2,7,16,1
2828,-27,-12,2,13,23,4,8,-4
2828,8,-11,-11,8,-11,-41,5,2
2849,-38,19,7,-2,-6,1,-1,-8
2849,7,7,2,-7,-13,67,8,-1
2850,18,-17,-5,-11,-2,-52,-19,-32
2850,-2,-5,-2,7,26,98,6,27
2872,-7,-11,5,-7,-10,-101,-1,0
2872,-11,4,-4,-1,-26,-17,-13,1
2873,-30,-9,-8,1,-3,-6,-13,-9
2873,3,-7,2,-13,16,42,2,-39
2886,1,0,4,10,6,38,12,29
2886,-5,0,-6,0,3,-16,11,6
2888,4,2,4,2,0,21,6,3
2888,-21,-9,-11,-5,-8,-23,-17,-41
2909,15,4,8,1,6,10,-3,7
2909,-14,-6,-7,-6,-10,-59,4,7
2910,-4,-8,-4,-2,-17,-12,-8,-5
2910,-4,2,-9,-10,1,-2,0,11
2922,6,9,7,4,2,-4,-9,-11
2922,-12,0,6,0,10,31,2,-22
2932,12,4,-6,-2,-9,25,3,23
2932,11,-6,3,1,14,-48,5,29
2946,0,-2,-1,-6,-16,-7,0,3
2946,28,5,-11,-9,-22,-27,-27,-26
2947,-26,0,3,-9,3,9,6,37
2947,27,9,3,7,21,47,32,6
2969,-7,-11,-20,10,-3,-17,-10,-6
2969,4,-1,9,0,2,24,-2,5
2970,5,13,6,-10,-11,-49,5,-13
2970,2,-15,-7,-1,-11,-4,-13,10
2983,6,-6,4,-2,11,13,1,-3
2983,6,-6,-4,-3,-3,-6,2,6
2992,-38,4,4,0,14,39,-8,-9
2992,-5,-2,-3,-2,-8,-17,15,4
3006,-2,-9,-2,4,-9,-8,-10,-35
3006,12,-7,-2,0,9,21,-3,-7
3008,1,11,-5,-4,15,16,7,-6
3008,-1,3,0,-6,-24,-31,5,-11
3030,-1,17,19,18,-11,-35,-14,26
3030,-14,2,-17,-3,6,0,-10,-7
3031,28,-6,-2,6,21,34,2,-5
3031,1,-8,-4,-9,-9,9,1,-14
3043,-23,-6,-1,-11,-4,-22,11,-4
3043,-2,5,10,-5,-5,-33,14,9
3052,21,2,-6,5,-10,-10,-32,-6
3052,3,-12,-1,9,2,-45,-13,-7
3082,-20,5,0,-6,5,30,24,3
3082,13,2,0,-1,-7,-12,-10,7
3083,5,-3,-9,-7,-4,-1,8,-16
3083,-5,-3,2,3,13,25,10,43
3089,11,2,-3,-8,9,64,7,-2
3089,-8,11,-2,12,-9,-36,-1,1
3091,12,1,3,9,-4,-17,-13,-7
3091,-17,-20,4,2,11,49,1,-16
3102,21,15,-10,-23,0,-44,-7,-4
3102,-4,-28,-8,7,-4,-10,2,17
3112,32,30,9,10,0,31,-12,-3
3112,22,7,2,-2,-2,-17,-2,-6
3127,5,-12,-7,-6,-22,-22,10,-17
3127,4,1,-3,-7,14,15,-19,36
3128,-17,-11,1,4,-11,-40,6,-1
3128,-18,-1,-3,-5,4,6,-11,-4
3148,13,10,-1,6,5,29,5,0
3148,-2,8,5,4,10,9,11,-6
3151,-6,-2,-2,-7,2,-7,5,-1
3151,-10,-1,-2,-3,3,41,-5,1
3162,-8,-20,-12,-22,-27,-65,-17,-10
3162,-21,0,8,22,-11,20,2,-31
3177,-5,-9,0,8,14,-14,-12,15
3177,7,16,3,-3,-3,-12,14,-9
3186,1,-4,6,8,15,51,-1,5
3186,-4,-5,-6,-22,1,8,20,-8
3187,3,-8,-7,2,-5,2,-9,-2
3187,-18,1,1,-1,-7,-10,-14,-12
3209,-10,-8,2,10,16,4,17,12
3209,-7,3,-10,-17,-16,-35,-7,4
3210,3,-6,1,9,-21,-29,-14,3
3210,24,5,-8,2,4,7,-7,-4
3223,10,14,7,6,24,47,1,8
3223,-5,2,6,-3,-15,-18,17,-1
3232,-9,-6,-9,-8,1,-6,0,-10
3232,12,-1,1,-8,-10,-8,3,-9
3246,3,7,-5,-6,-3,5,-9,-5
3246,4,7,5,16,19,27,6,6
3248,2,4,2,3,10,24,16,-7
3248,-12,-5,-3,-4,-7,-24,3,5
3269,-13,-11,3,-8,-23,-22,-23,-9
3269,16,6,-4,-6,12,5,-5,16
3270,-30,4,-7,-19,-7,4,3,-18
3270,-2,-3,0,11,-10,-21,-20,-1
3283,11,4,7,9,0,-2,13,20
3283,-12,-15,-2,8,0,-8,-22,-11
3299,3,-6,4,-1,17,38,10,-3
3299,-16,-2,-5,-14,-2,6,12,0
3306,-7,-6,-3,-4,-5,-8,-1,28
3306,15,7,2,-7,-6,-8,1,18
3308,1,-1,-7,4,-2,13,-1,-15
3308,-12,1,3,1,1,-47,-12,-33
3329,-11,-15,-6,-4,-11,-13,-12,-35
3329,17,33,6,-5,2,18,-9,45
3331,8,-5,3,-11,2,-8,14,15
3331,21,4,-3,-1,-4,-8,4,14
3342,-2,-3,-5,11,13,11,5,1
3342,-7,-8,-3,1,-22,-17,-5,-32
3359,9,-13,-5,-5,-5,-4,2,-3
3359,-7,15,6,0,3,33,4,21
3381,12,-6,-6,4,16,3,14,4
3381,-5,-16,-2,-6,-3,15,-23,-43
3383,3,16,8,-13,-14,-27,5,64
3383,-19,8,-5,2,-13,-33,-24,-20
3389,-3,-12,-3,21,10,39,12,10
3389,6,-15,-3,0,9,4,0,-20
3390,-9,6,3,1,-13,-17,-3,-14
3390,7,0,6,-2,1,1,-3,13
3412,-10,10,4,-13,-5,-3,3,-3
3412,-7,1,0,1,5,3,-1,-19
3413,-5,-10,-2,5,10,34,-4,43
3413,-5,-8,-11,-8,9,19,11,12
3427,20,-5,-3,1,-21,-44,-21,-22
3427,-5,-6,-2,-8,6,9,3,0
3428,9,4,-3,-9,-3,-34,-6,-14
3428,-12,-9,6,14,-19,-21,10,13
3449,2,13,8,-6,9,31,-5,-10
3449,14,-10,-15,9,6,8,0,17
3456,-5,-1,-5,5,-3,-34,5,-22
3456,3,2,-3,-2,2,4,-17,-4
3472,-21,-5,3,-12,-3,-6,-5,-5
3472,-9,6,7,1,16,54,17,14
3473,-7,0,-4,3,-15,-66,3,-40
3473,3,-9,-2,-18,-19,-19,1,1
3487,-5,-8,-9,-8,10,-2,-14,-2
3487,10,40,2,9,-6,-8,-10,-12
3488,-4,-4,1,14,16,34,28,5
3488,-6,-12,1,7,11,15,-7,-8
3516,-58,7,0,-5,-7,-2,11,-4
3516,5,-15,1,-1,4,0,-7,7
3518,0,7,2,2,24,102,0,-16
3518,2,4,5,-16,-38,-91,0,-19
3531,19,-2,-7,5,-10,12,-5,68
3531,-8,-16,-3,1,-8,-26,-2,-3
3533,5,1,1,-3,-2,8,-10,4
3533,-7,-4,-1,1,19,47,1,-7
3546,6,-1,-2,4,19,1,20,-16
3546,8,-2,0,-10,-33,-47,-3,7
3547,26,-5,-5,-7,-13,-24,-13,10
3547,-9,27,0,16,25,11,-5,-31
3569,12,1,4,17,-5,-5,5,42
3569,-2,-8,-1,-7,4,-13,5,-1
3571,-13,-1,2,-2,-9,-12,-11,-7
3571,4,-12,-7,-9,-3,15,4,-12
3599,11,2,0,-9,8,6,4,-15
3599,-11,-5,1,5,12,49,3,-2
3600,4,-5,0,1,-20,-46,6,10
3600,-1,-6,-7,-1,0,13,-13,12
3605,3,-6,0,-14,3,6,-9,-8
3605,-1,-4,-11,25,24,62,30,29
3613,-33,-9,1,2,-8,13,-8,-48
3613,4,5,2,1,-22,-42,-10,41
3628,-3,-6,-2,-9,-18,-30,-19,-27
3628,-21,0,0,-21,3,13,0,-10
3637,-2,-7,1,12,10,-6,0,-7
3637,21,-1,-4,4,7,20,12,31
3651,12,2,-3,3,-2,2,6,7
3651,-15,-5,4,-8,-4,10,3,-8
3652,-2,3,0,-8,5,-5,-1,0
3652,-1,-6,-9,10,16,19,8,18
3665,-13,-12,1,-15,-26,-31,6,-17
3665,19,16,2,19,-2,-21,-5,-1
3673,-18,-3,-10,-1,-9,-18,2,-23
3673,1,0,2,-6,14,38,-16,25
3689,-4,-10,-10,0,-2,-16,1,-14
3689,1,3,5,-18,-11,1,-12,-4
3691,23,11,0,-1,5,-8,-6,-4
3691,-15,-4,3,14,3,19,13,-27
3711,-10,-2,-2,6,16,28,-5,4
3711,12,-1,2,-4,4,-20,-1,-27
3712,20,10,5,-8,-16,1,7,65
3712,16,0,-5,-21,-19,-22,-1,-14
3734,-2,8,8,28,2,7,-16,-2
3734,-21,-27,1,4,4,-48,-8,-22
3735,-3,5,-13,-3,14,45,-3,1
3735,0,-14,2,-1,4,11,12,-17
3749,-6,7,1,-9,-15,-28,-18,-28
3749,1,3,-3,-7,-16,-21,0,17
3751,-15,-9,7,3,8,16,14,6
3751,-3,7,-9,-16,0,7,6,10
3772,4,-4,-5,8,5,35,1,-9
3772,-10,-8,-8,15,-6,-30,-14,-24
3773,19,0,8,-1,-1,-23,-3,37
3773,-28,3,0,7,2,-45,-5,-22
3785,21,4,1,-10,-11,-4,1,-2
3785,5,9,-7,-8,6,25,-1,4
3800,0,-7,-6,3,4,15,8,-58
3800,1,-3,-2,-1,-12,-34,-2,68
3809,3,1,1,-5,5,-3,-9,14
3809,-5,-2,10,-5,11,-2,4,15
3811,-15,3,-12,-3,-19,-11,-24,-40
3811,-1,5,2,-1,2,43,-2,-12
3831,-4,-4,-3,-9,-8,-60,3,-4
3831,2,-1,-6,7,-11,3,-4,-4
3833,-7,-19,3,5,19,21,3,7
3833,17,22,8,3,7,19,11,8
3845,8,-1,-10,-19,-13,-11,-7,2
3845,-8,-3,-8,11,9,26,0,-12
3852,-5,6,6,6,-6,-28,-11,19
3852,-2,-6,-1,3,-4,-33,-6,-19
3883,-11,0,-2,-7,0,32,-4,-46
3883,-5,-1,2,-15,-8,-36,4,52
3901,-9,-5,-13,5,-10,4,-10,2
3901,-14,-10,1,-3,-4,-6,1,-25
3902,17,22,-5,-2,9,9,9,47
3902,-15,7,7,-1,-5,-36,-10,-51
3905,0,-4,-1,3,5,7,-17,10
3905,8,-6,3,-3,5,18,12,-9
3906,-1,-13,-2,6,-2,4,11,-8
3906,5,5,2,-12,-3,1,16,18
3913,13,-1,-11,0,-5,-19,-9,35
3913,-12,-20,2,0,0,47,-15,-43
3930,-1,11,-4,1,-2,-23,-1,-19
3930,-2,7,4,4,-9,-3,8,36
3931,-1,1,4,-2,17,46,18,-13
3931,12,-1,0,-4,-3,-9,-3,-1
3951,-2,-8,1,9,5,7,8,-3
3951,13,2,-5,-24,-5,7,-29,-26
3958,26,-16,-3,-9,-20,-21,16,13
3958,17,1,-9,28,17,-1,-11,-9
3974,-7,12,6,7,15,60,25,-15
3974,-4,-7,-3,1,-18,-106,-13,39
3975,-20,0,5,-20,-12,-20,-11,-3
3975,-3,2,4,-22,-1,23,6,28
3988,20,-12,-14,25,16,-19,-6,-2
3988,8,-15,-1,9,5,61,6,-10
3990,2,18,1,1,-20,-38,3,14
3990,-14,3,2,-2,-2,-29,-33,-10
4011,-10,-15,3,-6,9,29,2,17
4011,-13,5,1,2,14,1,34,-30
4013,37,13,1,-18,-34,-67,-10,4
4013,2,-6,-14,8,-3,4,0,-10
4025,-2,1,5,-4,-4,-5,2,6
4025,0,0,-5,10,19,43,0,-8
4034,-1,-3,4,13,34,50,10,-19
4034,3,9,11,-5,-21,-36,3,-23
4049,-3,-9,-12,-19,-39,-57,-35,-4
4049,-19,7,3,2,-9,-23,-1,2
4051,-31,-18,-3,12,27,58,14,1
4051,32,13,1,-8,-6,1,6,-7
4071,-20,-7,1,16,9,19,10,-2
4071,1,-7,-1,-18,-15,-13,-17,-6
4079,-9,0,-8,2,4,14,4,-10
4079,9,-8,-1,10,14,46,1,3
4085,8,0,3,-12,-4,-15,4,9
4085,24,3,-4,-2,-14,-8,-11,-23
4093,1,-4,-2,16,16,11,-17,55
4093,-9,-8,-2,-1,17,69,36,26
4109,35,17,13,-3,-40,-107,-14,14
4109,-16,-17,-10,-14,-15,8,-6,-25
4110,-6,0,-11,-19,-1,-7,-12,-29
4110,-15,-18,-6,7,6,7,4,-23
4131,1,23,11,6,28,55,17,7
4131,3,1,0,-16,12,25,3,15
4139,-3,-3,-3,20,-9,-22,2,-6
4139,-48,-6,-9,-6,-27,-53,-23,-8
4145,6,-11,-7,-3,-4,-6,-3,-3
4145,-2,2,3,-3,7,16,-1,-10
4153,-3,5,3,-16,7,23,8,40
4153,3,9,3,1,-10,-44,-1,2
4169,-15,-11,-6,5,2,7,1,-5
4169,-15,1,6,10,-3,-9,-6,17
4170,-10,-4,-9,-13,-7,-25,8,-27
4170,-7,-2,3,-4,-5,-21,-24,23
4191,-23,-5,-5,1,1,12,0,9
4191,28,2,1,12,18,29,12,8
4193,-3,8,13,6,6,35,10,-16
4193,-4,4,-1,-17,-16,-37,0,-5
4205,8,-2,-13,-9,-9,7,-3,2
4205,-7,-2,-1,14,-1,-21,-9,54
4221,5,2,-1,-8,-5,-5,-6,-20
4221,20,17,1,1,12,11,11,15
4228,-8,-14,12,10,-11,-12,-20,-7
4228,7,14,-18,-14,-6,11,4,-21
4230,20,4,6,5,9,4,-11,-1
4230,-16,-8,-6,1,-1,5,10,41
4252,4,3,6,-6,2,-1,-2,2
4252,-8,-4,-5,-3,-6,-10,17,5
4253,-4,-1,5,5,10,86,8,-18
4253,-11,12,-4,2,-9,-50,-2,-22
4265,-26,-6,-7,-20,-11,-1,-17,-33
4265,6,-5,2,7,-9,-45,-28,37
4274,-8,-4,-11,-17,-1,10,15,-24
4274,3,4,3,16,21,57,-3,-7
4289,17,-2,-2,-1,3,-9,19,15
4289,-22,-5,0,1,-6,26,-4,-38
4290,3,-3,8,-5,-6,-48,-21,9
4290,9,-1,-4,-9,-3,-1,10,13
4312,-2,-10,-1,2,3,3,13,-5
4312,-12,23,-1,2,0,14,0,-17
4313,0,-1,-1,8,-6,-12,-4,-14
4313,-1,-7,1,1,1,10,4,20
4334,6,0,-3,-2,2,-6,-23,-4
4334,-13,-17,-5,-11,-10,-7,7,-15
4335,-11,1,-4,5,-2,-23,-2,12
4335,7,-14,-5,-2,12,11,2,-22
4357,19,15,9,-6,2,16,5,15
4357,16,4,-3,14,4,-16,0,8
4358,0,-6,11,-3,-6,2,-2,-24
4358,-6,-35,-19,-9,-6,-2,17,2
4372,11,20,-2,4,2,4,3,47
4372,-4,-8,0,-7,-6,-12,-10,-12
4373,9,-4,-2,4,1,5,-3,11
4373,-14,0,6,-7,6,-9,-6,-56
4394,-6,-4,-3,-1,-4,-6,10,64
4394,10,-9,0,5,-7,-11,-21,-8
4396,-4,1,-2,-9,-8,-37,1,8
4396,20,-1,-1,4,-3,17,-12,3
4409,-22,2,0,-3,21,26,26,-32
4409,-16,-7,2,3,-2,-8,-4,-5
4411,14,0,-7,-4,-16,-13,5,2
4411,-2,2,2,-2,4,3,-3,25
4431,-1,-2,-1,5,-1,-2,-7,-18
4431,3,-7,1,-5,10,14,9,-3
4437,-15,2,-3,-4,-8,-16,-11,11
4437,7,7,-1,4,-5,-2,-17,-7
4454,-18,-2,2,0,0,-33,-3,-19
4454,1,2,3,-8,-11,-4,-3,-6
4456,-1,-1,-5,-5,2,3,1,22
4456,0,-1,4,10,-1,2,7,-5
4468,-12,-14,-4,-1,9,25,-8,-5
4468,21,9,-4,-2,2,-23,0,1
4471,1,-1,-1,2,-4,-8,-7,-17
4471,-12,-3,0,-4,-5,-1,7,6
4491,6,-2,-5,-2,-1,-5,-5,-35
4491,6,2,1,4,11,83,16,4
4493,3,-1,2,-11,-6,-52,-5,-5
4493,-8,1,-4,-9,-19,-19,-27,-6
4521,-16,0,-3,11,2,2,-2,-26
4521,15,-1,5,3,6,0,-1,9
4523,5,-3,-4,3,15,43,7,5
4523,-3,7,9,11,26,38,23,-2
4528,-1,4,-4,-10,-51,-79,-22,-3
4528,-13,-7,-12,-18,-16,-46,-18,-2
4544,-3,9,0,7,10,23,3,-22
4544,9,2,1,0,8,1,1,20
4551,2,-1,2,3,25,60,9,6
4551,1,2,5,-2,-10,-40,6,12
4565,-6,-10,-4,-9,-15,-18,-6,-26
4565,4,15,-1,6,-4,-9,-5,-3
4574,19,1,-3,4,2,10,-8,5
4574,-10,-2,-1,4,14,20,15,26
4576,0,-2,1,-3,-5,17,9,4
4576,1,-10,-2,-5,4,-14,-8,-3
4587,-33,-9,-3,-2,-30,-52,5,11
4587,-51,8,-4,-1,-5,-1,-23,-30
4597,1,1,-5,1,8,-8,-9,21
4597,-29,-6,-4,-8,2,19,10,9
4612,22,3,6,2,21,81,12,-11
4612,23,-3,-8,-7,9,-10,20,7
4613,23,-4,3,7,-30,-30,-11,1
4613,53,13,-1,-5,-16,-29,-16,-16
4634,11,-3,-3,-2,8,14,-4,1
4634,24,-5,5,1,6,1,3,-15
4636,-5,4,2,0,6,2,1,-7
4636,-29,-6,-3,-1,0,15,-2,64
4648,-9,-2,-2,3,2,-51,8,1
4648,-13,0,2,-7,-6,16,-12,-11
4657,11,-14,-6,-4,-5,-9,6,2
4657,23,6,2,5,-3,-1,-12,-23
4679,20,2,-3,1,12,12,-1,-1
4679,13,-2,2,5,-8,-24,5,9
4680,10,1,-3,-3,-7,-22,-1,2
4680,-8,-18,-6,-14,-17,-8,2,-25
4694,3,4,-2,-7,0,-28,-13,3
4694,-20,1,0,-3,9,17,3,-21
4696,-23,0,-2,7,7,11,-11,12
4696,-15,-1,4,4,13,-5,3,0
4708,-8,-3,2,-4,-14,3,5,-22
4708,-8,-2,0,-2,3,37,8,81
4717,-20,-9,-4,0,4,-6,7,-6
4717,8,-3,-3,-5,-1,-16,-22,-7
4730,-8,3,-5,-2,6,39,-1,-11
4730,2,4,4,10,-13,-40,-3,-17
4739,-8,-1,0,-7,1,28,-3,-26
4739,3,0,-3,2,-4,-14,14,35
4753,-13,-9,-3,0,-8,4,-16,3
4753,2,-5,-3,-3,-6,-3,7,-7
4761,12,2,3,1,17,16,5,-4
4761,-10,-1,-4,1,-3,2,-4,-24
4767,-27,-2,-2,-3,-1,3,-1,11
4767,9,4,4,-1,2,31,6,2
4784,-10,0,0,5,-4,-29,-3,3
4784,2,-6,3,-4,2,-19,12,-6
4791,11,8,0,-5,-9,-18,-14,-2
4791,1,-4,-4,2,-9,-19,-17,-13
4793,-7,-1,3,2,15,47,15,7
4793,0,-2,-4,-3,3,14,5,-4
4814,11,-6,1,0,-9,-13,3,0
4814,0,3,-2,-9,-10,-18,-5,-14
4815,0,-6,-5,-1,-4,-2,-20,-1
4815,9,15,6,6,6,15,11,5
4828,0,-1,-1,0,22,41,7,-14
4828,-7,-3,3,-3,-16,-35,5,1
4837,-5,-2,-5,1,-17,-31,-20,2
4837,-1,0,-7,-15,-8,-10,-12,-12
4851,0,-9,2,9,8,23,5,-2
4851,8,-3,2,9,19,31,5,-4
4853,-5,4,1,-1,5,3,18,6
4853,-3,-4,-2,4,0,30,-6,-2
4874,3,6,-1,-11,-19,-46,8,7
4874,-11,-7,-6,-6,-10,2,-26,-6
4875,-6,4,0,-3,-6,-42,-4,1
4875,-3,1,-1,1,0,23,-1,-4
4887,3,-7,-3,1,13,23,9,6
4887,10,0,1,5,10,1,12,0
4912,9,4,1,-8,-5,36,6,-6
4912,4,2,-1,-9,-16,-18,-12,-5
4912,10,8,5,15,-9,-81,-10,13
4912,7,-2,-11,-4,-2,-1,-6,-6
4915,6,-4,2,-4,16,42,14,-1
4915,3,-1,2,4,3,-6,-5,-14
4934,-1,-4,1,-8,-10,-2,14,-1
4934,-4,-5,-1,-2,-2,-10,-24,-7
4935,-6,12,-3,-5,-5,-37,-10,-7
4935,-7,-5,-1,0,-1,30,4,-5
4947,-7,1,-1,-2,7,37,-1,-1
4947,-3,-2,1,1,-7,-40,7,1
4957,-1,-3,-2,1,5,32,4,14
4957,-4,1,-2,0,0,-21,-3,2
4978,-4,0,-5,-4,-11,-16,-4,0
4978,-8,-4,-2,1,6,16,-5,1
4981,5,1,-1,-3,1,-6,-3,0
4981,-2,-5,4,-1,5,10,15,5
4993,-2,6,-7,1,-11,-50,-2,2
4993,-2,5,2,-6,-9,-12,-12,-6
5001,-9,-11,3,10,1,7,7,-1
5001,-1,-3,-4,-4,-3,-11,10,-7
5016,3,-5,1,-2,20,88,-2,2
5016,-2,-1,2,-7,-8,-39,8,2
5018,-5,-9,-4,2,-8,-17,-19,-11
5018,-1,8,-4,-9,-14,-25,-17,7
5032,0,-3,-3,-2,1,-2,-2,0
5032,2,-8,-4,7,16,45,11,3
5033,5,-1,3,0,12,34,10,3
5033,-1,1,1,4,-11,-44,-1,-10
5054,1,3,-2,-3,-5,-6,-13,-9
5054,0,1,4,-1,8,28,-1,4
5056,2,7,-3,-4,-9,-34,15,13
5056,3,-3,-3,8,1,34,0,-4
5067,1,-3,5,1,11,3,-17,-1
5067,-1,-1,-3,-1,-6,-36,15,-7
5084,-4,-8,-5,-7,-27,-33,-31,0
5084,2,-3,-4,1,4,0,-7,0
5091,-4,-5,-4,0,5,16,5,0
5091,-5,-5,-3,1,9,25,-1,-5
5105,2,6,2,-1,2,0,5,-2
5105,-2,-1,-3,-3,0,-8,8,3
5114,-3,-1,1,4,12,58,9,1
5114,-3,-22,-5,0,-3,-38,-1,0
5115,3,9,2,2,-16,-22,-12,-2
5115,0,1,-2,-3,-1,10,-16,-10
5127,1,-1,-2,-2,3,-6,0,-1
5127,7,8,1,-6,-1,-5,-1,14
5136,-5,-7,7,5,1,0,17,0
5136,-11,8,-5,8,-12,-36,-17,-5
5150,-4,-41,-9,7,-9,-11,-10,-4
5150,3,24,3,9,6,19,-3,-8
5157,-2,-5,-3,-2,10,32,3,-3
5157,-7,0,3,-4,7,16,17,3
5174,-8,2,-1,-7,-4,-44,-18,-3
5174,8,5,-2,-5,-14,0,7,2
5175,-4,-15,-7,-6,3,12,-12,-1
5175,5,10,3,1,-2,-5,13,-8
5188,-2,6,-2,-3,-3,1,1,5
5188,-3,-7,-3,-5,0,12,3,-2
5196,-3,8,-1,3,-1,-6,0,-6
5196,-6,-28,-11,-17,5,6,-8,5
5211,9,30,3,2,-5,-10,11,5
5211,1,-3,9,9,-3,15,-9,-4
5218,-4,-7,-4,-3,-7,-38,-6,-3
5218,-2,-10,-2,-2,-1,-2,-12,-7
5234,2,5,-1,-9,2,28,8,2
5234,-5,-6,-7,-4,3,-7,-1,-8
5236,6,11,3,-1,7,-1,2,-3
5236,-1,-1,1,0,-10,-8,10,9
5248,-9,-9,-6,-10,-6,-9,-9,-5
5248,-5,2,-4,-6,-5,-3,9,-4
5257,12,5,3,8,3,2,-8,2
5257,-2,7,2,4,5,0,-3,-8
5270,-2,-3,-2,1,-5,-10,3,-12
5270,-7,-3,-2,-2,-1,9,-7,-14
5280,-5,4,-6,-10,-1,1,2,14
5280,-6,-8,0,-10,-4,3,12,3
5294,3,-6,-2,12,3,17,-10,0
5294,1,-6,-4,3,1,-31,4,-2
5296,8,4,1,2,-2,8,-9,-9
5296,3,-6,-2,2,-1,-1,-5,3
5316,-6,-3,-1,-7,-3,-11,0,-10
5316,-3,0,-3,-1,1,10,11,9
5324,1,-6,-7,-12,-2,0,7,-1
5324,3,11,7,12,2,-9,-4,7
5331,-4,-8,-2,3,-2,-13,0,-1
5331,0,2,-5,-7,-1,9,-7,4
5345,-7,-3,-1,-2,-4,-1,-2,1
5345,6,1,7,2,1,8,7,-9
5354,4,2,-1,-1,6,15,-13,4
5354,3,-7,-4,-8,-12,-21,4,12
5356,-5,-2,-4,-1,1,-6,-6,1
5356,-4,-8,-8,0,-1,-2,-5,-7
5377,-1,-5,4,1,-4,-11,-8,-3
5377,-2,2,-7,-14,2,16,13,10
5378,-9,-24,-6,0,0,3,-5,-9
5378,13,23,4,1,4,7,17,9
5391,25,27,6,3,-4,-23,-14,0
5391,-8,-14,3,11,-1,1,-18,-12
5398,-2,-2,4,-1,-3,-5,1,-7
5398,-10,-14,-8,-5,-2,-1,-6,-4
5421,-4,-1,-4,-10,-2,5,9,-19
5421,7,6,2,5,4,9,15,26
5423,2,-2,0,6,0,-4,-1,7
5423,2,-14,-6,-2,0,0,-23,-5
5437,-14,-6,-3,0,-6,-12,21,10
5437,-1,-29,5,10,-1,0,-16,-12
5438,19,35,9,8,6,8,9,-9
5438,-5,-2,-4,-5,-3,-4,-6,24
5450,-6,3,0,-4,-2,-2,5,0
5450,-10,-4,-6,-4,2,3,-10,-8
5468,-5,-4,0,1,1,4,-1,3
5468,0,-7,-5,-5,-3,-4,-8,-15
5474,-3,9,5,3,-1,2,16,5
5474,-5,5,-11,-19,-8,-5,-10,8
5475,-8,-18,0,2,-3,-5,-3,-1
5475,7,8,8,24,11,5,1,-11
5497,-1,-13,1,3,1,-1,-7,10
5497,7,-12,3,1,2,9,-2,2
5498,3,23,-4,-12,-8,-11,-7,-5
5498,-2,1,-1,-5,-2,-1,-2,-5
5510,-6,-3,-1,1,-1,3,14,0
5510,-2,2,0,0,-1,-5,-11,-13
5527,0,-14,-4,-2,3,1,1,-5
5527,-10,-4,-1,1,0,5,8,-5
5534,5,1,-2,-5,-2,-4,-12,27
5534,5,4,-1,-1,-2,3,4,1
5536,-6,6,2,2,0,4,1,-1
5536,-1,20,-6,-8,-4,0,-3,-9
5557,1,-13,4,2,-3,-13,6,2
5557,-4,34,2,6,2,2,2,-6
5558,11,6,1,-2,2,1,-10,5
5558,8,-4,2,4,2,1,4,5
5579,-7,-5,-2,5,-2,-1,10,-11
5579,-11,-23,-12,-11,-5,-9,-2,1
5580,-4,-10,5,9,2,0,5,1
5580,6,-4,2,-1,0,-3,5,-2
5601,4,-4,-5,-4,-4,-3,-31,-9
5601,-8,2,0,2,3,5,7,-5
5603,-14,-25,-20,-17,-3,0,-1,-6
5603,7,9,8,3,-4,-9,-3,1
5626,-2,-2,3,5,3,0,6,-12
5626,0,-6,-4,-7,-4,-2,1,32
5628,-2,5,-4,-2,-2,-1,-2,6
5628,-15,-31,5,10,4,1,-14,-4
5630,1,21,0,-2,3,3,10,-10
5630,8,11,5,1,-3,0,1,-6
5640,-18,-15,-5,-4,-6,0,5,-1
5640,-10,13,-4,-9,-6,-7,-5,-8
5655,-1,-13,-2,2,-2,-4,-8,-6
5655,6,3,5,10,4,2,-3,-4
5656,4,17,-1,-2,2,4,17,2
5656,-7,-5,0,-5,-5,-7,-12,2
5676,-4,-1,-7,-11,-3,-4,-6,-6
5676,-4,5,-2,-1,1,-1,1,-10
5679,-3,-5,2,11,6,-1,0,-9
5679,2,8,-7,-4,-1,-4,7,20
5690,4,-2,8,4,0,4,16,3
5690,1,-10,-5,-12,-9,-6,-11,-5
5699,-4,0,10,9,0,-2,-13,-10
5699,-1,2,-4,-1,0,2,9,6
5721,-4,-20,-17,-15,-5,-9,-14,3
5721,1,0,11,3,0,-2,-8,-16
5723,1,-4,-3,-5,-6,-3,-3,-9
5723,-2,-5,-3,-6,0,1,10,47
5746,-2,-5,-1,0,-2,3,-3,-10
5746,-1,-4,-4,1,-1,5,4,-5
5747,-1,-3,-14,-18,-7,-5,-22,-6
5747,3,8,8,7,1,0,10,-13
5750,9,11,3,11,7,2,3,10
5750,3,36,-3,-7,-1,-5,-7,-4
5759,11,-8,9,15,7,7,7,7
5759,-5,-18,-14,-13,-11,-3,7,14
5774,-11,-4,1,-8,-10,-11,-8,-24
5774,-16,-4,1,6,-2,-3,-7,-13
5775,-3,-10,-1,-6,-1,-1,-4,2
5775,-7,-6,-2,-4,5,2,-8,-26
5797,-19,2,2,-2,6,8,15,43
5797,-6,-6,-15,2,2,-3,-14,-74
5798,6,6,2,1,2,0,15,103
5798,0,3,-1,10,12,7,1,-53
5810,12,6,7,-11,-11,1,3,10
5810,3,3,1,-1,-2,-4,1,4
5819,-7,-2,-2,-3,-4,-8,-8,-55
5819,4,4,2,-5,-5,-9,-10,-35
5834,8,1,-8,2,-3,-1,-6,12
5834,-2,0,-5,-5,-6,-2,-2,-44
5836,10,7,16,4,-2,-1,12,28
5836,-8,-1,0,0,-4,-4,0,57
5856,-9,3,4,3,3,-1,-5,-31
5856,11,-8,-11,0,2,7,10,84
5858,-6,10,0,5,15,-1,2,-29
5858,9,-3,0,-7,-27,0,-2,-11
5870,0,1,8,-2,6,-1,-13,-51
5870,10,0,6,13,21,5,12,44
5879,7,5,-2,-18,-28,-2,4,60
5879,12,5,-1,-9,5,0,-3,-1
5894,7,-6,-8,10,-2,1,-1,-19
5894,-1,-2,5,-12,-7,-4,-2,-11
5895,-6,0,3,8,12,2,0,-24
5895,-9,-4,-11,-1,2,-2,-2,-9
5917,-4,-3,-2,-3,-2,1,-2,13
5917,5,-2,2,6,10,2,0,0
5918,-7,-2,-5,1,-4,0,0,-6
5918,-3,-1,0,-3,-2,-4,-3,-4
5930,-22,-4,-7,-4,3,-2,-8,-42
5930,31,6,9,2,-3,3,13,45
5939,-2,-1,-20,-5,-5,-2,-5,-48
5939,-2,-3,9,3,3,1,-2,-31
5954,4,2,1,1,1,0,2,40
5954,-15,-7,-4,-3,-8,-3,-3,-20
5955,-4,-2,-5,-1,-2,0,-3,-53
5955,8,1,0,4,8,2,6,54
5976,-6,-3,-3,-3,-3,0,-7,-52
5976,4,-4,-1,-4,-6,-4,-5,-35
5978,1,2,1,-1,1,-3,-2,-17
5978,-6,-2,0,2,0,-1,-6,35
5990,1,2,-3,-2,-5,-2,17,12
5990,-10,-1,-1,-1,-2,0,-17,-37
5999,-5,-4,2,0,-1,-4,21,15
5999,4,-2,-1,-1,-1,2,1,-15
6013,8,-1,-7,-5,-4,-11,0,30
6013,-11,0,2,3,4,4,-11,-26
6021,1,-1,1,0,-1,0,-5,0
6021,-6,0,0,2,0,0,5,-2
6037,3,-2,-4,-2,1,-2,-9,17
6037,-13,-3,-1,-2,-3,-5,8,27
6038,9,2,2,1,2,1,-9,-21
6038,-3,-2,-3,-3,-5,-5,-11,-24
6050,8,4,1,1,2,2,12,4
6050,-2,-4,0,-1,-1,1,1,12
6065,-4,-3,-1,-2,-1,-1,-4,6
6065,1,-1,-2,-1,1,-2,2,6
6082,-3,-3,-2,-1,-2,-1,-12,-22
6082,-2,1,1,-1,-3,0,7,13
6083,-4,-3,0,-1,-3,-1,-1,10
6083,-7,-3,-1,-1,-2,-1,-1,-15
6096,-2,1,1,-1,-1,2,0,3
6096,1,0,-1,0,-3,0,-1,-15
6098,1,-1,0,-1,0,-1,-8,6
6098,3,1,-2,-1,-2,-6,-1,-5
6110,-3,-1,-1,0,-1,1,4,6
6110,1,-2,-2,0,1,0,1,7
6119,-9,-1,0,-1,-3,-3,-4,-4
6119,3,1,1,1,1,4,2,-3
6134,1,-1,-1,-1,1,0,-2,4
6134,-2,-2,-1,0,-2,-1,-4,3
6140,1,0,0,0,1,0,6,-7
6140,-2,-2,-1,-1,0,-3,-2,-20
6164,2,0,1,-2,0,2,1,16
6164,-3,-2,-1,-1,-1,0,0,-1
6165,-4,-3,-3,0,0,-2,-1,7
6165,2,1,-1,1,-3,-2,-2,3
6170,1,-2,-3,-2,-2,-3,-5,-4
6170,1,1,-1,0,-3,-1,2,3
6179,-1,-1,-1,0,-2,-1,1,8
6179,3,0,0,-2,0,0,4,6
6194,-6,-1,-2,-2,1,1,-5,-5
6194,3,-1,0,-3,0,-2,3,0
6199,-5,0,1,-2,-1,0,-1,-7
6199,1,-1,0,-2,-2,-2,-4,-6
6216,-1,-1,-1,0,0,1,-6,-8
6216,-2,-1,-2,-1,-1,-1,10,6
6218,-3,-2,-1,-1,0,0,0,6
6218,-3,-1,-1,-1,2,-3,-2,1
6238,2,0,-2,-1,1,0,-1,5
6238,-2,-2,-1,-2,-1,-1,-8,-16
6239,1,-1,-2,-1,1,-2,-2,-5
6239,0,-1,0,0,-1,1,-3,2
6253,1,-1,1,0,-2,0,-4,-10
6253,-2,0,1,3,-1,-1,0,-1
6260,3,0,-1,1,-1,0,2,2
6260,-4,-3,-3,-1,-2,-2,-1,-2
6276,1,1,-2,-2,-1,-3,-1,3
6276,-3,-2,-1,-2,0,0,-3,1
6278,2,-1,-1,-2,-1,-1,0,1
6278,-3,-1,-1,-1,-2,-2,-2,-7
6299,-2,-3,-1,-2,0,-2,2,0
6299,0,-3,0,0,-1,-2,1,1
6300,-3,-1,-1,-1,-1,1,-2,-4
6300,6,-1,-3,-2,-1,0,1,1
6314,-1,-1,0,0,0,-1,1,2
6314,0,-1,0,-2,1,-1,-4,-1
6320,-3,-2,-2,-2,0,1,-3,-1
6320,-4,-1,-1,-1,0,-1,1,0
6337,2,0,0,1,-2,0,1,5
6337,-3,0,-1,0,-3,0,-3,-3
6339,4,0,1,1,-4,0,-1,0
6339,-5,-2,0,-3,0,0,-1,-1
6359,-1,-3,-3,-2,0,-1,0,-2
6359,-3,-1,-2,-2,0,-2,-2,-1
6360,-2,-1,-1,-2,-2,-2,-1,-1
6360,-3,-1,-1,-1,-3,-1,0,-4
6372,-2,-1,-3,-1,-3,-2,-1,1
6372,-3,-2,-2,-1,-1,0,-1,-1
6382,-1,-2,-2,0,0,-1,-2,-1
6382,-1,-1,0,0,-1,-1,-2,-1
6396,-2,-1,0,-2,-1,-1,0,-1
6396,1,0,1,-2,-1,-1,1,-2
6398,1,0,-1,-2,-2,-3,0,-2
6398,1,-2,-3,-1,-3,-1,0,0
6419,2,1,0,-1,-3,0,1,1
6419,-3,-1,-1,0,-2,-2,-4,0
6420,5,2,1,-1,0,-2,-3,1
6420,-4,-1,-2,-1,-1,1,-1,-2
6433,-3,-1,0,-2,0,1,0,0
6433,1,0,-2,-1,-1,-2,-1,0
6441,-5,-2,-2,-1,-1,1,-2,-2
6441,-2,-1,1,0,0,1,-2,1
6457,2,0,0,1,0,-1,-1,0
6457,-2,-2,-1,0,-2,1,-2,-1
6458,-2,-3,-1,-2,-2,-2,-2,-1
6458,-1,0,1,-1,-1,0,0,0
6479,-2,-2,-2,-2,-1,-2,-1,0
6479,0,-1,0,-2,0,-1,-1,-1
6481,-1,-1,-3,-2,-1,-4,-3,-2
6481,-3,0,-4,-1,-2,-3,-2,-4
6501,-4,-2,-2,2,-2,-1,-1,-3
6501,3,0,-3,-2,-1,-1,0,2
6503,1,0,1,0,-1,0,0,-2
6503,-2,-1,-1,-1,0,-1,3,-1
6516,1,-2,0,0,1,0,-1,-2
6516,0,-2,-2,1,-2,-1,-2,-2
6518,-3,-2,-1,-1,-2,0,0,-1
6518,-3,-1,-1,1,-2,-2,-1,2
6539,1,-1,-1,1,-1,-3,-1,2
6539,1,-1,0,0,-1,-2,1,1
6541,-2,-1,-1,-1,-1,-3,-3,2
6541,4,0,-1,-1,0,-1,-3,0
6553,-1,-1,0,-2,0,1,-1,0
6553,-1,-1,0,-2,0,0,-1,-1
6561,-1,-1,0,0,0,1,1,-2
6561,1,-2,-1,-1,0,-3,0,0
6577,1,1,0,-2,-2,-2,-2,-1
6577,-1,-1,1,-1,1,-1,-1,0
6578,1,-2,-2,-2,0,-2,-1,-1
6578,5,0,0,-1,-2,1,-1,0
6599,-2,-1,-1,0,-2,0,-1,-1
6599,-1,-1,-1,1,-1,-1,1,-1
6601,-3,0,-2,-1,0,-1,0,-1
6601,-2,-2,-1,-2,0,0,-2,-1
6613,-1,0,0,0,0,-1,-2,-2
6613,-2,1,-1,-2,0,-1,-1,-1
6621,-2,-1,0,-1,-1,-1,-2,0
6621,-1,-1,-1,0,0,-1,-1,-3
6636,-2,-1,0,0,-1,0,0,-5
6636,-3,-1,0,-2,1,0,-2,-3
6638,0,-2,-1,-1,0,-2,1,-1
6638,-2,-2,-1,-3,-1,-1,1,-2
6675,-1,0,-2,-2,1,-2,-1,1
6675,-2,0,-1,-2,-4,-3,-2,0
6676,-4,-1,0,-1,-3,0,-2,0
6676,0,0,0,-1,-2,0,0,1
6677,0,1,-1,-1,0,0,0,0
6677,0,-1,-1,-1,0,0,-2,-1
6682,3,-1,-2,-1,0,0,-1,-5
6682,0,0,0,1,-2,-1,-1,-3
6696,0,0,0,0,0,0,-1,-2
6696,1,-2,-1,-1,-1,0,1,-1
6698,5,0,1,-1,1,-1,0,3
6698,-2,-1,1,-3,-2,-1,0,2
6719,1,0,-2,-1,-2,0,-1,1
6719,-1,0,-2,0,-2,-2,0,-1
6720,-1,-1,-2,0,-1,-1,-2,-2
6720,-3,-2,-2,-1,-1,-1,0,-1
6733,0,-1,0,-2,-1,-1,-2,-1
6733,-2,0,-1,-1,-3,1,-2,0
6741,-4,-1,-1,0,0,-1,-2,-1
6741,-3,-2,-2,0,1,1,-2,-3
6756,-3,-3,-1,-2,-2,-2,-3,-1
6756,-1,0,-2,-1,0,-1,-1,-2
6758,-1,0,-1,0,-1,-2,-1,0
6758,-3,-2,-2,0,-1,-1,-3,1
6779,0,-1,-2,-1,-1,-2,-1,-1
6779,2,-1,-2,1,-1,0,1,-1
6780,0,1,0,-2,-3,1,1,0
6780,-2,0,0,-2,-1,-1,-3,-2
6792,-2,-2,1,-1,-2,-1,-1,1
6792,0,-1,-1,-1,-2,-3,-3,-2
6802,1,-2,-4,0,-2,-1,0,0
6802,0,0,-1,0,-2,-1,0,-2
6816,0,0,-1,0,2,0,0,-1
6816,0,-3,-1,-2,-1,-1,0,1
6822,-2,-1,0,-1,0,-1,-2,-1
6822,-1,-2,-1,-2,-1,-1,0,0
6839,2,1,-1,1,-1,-1,-1,-1
6839,-1,0,-2,-2,-1,-1,-1,0
6840,-2,-1,-2,-1,-2,-3,0,-2
6840,1,0,-1,0,0,-1,0,0
6853,-4,-2,-2,-1,-1,-1,-1,-1
6853,-1,-2,-1,-2,0,0,2,0
6861,1,0,-1,-2,0,0,1,2
6861,-1,-1,-1,-1,-3,-1,-1,0
6876,0,-1,-2,-2,-1,-1,0,-2
6876,1,-1,0,0,-2,-1,-1,-2
6882,-2,-1,0,1,-2,0,0,-1
6882,-3,0,-2,0,0,0,-3,-1
6899,-2,-1,-2,-1,-1,0,-3,1
6899,-1,0,-1,-2,0,-3,-4,-1
6900,-3,0,-2,-1,-1,0,-1,-2
6900,0,1,0,-1,0,0,-1,-1
6913,1,-1,0,-1,-1,-1,0,-1
6913,-3,-1,-1,-1,-2,-2,-1,-1
6921,4,0,1,0,0,-1,0,0
6921,0,0,-1,-1,-1,0,-1,1
6937,2,-2,-2,1,-1,0,0,-1
6937,0,-2,0,-1,-1,-1,0,2
6938,-2,-1,-1,1,0,-1,0,0
6938,-1,-2,0,-1,-1,-2,-1,-1
6959,-2,-1,0,-1,-1,-3,-1,-2
6959,1,-1,-1,-1,0,-1,-2,-1
6960,1,1,-2,-1,-1,0,-2,-2
6960,0,-3,1,0,0,1,1,0
6973,-1,0,-1,-3,-2,-2,-2,-1
6973,0,1,0,-1,0,-3,0,-1
6981,-2,-2,0,-2,-2,-2,-2,0
6981,-2,-2,-1,-1,-1,-2,-1,-1
6995,-4,0,-2,1,2,0,0,1
6995,-1,-1,1,1,-1,-2,-1,0
7003,-2,-2,1,0,1,-2,1,1
7003,-3,0,-2,1,-3,-1,0,-1
7019,-2,-2,-1,-1,-1,1,0,-2
7019,-2,-2,-2,0,-1,0,0,-1
7021,-1,-2,-1,-2,0,0,-3,-3
7021,1,-1,-1,-1,0,1,0,-3
7033,1,-1,-1,-1,-2,-1,-1,-2
7033,-2,-1,-3,0,-1,-1,-1,-1
7042,-1,-1,-2,-1,-2,0,-2,-1
7042,-1,0,-2,-2,-1,-3,-2,-1
7056,-2,-1,1,-1,-1,-2,-2,0
7056,-1,-1,-1,0,-3,-1,-3,-1
7063,-2,0,-1,-2,-2,0,-1,-2
7063,0,-2,-3,0,1,1,-3,-2
7080,-1,0,-3,-1,-1,0,1,-2
7080,0,-2,-2,-1,-1,1,1,-1
7081,0,-1,0,-1,-3,-1,1,0
7081,0,0,-2,-2,-2,-1,1,1
7093,-1,-1,-2,0,-2,-1,-1,-1
7093,-4,0,-1,-1,0,-1,-2,0
7102,-2,-2,0,0,-2,-2,-1,-1
7102,0,-1,-2,-1,-1,-2,-3,-2
7116,0,-1,-2,0,0,-2,-1,0
7116,1,0,0,-2,-1,-1,-2,-1
7130,-1,-2,-2,0,-1,-1,0,-3
7130,-2,-2,0,-2,-2,-1,-2,0
7139,-1,-1,-1,1,-1,-1,0,0
7139,0,-1,0,0,-1,-1,1,-1
7140,-1,-1,-3,0,-1,-1,0,-1
7140,1,0,-1,-2,0,-1,-2,-1
7152,1,0,0,-3,-1,0,-1,-1
7152,1,-2,-1,-2,-1,-1,0,0
7168,-2,-1,-1,-1,-1,-2,-3,-1
7168,-1,-1,-1,0,-1,-1,-1,-1
7175,-1,-1,0,-1,-2,-2,-2,-2
7175,-1,-1,0,-1,0,0,-2,-2
7183,-1,-1,-1,-2,1,2,-1,-3
7183,-1,-2,-3,-2,0,0,0,0
7199,0,0,-1,0,-1,0,-1,0
7199,-2,-1,-1,0,-2,-2,0,-1
7201,0,-1,-1,-2,-1,-3,-1,0
7201,-2,0,0,-1,-2,-3,1,-2
7221,-2,-2,-2,-2,-2,-2,0,-2
7221,0,1,-2,-2,0,0,-1,0
7223,1,-1,0,-2,-1,0,-2,0
7223,-1,0,-1,-2,-2,-1,-2,2
7236,1,-1,-1,1,-1,-1,-2,1
7236,0,0,-2,0,-1,-1,-1,-2
7243,0,-1,-1,1,-1,-2,-1,-2
7243,-1,-2,-3,0,-2,-1,-3,-2
7260,-1,0,-2,-1,-1,-2,-1,-1
7260,0,-3,-1,-1,-1,0,2,0
7261,-2,-2,-1,-2,0,0,1,0
7261,0,-1,-3,-1,-1,-3,0,-2
7281,-1,-1,-1,-2,-1,0,-2,0
7281,-3,-2,-2,-1,-3,-3,-2,1
7282,-1,1,-1,-1,-3,0,-1,-1
7282,-1,-2,0,1,-2,0,-1,0
7296,0,0,0,-2,-1,1,0,-1
7296,2,1,0,1,-1,-1,0,0
7303,-3,-1,-1,0,-1,-1,-2,0
7303,1,-1,0,-1,0,0,0,-1
7318,-2,-2,0,1,0,-2,-1,-1
7318,-2,-2,-1,1,-1,-1,0,-2
7325,0,-2,-1,0,-1,0,-1,-1
7325,0,0,-1,0,-1,1,0,-1
7341,-3,-2,-1,-1,-3,-1,-2,0
7341,-1,-1,0,-2,0,-1,-1,-2
7343,1,-2,-2,-1,0,-1,-1,-2
7343,-2,1,-1,-1,1,-1,-1,-1
7355,-1,-2,0,-1,1,-1,0,-1
7355,-3,-1,-2,1,1,-1,-1,-1
7363,1,0,0,0,-1,0,-1,-1
7363,-1,0,-2,-2,-2,-1,-1,-1
7379,-1,-2,-2,0,-1,-1,0,0
7379,-1,0,0,-1,-1,-2,-2,-1
7385,-4,-1,-1,-1,-1,-3,-2,-1
7385,2,-1,0,1,-2,-1,-1,1
7402,-1,0,-1,-1,-3,-1,-2,-2
7402,0,-2,-1,-1,-1,0,-1,-3
7403,0,0,0,0,0,-1,1,-1
7403,-1,-2,0,0,0,-1,-1,-1
7415,-2,-2,-2,-1,-1,-1,-1,-1
7415,-1,-2,-1,-1,-2,-1,-2,2
7424,-1,-1,-1,-2,-1,-1,-3,0
7424,-1,0,0,-2,0,1,1,-1
7440,2,0,-2,-1,-1,0,1,1
7440,-1,0,-2,-3,0,0,0,0
7441,1,-1,0,-1,-1,-1,-1,0
7441,-1,-3,-2,0,-1,0,-3,-1
7470,-2,-2,-1,-2,1,-1,-2,-1
7470,0,-1,0,-1,-2,-1,-1,-1
7471,0,-1,-1,-1,-1,-2,1,0
7471,-1,0,0,0,-1,-2,2,-1
7475,-2,-1,-2,0,-2,0,-1,0
7475,0,-2,0,0,0,-1,-3,-3
7483,-6,-1,-3,-1,0,0,-2,-1
7483,-2,0,-1,-4,-2,-2,-1,-1
7498,-1,-1,-2,-3,0,-2,-1,-2
7498,-1,0,-1,-2,0,1,1,1
7499,-1,-2,0,0,-1,-2,-1,-2
7499,-1,-1,0,-1,-1,-1,-1,-1
7520,0,1,-2,1,-2,0,1,-1
7520,-2,0,-1,-1,-1,-1,-1,-1
7521,0,-2,-3,-2,-2,-3,1,0
7521,-1,-2,-1,-2,-3,0,-1,0
7535,0,0,-1,-1,1,1,0,-2
7535,1,-1,-3,0,-2,0,0,-2
7544,2,0,-1,0,-1,-1,-2,-2
7544,4,-1,-1,2,0,-3,-1,-1
7558,0,0,-1,-1,-1,-2,-1,-2
7558,-3,-1,-2,-1,-1,-1,1,0
7559,-3,0,-2,-2,-2,0,0,-1
7559,-4,0,-2,-2,-1,0,-5,-2
7580,-1,-2,1,-2,0,-2,-3,0
7580,0,-1,0,-2,-3,-1,-2,-2
7582,-2,-1,-1,0,-1,0,1,-2
7582,-3,-1,-1,-1,0,-3,2,-2
7596,5,1,1,0,0,1,1,0
7596,2,-1,-2,-2,1,-2,-1,-1
7602,-3,0,0,0,0,-1,-3,-1
7602,2,-3,-1,0,0,-2,-2,0
7618,-3,-1,-1,-1,-1,0,-3,-2
7618,-2,-1,0,1,-2,0,-2,-2
7619,1,-1,-1,0,-2,-2,-2,-1
7619,-4,-1,-1,-2,-1,0,-2,1
7641,-2,-3,0,-3,-2,-1,1,-1
7641,-1,0,-2,-1,-2,-2,-1,-1
7641,-3,-1,-2,-2,-1,-2,1,0
7641,0,-1,-2,0,-1,-2,0,-2
7663,0,0,-1,-1,0,0,-2,-2
7663,2,0,-1,-1,0,-1,0,-2
7664,-1,-1,0,-1,-1,-1,0,-3
7664,-1,-1,0,0,-2,0,-2,-1
7686,-1,-1,-1,-1,0,0,-3,-1
7686,-3,-2,-2,-1,0,-1,-1,-1
7688,0,-1,-1,-2,0,-3,-1,0
7688,-1,-1,0,0,0,-2,0,-1
7701,-2,-1,-3,0,-2,-3,1,-1
7701,-3,0,0,0,-2,-1,1,-1
7702,-2,-1,-1,0,-2,-1,0,-2
7702,-1,0,-1,-1,1,0,0,-3
7715,-3,-2,-2,-1,-1,-1,-3,0
7715,-2,0,0,-2,2,-1,0,0
7723,0,-2,-1,-1,0,0,-3,1
7723,3,-1,-2,-2,-1,1,0,0
7738,-2,0,0,-1,-1,-1,-2,-3
7738,0,-1,0,-1,-1,-1,-1,-1
7739,0,-1,1,0,-1,-1,-3,0
7739,2,0,0,-1,-2,-1,2,-1
7760,0,0,-1,0,-2,-1,1,0
7760,-2,-2,-1,-2,0,-2,-2,-2
7761,-1,-1,-1,-1,-2,-2,-1,0
7761,-2,-2,-2,-1,-1,0,-3,0
7784,-2,-1,-2,-2,0,0,-3,-1
7784,-3,0,1,0,-4,0,-3,0
7784,-3,-2,-1,1,-2,0,-2,-2
7784,3,0,-1,0,-1,-1,-1,-2
7798,-1,-1,-1,1,0,-1,0,0
7798,-2,-1,-2,-1,0,-3,0,1
7799,0,0,-1,-1,0,-1,-3,-1
7799,-1,-1,0,-1,-2,-4,-3,-1
7821,0,-1,-1,-1,-3,-2,-2,-1
7821,-2,0,0,-2,-1,0,-1,-4
7821,0,-1,-2,-1,-1,-1,0,0
7821,-2,-2,-3,-1,-1,0,-3,0
7844,-2,-1,0,-1,-1,1,-2,-2
7844,3,-1,-1,-1,0,0,0,1
7845,-1,0,0,-1,0,-2,1,-2
7845,-3,-3,0,-3,-1,-1,1,-2
7858,-2,-1,-1,-2,-2,-1,-1,-2
7858,-2,0,0,0,-2,-1,-3,-1
7858,-2,-1,-1,-1,-2,-1,0,1
7858,1,-1,-1,-1,-3,-1,0,0
7889,0,-1,0,0,-1,-1,-4,1
7889,0,0,-1,1,0,-3,-3,-1
7890,1,0,-3,0,-2,-1,0,-2
7890,3,1,0,0,0,-1,-1,0
7895,-1,-2,20,4,1,0,2,-2
7895,-2,-3,-15,-12,-2,0,1,-2
7904,0,-1,0,-2,-1,-1,-1,-1
7904,-2,-2,-1,-2,0,-1,-1,-1
7918,0,0,0,-1,0,-1,0,0
7918,1,1,1,3,-3,-2,-1,1
7918,-2,0,-2,-2,0,-1,0,-1
7918,-6,-2,-1,0,1,0,-3,-1
7941,1,-1,-6,-3,-1,-4,-2,-1
7941,-1,-2,2,0,-2,0,-2,0
7941,-1,-2,-4,-1,-1,-3,-1,0
7941,-4,-1,3,0,1,0,-2,-1
7965,-1,-1,-4,-1,-1,-1,-2,-1
7965,-2,-2,-1,0,0,-1,-2,-1
7966,-1,-2,1,1,0,1,0,0
7966,-1,-3,1,-2,0,0,1,0
7978,0,-1,-4,-1,-2,-2,1,-2
7978,0,1,-1,0,-1,0,-1,-3
7979,-1,-1,0,-1,0,0,0,-2
7979,-3,0,-3,-2,-2,-1,-2,-2
8001,-2,-2,-6,-3,0,0,-2,1
8001,-2,0,1,1,0,1,0,1
8002,1,-1,0,-1,-2,-2,-1,1
8002,-3,-2,-2,-1,-1,-3,-1,-2
8015,0,0,0,0,1,-1,1,-1
8015,0,-1,0,-1,-1,-2,2,1
8023,-1,0,-1,-3,0,0,-2,-2
8023,0,-1,-1,0,-2,-1,-1,-2
8038,-1,0,-2,-1,-1,0,1,1
8038,0,-1,-2,-1,0,-1,1,0
8039,-1,0,-2,-1,0,0,-1,-2
8039,-1,0,-1,-1,0,-2,0,0
8060,1,-1,-2,-1,0,0,0,0
8060,2,0,-1,-1,1,0,1,0
8061,-1,-2,0,-2,-1,1,-1,0
8061,0,-2,-1,-1,-1,1,0,0
8084,-3,-1,-2,0,-1,-2,0,1
8084,-2,-2,0,0,-3,-1,0,-1
8084,0,-1,-2,-1,-1,-2,-1,-1
8084,1,0,0,0,0,-1,-2,-1
8098,1,-1,-2,-2,0,0,-2,-2
8098,-2,-2,2,-1,-1,-2,-2,-3
8099,0,0,0,-1,0,-2,-4,0
8099,-1,0,0,0,-2,1,0,0
8121,2,0,-1,0,-3,-1,-2,1
8121,-3,1,1,-1,-1,-1,-4,-2
8122,-2,-2,-1,-2,-2,0,0,0
8122,-1,0,-1,0,-2,-1,1,-1
8144,-1,0,-2,-1,-2,0,-3,-4
8144,-1,-1,-2,1,-3,-2,2,-2
8144,-1,-1,-1,-1,-1,-2,-1,-3
8144,-2,-1,-1,0,0,1,0,-2
8158,-2,0,-1,-2,-1,-1,3,-2
8158,-1,-1,-1,0,0,-2,-1,-1
8159,-2,-1,-1,-1,0,0,-2,-3
8159,0,-3,-2,-2,-1,-3,-2,-1
8181,-3,-1,-2,0,-1,-1,-1,-4
8181,-2,-2,-2,-3,-1,-2,0,-2
8181,0,0,-2,0,0,-1,1,0
8181,-1,0,0,0,1,-1,0,-1
8203,0,-3,0,-2,0,0,-2,-1
8203,0,-1,-2,1,-1,1,-3,-1
8204,-1,1,-1,-1,0,0,-3,-1
8204,1,-1,-1,-1,-1,0,-2,-1
8218,0,-1,1,0,0,0,-2,0
8218,0,-1,0,0,0,-1,-1,0
8219,0,0,-1,0,1,-1,1,-1
8219,-3,-2,-2,0,-1,-2,-2,-2
8241,-2,-1,-1,0,-1,-2,-2,0
8241,1,-1,0,-1,-1,-2,-3,-1
8242,-2,-2,-2,-1,-4,-1,-3,0
8242,0,-2,-2,-1,-3,-1,-3,0
8263,-1,-1,-2,-2,1,-1,0,-1
8263,0,-1,-1,-1,-2,-2,1,1
8264,0,-1,0,0,-1,-2,0,-1
8264,-1,0,0,-2,-2,1,3,-1
8278,-2,-3,-1,-1,-2,-1,-2,0
8278,-1,-2,-1,0,0,-1,0,-1
8279,-2,-3,0,-2,0,-2,-2,-1
8279,0,-1,-2,-1,0,-2,-4,0
8301,0,0,-2,-1,-1,0,-1,-1
8301,-2,1,-1,-1,-2,0,-2,-2
8302,-5,-1,0,0,-2,1,-1,-1
8302,1,0,-1,-1,0,0,-1,-1
8323,-1,-2,-2,0,1,-1,0,0
8323,0,-1,-3,-2,-1,-2,1,0
8324,1,-1,-1,-1,-1,-3,0,-1
8324,-1,-1,0,0,-2,-1,-2,0
8338,2,0,-1,0,-2,2,-2,0
8338,-4,-2,0,0,-2,-1,-1,0
8339,2,0,-1,0,-1,-1,-1,-1
8339,0,-1,-1,-2,-1,-2,0,-2
8360,-4,-2,-1,-1,0,-2,-2,-2
8360,-2,-3,-1,-2,-1,-1,-1,-3
8362,-2,-1,-1,0,-1,0,-2,1
8362,10,2,-2,-1,-1,1,0,2
8384,-1,0,-1,-1,-1,-1,-1,-1
8384,-1,-1,0,-1,0,-2,-2,-1
8384,0,1,-1,0,-1,-1,-1,-1
8384,-4,-2,-1,-1,-2,0,-1,-2
8398,-1,0,-1,-1,-1,-1,-2,-1
8398,-1,0,-1,-2,0,-1,0,-1
8398,-4,0,-3,-2,-1,-1,0,-2
8398,-2,-1,-2,1,-1,-1,0,-2
8421,2,-2,0,-1,-1,-1,2,-2
8421,-2,-1,-3,0,-1,-1,-2,-3
8422,0,-2,0,-2,0,-1,-2,-4
8422,-2,-2,-1,-2,0,-2,0,0
8443,-3,0,-1,-2,-1,-1,-2,-2
8443,0,-1,1,-1,0,-1,2,6
8445,-1,-2,-1,-4,0,0,-4,-9
8445,-3,-2,0,0,0,0,0,-5
8458,1,-1,1,0,-1,0,1,3
8458,1,-1,-1,0,-1,1,-2,0
8459,-1,-1,-1,1,0,0,0,6
8459,-9,-4,-2,-1,-1,-3,-4,-1
8489,1,0,0,1,0,-1,-2,-2
8489,-1,-1,0,0,0,0,1,2
8495,4,0,-2,-3,-3,-2,0,-1
8495,-2,-2,-1,-3,-3,-1,-1,-4
8503,-1,-1,-2,-1,-5,-1,-6,-2
8503,0,0,-1,-1,0,1,1,-2
8504,0,0,-2,0,-1,-1,2,0
8504,4,1,-1,0,-1,0,0,1
8519,1,-2,-2,-3,0,1,-10,-4
8519,6,1,1,-1,2,-1,-4,4
8520,-2,-2,0,0,1,0,16,2
8520,-2,-1,-2,-2,-1,-2,2,1
8541,1,0,-1,0,-1,-3,0,3
8541,0,-1,-2,0,-2,0,-9,-8
8541,-4,-2,-2,0,0,0,-5,8
8541,7,2,0,1,0,0,-4,-11
8563,-3,-1,-2,-2,-1,0,3,-3
8563,-4,-2,-2,0,0,0,-1,-12
8564,-5,-3,0,0,-1,-1,0,3
8564,-4,-1,0,-1,0,0,2,6
8578,5,1,-4,-2,-3,-3,-1,0
8578,0,-2,-3,-1,-1,-2,4,-1
8579,-2,0,0,0,-1,-2,-5,-4
8579,0,-1,-2,-2,-2,-2,-4,1
8600,2,2,1,0,1,0,2,0
8600,2,0,-1,-1,-2,0,0,1
8602,1,-2,0,-2,-3,-1,-2,-10
8602,0,0,1,0,-1,0,-2,2
8624,-1,-2,-2,1,-4,-1,0,-9
8624,-8,-4,-2,-2,-3,-2,1,16
8624,-3,-2,0,2,0,-2,-7,-10
8624,-1,0,0,-1,-1,-1,0,-5
8638,-6,-2,2,1,1,1,2,-1
8638,-13,-6,-21,-3,-3,-4,-7,-8
8639,4,-2,4,-1,-1,1,1,3
8639,-6,0,11,1,-1,-1,-2,-1
8661,0,0,0,-1,0,0,0,0
8661,3,0,-2,-2,-1,-2,-2,3
8661,1,0,-1,0,0,-1,0,-3
8661,0,-1,-10,-1,-1,0,-3,-5
8684,-4,-1,3,-2,0,0,0,1
8684,-8,-4,9,0,-2,-3,0,-5
8684,1,-1,-4,-2,-1,-2,-4,8
8684,-3,-2,-1,0,0,0,0,-11
8698,1,-2,-6,0,-3,-2,-2,0
8698,10,1,1,-1,0,-2,1,4
8698,2,-1,2,-1,1,1,-3,-11
8698,-3,-2,-4,-2,-2,-2,0,6
8721,-1,1,-2,0,-1,1,-1,2
8721,1,0,1,-1,-2,0,2,-3
8722,-2,0,-5,0,-1,-3,-3,-5
8722,-1,2,20,1,1,-2,-1,2
8743,15,2,-4,-2,-2,-2,-2,-5
8743,0,-2,11,4,2,0,0,5
8744,-3,1,-4,-2,-2,0,1,1
8744,7,5,4,0,1,1,0,-2
8757,-5,-24,-13,-3,-2,-1,-2,-1
8757,4,4,-5,-3,-1,1,2,18
8767,5,0,-15,-4,-2,0,-5,-4
8767,-2,4,4,1,1,-2,-4,-28
8780,-18,-8,9,-3,-4,-3,5,32
8780,-2,-3,-9,-2,-1,1,-3,-31
8781,-14,-6,-2,-1,2,-1,-1,5
8781,7,7,7,1,0,1,3,25
8803,3,1,2,0,0,-1,-2,-11
8803,-13,-5,-6,-3,-3,-2,-4,-8
8804,3,3,8,-1,-2,-4,-4,-4
8804,-5,-8,-28,-4,-4,-1,0,-1
8818,-6,-2,8,0,-1,0,-3,-19
8818,-5,0,3,3,0,2,8,27
8825,6,-3,0,-4,-5,-5,-3,8
8825,10,1,-8,-1,1,1,4,0
8841,-1,2,-9,-1,2,0,2,-3
8841,2,2,0,0,-2,-5,-9,-13
8841,-15,-6,-3,0,-1,0,7,11
8841,7,-2,5,1,-1,-1,-8,-30
8864,-4,6,9,0,-3,-3,-5,-15
8864,-7,8,0,0,1,1,-1,5
8864,14,-13,-6,-1,-1,0,4,14
8864,-6,-1,2,-4,-4,-2,-2,22
8877,4,0,-7,-1,1,1,0,5
8877,6,5,21,1,-3,-5,-5,-32
8886,-4,-1,5,-1,-1,-2,1,-19
8886,-11,-6,-6,-3,0,1,0,0
8909,29,6,-5,2,2,2,1,16
8909,-1,-3,-7,-4,-1,-1,5,13
8909,-8,0,0,1,-1,-2,-8,-37
8909,6,-2,6,1,-2,0,1,-9
8923,-13,1,-3,-2,-1,-2,-6,0
8923,19,2,2,1,0,0,1,-5
8924,0,4,4,2,0,1,-2,3
8924,-1,-4,-11,-2,-3,-3,-1,6
8938,-4,1,0,-2,-1,0,1,8
8938,-3,-2,-4,0,0,1,1,1
8946,-14,-6,-4,-2,-2,-2,-7,-6
8946,0,0,-3,-1,-1,-1,1,18
8960,8,2,1,0,2,-2,1,-11
8960,5,-2,2,0,1,1,-1,-4
8962,-4,1,0,-2,-2,-1,-1,10
8962,-7,-5,-20,-2,-2,0,-3,-22
8983,-10,-3,7,-1,-1,-2,-2,-8
8983,9,0,-5,1,2,1,3,10
8984,12,4,3,0,2,1,4,11
8984,-8,-4,-5,-3,-2,-3,-3,-2
8997,-7,-2,-3,-1,-1,0,-2,-7
8997,-8,-4,-4,-1,-2,-2,0,9
9005,-3,3,1,0,-1,0,-1,-5
9005,4,1,6,1,-2,-2,-2,4
9021,-6,-3,-3,0,-2,-1,0,4
9021,-2,-5,-1,0,-4,-5,-8,-10
9021,5,1,-4,-1,-1,-2,0,3
9021,-9,-2,4,2,1,2,2,3
9052,-4,0,-1,-2,1,2,1,-1
9052,6,-2,2,0,-3,0,1,-5
9052,-2,1,-4,-2,-2,-1,-2,-20
9052,-5,1,4,1,0,0,1,12
9074,0,-3,-10,-2,1,0,-2,4
9074,5,5,-7,0,2,3,3,5
9074,-5,-8,2,-2,-3,-5,-3,-4
9074,-12,-2,-1,-2,-1,-5,-8,-42
9089,12,-7,-5,-2,-1,1,7,25
9089,2,5,4,0,0,2,0,-4
9090,-4,-4,0,0,0,1,-14,4
9090,-11,-14,-3,-3,-4,-2,4,-6
9112,17,24,14,2,0,7,29,10
9112,-7,-3,-2,-3,-3,-6,-18,-4
9112,-11,-3,-2,-1,-2,-2,12,10
9112,-7,-9,3,1,0,2,-21,-6
9126,-12,-20,-8,-1,1,0,-34,-24
9126,-8,5,-6,-2,0,10,-4,-11
9128,14,44,10,2,-6,-15,43,36
9128,15,8,2,1,1,1,15,11
9141,-3,3,1,0,-1,-1,5,2
9141,-10,-9,-4,-1,0,1,-13,-6
9142,-14,-47,-11,-1,0,2,-24,-13
9142,8,11,2,2,1,0,3,3
9163,-8,6,1,-8,-3,-7,-13,-6
9163,-12,-20,-6,-8,-3,-5,-2,-4
9165,12,15,-12,1,1,7,3,1
9165,3,-5,8,4,2,1,5,10
9187,0,-4,-2,0,-1,0,-6,-4
9187,0,3,1,-1,-2,-4,9,3
9187,-5,-9,-6,-7,-2,-2,-3,-5
9187,-8,0,-6,-4,-1,1,-8,4
9209,-8,-5,-9,-1,-2,-6,1,1
9209,-13,-5,21,27,3,0,8,4
9210,18,13,6,-23,0,1,-6,-3
9210,14,6,1,2,0,1,-1,4
9223,-6,-5,-2,-7,-2,0,3,-3
9223,-4,-11,-5,3,-1,-1,3,2
9224,-5,3,4,11,2,2,-7,-6
9224,-4,-3,-5,-4,-1,-1,-1,0
9247,4,2,7,-6,-3,-1,5,-4
9247,8,8,-39,4,0,0,-2,-1
9247,4,-11,15,2,0,1,-4,-2
9247,-2,5,6,-5,-3,-2,1,0
9261,-2,3,-3,3,-5,-3,-3,0
9261,0,0,-18,-10,-5,-4,1,-4
9261,3,-1,6,0,0,1,3,5
9261,-4,-4,-6,1,-3,-1,6,6
9283,-4,1,14,3,1,4,0,-4
9283,6,10,6,2,3,2,0,0
9284,-8,-11,-11,-8,-4,-3,-5,-8
9284,-12,4,16,8,-2,-3,-4,0
9307,-4,-19,-26,-4,2,-3,-2,-2
9307,3,-4,5,-13,0,1,2,1
9307,-3,9,32,39,0,-5,-6,-8
9307,5,2,-32,-21,-4,-3,-1,6
9321,-18,-4,20,5,-2,-3,0,-21
9321,41,41,24,15,2,1,0,8
9321,24,-24,-41,-23,-8,1,0,7
9321,-11,-35,12,-4,-5,-6,-4,4
9352,33,11,-14,-9,-3,-5,-5,-22
9352,-28,-7,13,-3,2,-6,-6,-54
9353,59,13,-17,12,10,8,22,68
9353,-6,2,-27,-12,-9,-5,-7,-4
9366,-7,-9,9,-1,-8,4,6,14
9366,-14,-10,-6,-15,-7,-8,-11,-20
9367,-14,-16,-19,-13,1,1,-6,-33
9367,-1,-4,-13,3,11,6,0,-6
9380,-22,5,10,10,2,0,-8,-13
9380,11,8,5,-6,-4,-1,0,3
9381,-35,-11,-8,-15,-3,6,-5,-11
9381,19,16,26,0,-1,-5,13,17
9403,4,12,5,11,1,-8,-13,6
9403,4,-6,-1,8,1,4,11,12
9404,-14,1,-13,-48,-10,-4,11,-2
9404,-39,-26,12,10,2,5,-5,-14
9427,1,-47,-15,9,6,1,-4,1
9427,46,41,0,3,9,10,17,33
9427,-2,12,20,31,3,-1,11,-22
9427,2,-4,-23,-53,-18,-7,-27,-9
9440,-27,-35,-10,1,-1,-2,36,8
9440,-19,4,-23,-26,-4,-7,7,5
9441,44,45,28,2,-2,1,-11,-5
9441,-2,-13,-14,-26,-10,-20,-45,-28
9463,11,20,10,15,4,-11,54,26
9463,-29,-24,29,51,0,-2,-47,-21
9464,-31,-5,-8,-7,2,9,38,6
9464,14,1,-2,6,0,7,-4,5
9486,10,23,-8,-34,-7,3,-29,-10
9486,-14,-35,-28,-32,-6,2,22,9
9487,-31,-7,3,14,-8,-14,-29,-14
9487,13,-25,3,10,3,5,-4,0
9501,-25,7,-2,-2,0,-1,1,-9
9501,43,19,3,-9,5,5,-30,0
9501,12,-5,5,-6,-3,-9,20,17
9501,8,4,17,33,8,8,24,6
9523,-3,-3,3,9,0,0,-30,-11
9523,-8,-13,-2,-6,-4,-5,6,6
9524,-9,-1,-9,-4,-2,-2,-11,-8
9524,0,24,-1,-4,0,2,20,14
9547,-13,-17,-8,-15,-1,3,2,8
9547,10,-1,-2,9,3,2,-3,-2
9548,12,9,6,5,2,16,-5,-2
9548,-5,1,11,18,-3,-23,10,2
9561,-24,-8,-9,-3,-6,-7,-30,-14
9561,37,-16,-5,-18,-8,-7,5,8
9562,-53,0,1,5,6,3,-5,-10
9562,18,6,2,20,11,14,2,0
9583,-6,9,2,7,4,12,-30,-4
9583,-43,-5,-5,-12,-11,-20,35,3
9584,23,-11,-7,-10,-11,-12,1,4
9584,3,-3,6,4,5,1,-14,-9
9606,8,-5,-5,2,0,-1,-5,7
9606,3,19,14,24,13,19,13,2
9608,-10,-18,-14,-7,-1,0,-22,-6
9608,-18,2,4,-4,-3,6,21,4
9629,10,-9,-2,2,-6,-14,-2,-1
9629,-29,-4,-6,-11,-2,4,-10,-8
9630,1,-5,24,17,10,-1,-8,5
9630,13,-8,-19,-6,-8,-10,1,15
9644,54,72,29,-1,2,5,10,-45
9644,-38,20,3,2,4,9,7,-17
9645,13,1,1,1,-5,-22,-9,-14
9645,-27,5,6,-1,-1,0,11,5
9666,11,-22,-17,2,4,4,8,22
9666,-14,-12,-7,-12,8,-2,2,-1
9668,6,1,6,20,-2,-8,-23,-11
9668,6,-3,0,-4,-4,11,-5,-3
9680,-28,9,-14,-12,-9,-11,12,5
9680,39,-46,6,-12,-5,14,-15,-1
9688,0,18,7,7,9,2,9,0
9688,19,-1,5,14,8,5,-11,-3
9703,25,25,-3,-16,-9,-7,-5,5
9703,-26,-4,-6,-8,-8,-11,2,4
9711,-13,-22,-20,-15,-5,-2,-12,-8
9711,-18,-10,4,13,-3,1,-12,-18
9726,-31,2,8,19,7,9,20,3
9726,47,8,4,3,2,-8,-11,26
9726,-11,0,-7,-8,0,6,20,-11
9726,-16,3,-6,-10,-1,10,-7,-23
9740,8,-31,-3,-5,-9,-23,-13,18
9740,-17,20,4,-1,-6,-7,-3,1
9748,26,16,-14,-2,4,35,15,19
9748,10,-13,9,-10,12,-27,1,-5
9763,-56,3,-2,22,-7,4,7,-26
9763,-7,-7,0,15,-6,-16,-17,25
9765,-25,-10,1,-3,-3,-1,-11,-15
9765,-2,14,-9,-16,-1,19,8,6
9794,36,-5,8,-11,-2,-13,7,5
9794,-25,-9,-10,4,-6,1,-15,-18
9794,-13,-29,-7,-4,-3,9,-2,4
9794,10,25,-6,-15,-6,-58,-6,-6
9809,3,-31,12,17,3,13,23,2
9809,12,7,4,11,2,2,-18,6
9810,4,-10,2,4,7,15,6,6
9810,5,-3,-7,-1,-2,6,8,-9
9823,0,-6,-8,-13,4,10,-9,4
9823,18,-6,-8,-13,-7,1,11,-7
9824,-12,16,7,12,-7,-24,-21,-7
9824,-10,22,3,8,7,35,14,11
9847,4,16,2,0,10,-15,-9,-11
9847,24,-20,-25,-14,-8,2,6,12
9847,6,12,5,3,-13,-20,-13,-14
9847,-4,-2,2,3,-11,-27,-14,13
9860,2,-1,-14,-20,1,30,8,4
9860,-23,2,10,8,15,1,9,-14
9868,18,4,-5,-17,-4,6,-5,8
9868,0,-21,-1,27,7,21,12,10
9883,-8,-8,5,1,-14,-41,-20,-7
9883,6,19,4,-6,-3,-2,-5,-2
9884,-9,-1,3,-7,-2,-2,-5,2
9884,-2,-13,-4,-9,5,14,4,-5
9906,17,3,-10,-10,11,8,-4,4
9906,3,0,2,0,-20,-19,9,-12
9906,-7,-21,7,21,-6,-22,-3,1
9906,11,13,-1,4,11,15,-4,-15
9920,13,-2,3,4,7,9,14,24
9920,21,4,1,-8,-1,-11,-17,-18
9928,-14,-7,-6,-3,4,17,15,11
9928,-17,-5,-2,0,-10,-25,-16,-11
9943,-10,-13,-4,-7,-10,1,-10,8
9943,-28,-16,-7,5,5,16,10,-1
9944,22,4,7,-4,-1,-19,5,2
9944,-25,-1,-11,-8,1,5,-2,0
9966,-22,6,10,6,2,11,-2,3
9966,-10,-17,1,-6,-10,15,4,-2
9973,-5,-1,-6,-2,4,-53,-6,4
9973,7,-9,-3,9,-6,15,-1,1
9980,8,3,-2,-8,-4,0,-6,-24
9980,7,-1,-5,0,6,15,13,5
9989,-53,-10,3,-7,-5,2,5,-19
9989,57,7,0,-6,-2,-2,5,20
3,15,14,-8,9,6,-11,-5,-4
3,-7,-2,9,9,-4,-8,3,-4
4,15,2,-1,-6,3,12,5,9
4,4,-7,2,-11,-3,-8,-2,12
33,-17,-8,-10,-15,11,39,12,-4
33,-29,-2,13,19,1,-16,-2,3
50,14,2,-12,4,-14,-9,-18,-13
50,-13,4,3,-2,-10,-11,-1,6
51,52,11,5,-6,1,-18,-6,11
51,-9,-5,1,-4,4,6,4,-11
53,0,-2,-5,0,10,27,10,16
53,-3,15,-9,1,-7,-22,-1,-18
72,0,-5,0,-11,-2,10,4,10
72,3,7,2,-17,-3,-21,4,9
74,21,15,4,33,4,26,-15,-7
74,19,14,4,2,1,-13,4,8
94,-29,-20,-3,2,-5,-10,-11,-5
94,-8,6,0,-8,7,16,-2,0
95,38,-1,-5,-16,2,11,8,-5
95,-21,-14,1,2,1,-3,-2,-11
109,-25,13,-11,5,-14,-9,-10,-10
109,-1,-6,-5,-2,0,-21,-5,13
110,5,16,-2,-10,-8,-25,-21,-1
110,-11,-6,2,7,8,41,-11,-14
131,1,1,10,6,3,-9,9,-9
131,49,4,-7,-12,-15,-4,3,34
133,0,-5,5,16,-1,-10,2,3
133,-27,-16,-4,3,6,-4,2,-12
147,35,5,-2,0,5,19,10,4
147,-33,4,-1,1,6,4,-1,-19
148,-12,-13,4,-15,0,-4,3,6
148,18,-3,-13,-9,-6,1,-4,8
175,-15,11,0,6,-1,-6,-4,1
175,-12,-14,-1,5,-4,0,-5,-2
185,17,27,5,-8,0,4,8,-8
185,-21,2,-1,-5,-2,-1,-3,-16
185,-9,-11,1,4,7,-11,-8,4
185,-14,-11,-5,5,-3,-2,6,-9
192,-27,-9,-3,-3,-18,-7,-3,1
192,13,11,3,-8,-1,-18,1,-4
206,16,3,-3,-6,-9,4,0,22
206,-27,-7,12,5,9,12,-21,-19
208,12,-17,-21,1,12,13,17,14
208,-17,15,2,0,-4,31,9,13
229,-18,21,4,-7,-15,-47,-19,-32
229,13,-14,-4,-1,-1,-3,0,-11
231,-6,9,11,-6,4,14,-3,17
231,32,6,-6,-6,5,11,11,13
243,-21,-22,-1,-3,5,5,-6,-6
243,13,16,4,20,-6,-8,9,17
252,-11,-9,-1,-2,-10,-16,-1,-17
252,10,-13,1,-2,1,-2,-1,-10
267,-15,-1,-2,1,3,1,-4,12
267,6,1,-15,-12,-6,-4,2,-7
268,-27,-12,-5,-6,0,3,9,2
268,-9,-8,0,-4,-2,-5,-11,-6
290,35,1,5,9,4,22,12,-6
290,-11,54,8,-22,-11,-9,-8,-9
291,19,-11,5,13,7,16,0,3
291,-2,7,-4,8,-11,-49,-17,-5
319,-17,-13,-3,-2,-3,12,8,4
319,6,-9,-1,4,21,32,9,10
321,21,12,0,-18,-8,-13,-1,-9
321,-14,-16,-2,-2,-16,-21,-9,-4
342,-7,0,-1,6,-3,-8,4,0
342,34,-1,-1,1,8,4,-13,-12
343,2,5,-1,-2,10,23,13,2
343,11,-15,-6,-21,-3,-1,11,12
357,31,10,-3,-4,-5,7,5,0
357,-22,-20,-14,24,-10,-34,-19,3
358,-11,-4,5,10,5,-5,-4,-12
358,29,5,-1,-11,2,12,7,5
363,-18,-16,2,3,6,12,0,-2
363,7,20,1,-10,-3,2,-3,-6
371,-9,-2,0,9,11,48,3,4
371,3,16,6,-6,-18,-80,-9,5
386,-8,0,-6,-10,-13,5,-10,-6
386,-27,-21,3,2,14,11,-2,-11
388,-8,28,-15,-5,-6,0,4,4
388,-18,-8,11,16,4,14,-26,-21
409,6,2,-2,6,6,-18,2,11
409,1,-2,3,-10,-12,10,11,1
410,-25,-7,0,-10,1,-13,2,-3
410,-8,-7,-7,15,11,21,-1,1
423,-4,-2,-4,-8,-7,-17,-12,-11
423,-14,-18,-7,-4,-11,-1,-2,1
437,21,7,6,-1,17,46,-9,-9
437,4,4,-1,-7,3,-34,5,9
446,-4,-13,-1,-1,-8,2,10,6
446,-10,-10,-8,-6,-19,-30,-25,-3
447,49,8,6,1,-1,-22,-25,4
447,23,3,-11,-13,-13,7,7,4
469,-7,12,4,18,4,24,8,-7
469,14,-1,1,2,17,7,10,9
470,1,-12,-5,-14,-2,-56,-5,1
470,-20,5,9,6,-14,9,-8,-9
483,9,-5,6,-6,2,6,-4,4
483,-2,5,-17,-4,2,3,5,-2
499,-15,13,4,15,2,9,13,-5
499,-11,-7,-2,0,34,23,9,7
506,-13,-6,-6,-13,-32,-52,13,-5
506,49,17,8,8,-26,-11,-26,5
507,-30,-9,0,-12,-10,-37,-7,-14
507,-10,-15,-9,2,21,52,18,7
529,2,26,5,-1,5,6,1,-12
529,0,-12,2,-10,5,-10,2,18
530,19,-7,-14,1,-11,-3,-13,7
530,2,-6,4,7,0,7,7,-8
542,12,-3,-1,-1,21,26,-4,2
542,-21,-8,9,4,7,-12,17,-12
551,-1,-7,3,-12,-33,-24,-9,1
551,-15,-1,-14,11,-1,-12,-9,16
566,23,-2,-8,-1,13,16,-11,-9
566,-4,6,1,-3,-5,-8,15,0
569,-4,-13,1,-4,3,25,-3,-10
569,14,7,3,4,0,-25,0,-4
589,-13,-12,-4,-3,4,4,-12,5
589,0,-8,-4,-1,-12,-22,-19,-9
591,16,-5,2,-7,-14,-20,8,15
591,-24,-1,-7,-11,-3,26,5,-10
612,-13,-8,0,4,6,-9,1,-6
612,-4,1,12,14,17,30,1,2
613,-21,-17,-17,-4,8,-21,-2,-8
613,-6,10,1,0,-28,6,9,-7
626,-5,-9,-2,-7,-10,-22,-17,-4
626,2,24,-3,-3,10,28,-1,11
628,-6,-3,5,6,8,8,3,-9
628,-1,2,5,-1,11,29,12,4
649,2,4,2,3,2,20,-1,5
649,-8,-5,-12,-7,-25,-75,-20,-14
650,-2,-2,1,0,-7,6,-3,7
650,18,9,-1,-15,11,-3,0,4
672,-11,-5,2,13,-6,-1,10,-7
672,-7,0,7,-7,19,45,-2,-9
673,9,0,-6,8,3,0,3,9
673,-18,-20,-9,-2,-28,-28,-8,-7
686,33,39,1,-15,-3,-19,-15,6
686,-2,-2,-5,7,9,18,27,1
689,2,7,1,-13,4,6,-15,-12
689,4,-18,8,4,8,16,11,24
716,-8,-16,-8,-5,-13,-11,-15,-2
716,-9,-4,-4,11,-3,-11,2,5
717,-12,-4,0,0,-2,-2,2,-7
717,8,2,2,-1,-2,-23,-8,-5
723,-16,0,0,0,22,91,18,2
723,16,-9,1,-11,-15,-76,24,7
737,-12,-12,-4,4,-18,-17,-33,-3
737,-9,4,-6,8,14,33,-1,-12
746,1,-7,2,8,11,-6,5,1
746,-3,-5,-4,-12,-23,6,-1,-9
748,-9,-5,3,2,-7,-30,-10,2
748,-9,-1,5,-10,-1,1,-5,-17
768,27,13,-8,0,1,-11,0,7
768,-20,-16,-1,7,23,73,15,1
770,18,31,7,-11,1,-32,35,6
770,-10,-20,-14,14,-8,-27,-16,6
783,4,3,3,2,-14,-31,-23,2
783,6,0,-2,-1,-5,-10,-21,-11
792,-8,-1,-6,-12,8,38,3,-3
792,29,19,26,-14,9,14,10,5
806,-5,-14,-22,13,-14,-21,12,12
806,-1,9,4,3,7,-24,-6,5
812,-5,2,-3,3,0,50,1,-2
812,-4,3,2,-4,-13,-53,-19,-6
829,-5,-5,4,-5,6,2,8,-1
829,22,8,-1,-1,6,18,-2,0
835,-10,-12,0,5,-9,-14,-4,-3
835,-1,-1,-1,-11,-11,4,8,3
852,-20,-18,-3,-1,6,8,-3,-7
852,-4,-6,-5,17,5,-1,8,9
853,8,-3,6,12,30,75,9,1
853,-3,17,4,8,-13,-47,-5,-7
874,-12,-10,-4,-12,-4,-11,-12,-17
874,10,-5,2,-9,-10,-18,-2,4
875,-3,-1,-5,-5,-19,-20,-5,-11
875,-3,-15,-9,1,8,29,0,0
889,4,4,0,-5,15,21,22,13
889,6,8,15,5,-3,15,-17,-10
890,-6,-2,-20,-11,-4,-40,13,12
890,9,11,3,7,8,28,7,-10
903,10,-3,4,2,-14,-37,-7,-4
903,-19,-6,-10,-7,-3,13,-20,0
911,-2,5,13,-16,2,-40,-2,-8
911,-4,-1,-4,16,6,23,7,21
925,-6,-14,0,-6,-5,-7,-6,-4
925,15,20,-9,-3,-15,-13,6,3
932,11,7,0,0,4,11,2,-3
932,-10,-6,-2,-7,8,15,-8,-7
949,7,2,5,-5,-12,-22,-1,1
949,-18,-12,5,-1,2,25,14,-8
951,-2,6,-20,-14,-1,-20,-13,5
951,-28,-12,2,11,3,1,10,-5
963,21,-7,4,6,8,45,-7,-4
963,2,4,-3,3,-5,-38,-9,-1
971,-23,-16,-3,1,-8,-9,-4,-4
971,-5,-5,3,-14,-6,-4,4,-8
986,-12,-19,-9,-4,-2,-7,11,-9
986,27,43,18,-1,0,5,3,12
994,-13,-6,-11,23,13,34,4,1
994,7,-7,-6,-8,8,1,-2,-14
1008,-11,7,2,-1,-10,-47,-11,9
1008,-8,-16,-9,-10,-7,-4,-22,-2
1016,-9,2,14,-1,-5,1,-4,-3
1016,16,-7,-16,-20,-2,17,2,1
1032,-9,58,14,23,2,22,17,2
1032,-10,-19,-10,3,7,-32,1,-9
1033,5,-6,8,5,4,24,1,8
1033,-12,2,-7,-9,-25,-29,-13,-8
1062,3,-6,5,-9,10,21,-17,3
1062,-11,-5,-13,0,-2,2,11,4
1063,3,-16,4,5,1,-8,-1,-4
1063,11,-2,-2,-1,-1,13,2,4
1069,-2,-3,-12,-11,7,-13,-1,-7
1069,-15,-10,-2,9,3,23,7,-9
1075,9,-2,1,-6,-7,-8,11,4
1075,-17,-3,-1,3,-12,-34,-16,-1
1092,-13,-16,-11,-1,-11,1,-4,-14
1092,18,12,-1,-8,21,47,7,20
1108,-17,-1,3,16,0,-25,0,-4
1108,3,15,5,-1,4,18,3,10
1108,-2,-2,-3,-10,-12,-29,-3,-5
1108,14,-11,-7,-8,4,8,6,-8
1110,23,13,2,11,-1,36,0,7
1110,-37,-6,4,8,14,-4,-4,2
1129,12,-2,4,0,-20,-41,-5,-6
1129,7,2,-10,-20,-13,-27,-16,-4
1130,-5,3,-2,-2,6,31,7,-3
1130,4,-10,-1,2,15,-8,-8,-5
1152,-2,4,-2,6,-5,-5,-2,3
1152,-20,-7,-3,2,-20,6,-10,-18
1154,-2,-13,-4,-9,2,-34,4,2
1154,17,16,0,3,11,49,2,-3
1167,-18,-4,1,-8,-4,-36,-2,-5
1167,4,10,7,-2,-22,-16,-16,-7
1173,16,-8,-6,-6,8,15,17,11
1173,6,-18,-1,2,-6,0,-5,-4
1197,1,27,0,-10,15,49,2,9
1197,-1,-4,4,21,31,47,18,1
1198,-3,6,3,-4,-33,-91,-7,-3
1198,-3,-7,-2,-6,-17,-12,-23,-11
1212,-4,-38,-9,-1,8,8,6,16
1212,7,10,3,1,6,-5,0,-9
1213,5,1,-6,-1,6,38,-3,4
1213,26,18,5,-8,-10,-43,10,16
1226,9,-8,-6,-9,-16,12,-11,-10
1226,-31,-11,3,8,11,24,-2,6
1233,30,-2,4,8,14,-16,6,-8
1233,-4,2,-3,2,-3,43,3,-4
1249,-3,-1,-3,-8,-19,-60,-10,7
1249,7,-15,1,-6,-10,-17,-11,-5
1250,-6,10,0,-11,9,9,-7,0
1250,-1,6,-3,21,12,39,15,0
1271,4,5,8,4,6,12,12,-6
1271,12,-4,-12,-7,-3,13,3,13
1273,-18,-11,-1,1,-18,-13,-28,-3
1273,10,9,2,-8,-8,-54,-11,-2
1293,-4,6,5,10,22,42,8,-6
1293,-9,6,-1,-6,3,-19,10,-7
1311,0,0,-3,-13,-22,9,-12,3
1311,-4,-3,-5,0,-5,-25,7,1
1312,4,-5,-4,2,6,1,-7,1
1312,-3,-1,1,-1,20,57,15,1
1315,-2,11,4,-5,11,6,3,7
1315,-3,-23,-7,1,-25,-36,-14,-8
1331,-1,-1,-4,-7,-8,-8,7,-3
1331,11,36,2,8,0,-6,-3,24
1334,-2,-19,-5,-1,5,-1,-5,-21
1334,11,4,-2,-5,1,8,0,-1
1346,6,-8,1,-3,1,18,-2,3
1346,-8,11,7,-12,11,17,15,-4
1352,3,30,-5,18,0,-15,-1,5
1352,-19,-11,-1,-13,-24,-5,-3,-1
1369,21,-3,-5,13,1,-45,-7,4
1369,8,-12,-1,-4,7,53,0,-18
1370,8,2,1,3,-3,-52,11,23
1370,-6,10,2,-8,10,28,5,-5
1399,3,-2,-2,-3,-7,32,3,5
1399,-11,-23,-4,3,2,-62,-12,-4
1401,-3,11,0,-10,-7,25,-6,-11
1401,-15,6,1,-1,-9,-26,-8,2
1406,-15,-8,-3,-4,-2,1,-4,4
1406,-6,-13,-9,0,-1,-13,-1,0
1413,-11,-7,1,1,3,3,7,-7
1413,0,3,1,14,13,15,15,7
1429,-13,2,6,-8,-1,10,-8,-11
1429,-9,3,-5,-5,-28,-67,-16,-5
1430,8,-19,-6,2,1,13,1,-8
1430,-3,-3,2,-4,13,12,-6,-6
1452,0,5,4,1,6,1,12,3
1452,1,-7,0,3,-12,14,-5,0
1453,-14,-9,-3,-4,-10,-37,-3,5
1453,1,1,-6,-2,1,10,-5,-11
1466,-3,-7,-1,-2,5,14,-6,-4
1466,21,13,3,-5,-8,-17,12,9
1473,-27,-2,-2,-3,-3,18,-15,-14
1473,8,-7,0,10,15,35,13,13
1489,-4,7,1,-8,-6,-40,5,-5
1489,-9,-9,-11,11,3,46,0,-2
1490,0,-16,-3,-9,5,-25,-5,-4
1490,27,14,4,1,-29,-51,-13,-7
1511,-3,-3,-7,5,3,31,-6,26
1511,3,1,7,-6,17,24,11,0
1513,-1,5,6,4,4,2,2,-6
1513,22,-8,-9,-12,-4,-2,-1,1
1525,-8,6,7,4,-2,-3,5,-7
1525,-1,-12,-4,2,7,-8,-8,-3
1534,-9,-4,-1,8,-4,9,10,4
1534,-2,13,3,-3,8,0,-9,-1
1549,-2,-1,3,-15,-23,-41,-15,-6
1549,-2,-3,-9,11,-9,-35,0,2
1550,2,2,-4,3,3,25,4,-13
1550,-1,9,7,5,8,4,-5,7
1571,3,-5,-5,-11,20,41,30,6
1571,-4,10,4,7,-2,0,0,-8
1574,5,-1,1,8,-21,-34,-7,9
1574,-19,-16,-7,-8,-3,3,-8,-7
1585,-9,3,-3,4,12,36,6,-9
1585,24,6,15,-6,-17,-49,-23,18
1594,6,-2,-13,-3,14,49,17,5
1594,7,1,1,-12,-8,-26,-15,0
1609,-5,-2,-2,12,-1,0,3,-3
1609,-6,-4,-1,-8,9,-1,3,-9
1611,2,1,3,-3,-16,3,-6,-4
1611,-15,-9,-6,-2,-1,1,10,-1
1631,14,-1,-1,2,-4,-28,10,5
1631,3,1,0,-8,5,20,-10,3
1634,-2,0,-3,7,5,-20,-2,1
1634,-11,-1,1,-2,-1,-13,-14,-12
1645,-8,-10,-7,1,-15,-15,-3,-1
1645,1,4,0,2,2,12,-2,0
1654,-29,-9,4,-1,8,8,0,-18
1654,20,9,-7,1,0,-2,5,28
1669,30,11,6,13,14,23,-8,1
1669,-4,-1,-3,-14,-24,-34,22,7
1671,-3,-2,-2,-11,-26,-34,-31,-8
1671,3,-10,-7,-3,9,8,5,-4
1691,-14,2,-2,12,17,51,-2,-7
1691,12,1,1,4,-4,-36,4,3
1707,3,10,7,-3,11,36,2,4
1707,0,-5,2,-2,5,21,10,-1
1708,-2,-7,-1,-4,-12,-26,-11,-8
1708,-17,-15,1,-6,-22,-5,-8,-11
1714,16,7,-6,-4,3,-32,8,6
1714,17,-20,3,2,-6,2,4,4
1729,5,6,-8,10,12,21,1,-6
1729,5,0,4,8,15,22,6,-3
1731,0,-1,0,-6,-9,1,7,-3
1731,-16,-6,-4,-5,-16,-41,-31,-9
1751,-9,-7,-2,-7,-14,-24,3,-3
1751,3,15,0,2,14,42,-4,0
1753,0,-2,6,3,21,32,18,9
1753,-22,1,1,-18,-7,-15,15,0
1774,0,0,-4,9,-24,-44,-19,-1
1774,-12,-5,-9,-3,-5,19,-2,-11
1776,4,0,-6,-1,6,3,-4,1
1776,-6,31,8,7,14,29,20,-2
1789,-2,-6,-2,-16,-11,-26,-8,4
1789,-7,-15,-5,-2,-13,-14,-3,0
1790,-12,1,-3,10,13,16,-9,-13
1790,-8,-21,-2,3,5,10,5,6
1811,8,24,7,-6,-2,-2,9,-4
1811,14,9,-2,-4,-22,-48,-13,-8
1813,-2,-6,-1,-8,-13,-12,-10,10
1813,-16,-1,3,13,19,37,-9,-17
1825,17,-13,-5,-3,25,22,24,10
1825,-7,-2,4,-1,-22,-61,-7,2
1834,7,12,-5,-6,-15,-16,-16,-12
1834,1,-6,-4,12,4,5,-6,18
1849,-3,1,4,-1,13,53,-5,-2
1849,-19,-11,1,-2,7,-3,12,2
1852,-2,2,-3,-4,-14,-24,7,-5
1852,2,-4,-1,-6,-15,-18,-7,-7
1871,-7,-2,-3,0,8,8,-7,-6
1871,-15,-10,0,1,5,20,-1,5
1872,12,3,8,3,6,22,-3,4
1872,-8,-4,-11,-6,-4,-19,-5,-7
1885,-14,-3,4,4,-16,-20,-7,-4
1885,2,-3,-8,-4,9,21,0,-9
1894,-6,-12,8,-1,14,22,22,7
1894,29,12,7,4,-3,-11,4,2
1909,10,-11,-12,0,-20,-10,-4,3
1909,1,-2,-6,-20,-10,-42,-27,-3
1910,-7,7,-2,26,13,30,8,-5
1910,-1,12,2,-2,1,-21,2,-3
1931,3,3,7,-4,3,20,9,22
1931,6,-13,-2,7,9,-4,5,1
1934,1,25,2,-19,-19,-21,-24,-1
1934,23,-6,-7,4,3,10,10,-2
1954,-14,-9,2,2,-5,-24,-9,-9
1954,3,12,-4,1,13,29,7,-4
1956,5,-11,-3,-11,3,2,2,0
1956,-15,-7,-4,6,1,35,13,7
1977,-4,4,1,1,-12,-50,-8,-8
1977,-15,-11,-1,0,-12,24,-5,2
1984,7,3,4,-9,6,-40,-6,-2
1984,-4,0,-8,4,-12,4,-13,-2
1992,-9,7,-4,6,19,35,14,-6
1992,2,2,3,0,16,27,-7,1
2005,12,-6,-2,6,-20,-43,4,-2
2005,-37,-6,1,-7,-3,-7,1,16
2015,4,-1,1,-2,8,25,-8,2
2015,3,-6,-3,-2,-12,-27,-2,-3
2016,-3,4,4,1,-2,25,11,8
2016,5,11,-4,-7,-5,-33,-8,-8
2029,-11,-7,-1,-2,7,35,8,-6
2029,16,15,3,6,14,2,7,-3
2031,27,-1,2,-5,-13,-26,-26,7
2031,-16,-4,-5,-4,-14,-10,-13,-10
2052,-7,-5,-5,1,9,10,2,-4
2052,-3,-1,-2,0,15,44,18,2
2053,-9,1,0,2,-2,-21,19,-1
2053,10,-3,4,-4,-15,-32,-18,-8
2073,16,-3,-11,-10,-20,-40,-44,-24
2073,3,0,0,4,2,-9,11,20
2076,-18,-14,-8,-3,16,42,9,-2
2076,2,0,3,-1,6,20,10,2
2089,-8,-5,11,-3,-3,-18,-4,-8
2089,6,13,-5,-3,-3,14,11,-6
2090,3,-10,-8,-2,-13,0,-18,4
2090,21,-1,-2,-4,11,-16,-6,-5
2111,-2,0,1,-9,-2,-16,-1,9
2111,-3,-13,-2,7,-4,14,-9,-6
2112,-6,-11,-5,7,-4,-29,-6,-1
2112,-8,-5,-2,2,1,9,13,-5
2134,16,4,-1,0,0,12,-8,5
2134,-12,-7,3,-7,10,41,20,0
2135,-6,2,-1,-3,0,-10,16,-15
2135,-6,-6,0,0,-21,-4,-26,0
2148,4,-3,-10,-13,-5,-45,-17,-7
2148,10,6,6,-1,14,27,3,6
2155,-14,-12,-2,14,4,21,8,-5
2155,20,11,4,-4,11,23,11,4
2172,-5,-2,-2,0,-10,-29,7,3
2172,-24,-18,-3,0,-14,-38,-17,-9
2173,3,9,-6,-7,2,18,-17,-1
2173,1,1,2,2,8,8,5,2
2201,-3,-2,6,0,0,20,25,6
2201,-2,-10,-6,2,-6,-27,-8,-9
2203,13,8,7,-4,-5,-37,-14,10
2203,-12,-13,-3,2,3,17,3,1
2216,2,2,-4,0,9,42,0,-4
2216,3,8,5,-2,-14,-53,1,1
2218,1,-2,0,-12,0,22,6,-10
2218,-13,-3,-7,3,-2,-20,-31,10
2239,0,-8,0,4,3,6,10,9
2239,6,9,3,-9,1,10,-14,-6
2240,-4,-9,-5,1,-2,6,9,-2
2240,-11,3,7,1,3,-1,24,2
2261,1,-8,-2,5,2,2,7,5
2261,1,3,1,-9,-10,-39,-27,7
2263,-4,6,0,4,10,35,-8,-10
2263,16,20,4,-10,-19,-30,2,-2
2268,-15,-6,-9,2,-9,-2,-4,-10
2268,-4,0,-2,-5,13,27,7,-14
2283,-1,-2,3,9,5,-13,-12,3
2283,-5,-9,-6,-17,-6,12,4,-6
2291,7,9,0,8,-9,-28,-16,3
2291,13,2,-4,1,2,13,-6,-5
2293,-14,-10,-5,-3,13,43,10,0
2293,10,2,2,8,13,-36,18,9
2314,-1,-7,2,-11,-21,-26,-10,-7
2314,-4,-4,-4,-3,-18,-17,-11,0
2316,-13,-4,5,6,9,29,15,4
2316,12,-8,-5,-11,0,7,3,-6
2328,-1,-2,-4,2,-2,-16,-3,2
2328,4,4,-1,4,1,-6,5,1
2336,-8,4,2,-4,-1,3,-10,1
2336,-3,-6,5,-25,5,17,3,-10
2352,-7,20,-11,26,3,6,22,-1
2352,2,2,2,9,1,0,7,-1
2353,-9,-13,-4,-6,-10,-23,3,-17
2353,1,3,-6,6,0,-35,-20,-5
2374,18,-4,4,-15,-10,4,-9,6
2374,-10,1,-1,-2,-2,2,1,-4
2376,8,6,-4,1,11,22,11,2
2376,-8,-5,2,6,-1,14,-2,-8
2404,-7,-2,0,-9,-7,-8,-5,6
2404,0,11,1,4,-4,-9,-8,-3
2406,0,-24,-4,4,-2,-13,-4,6
2406,8,20,0,8,5,20,-1,1
2411,-1,4,2,-4,6,26,-4,-6
2411,-4,-11,-1,-7,11,0,4,5
2413,1,9,3,3,-10,-44,-3,9
2413,0,-4,-3,-9,-21,-14,-13,-5
2434,-1,-4,-3,4,3,-5,-12,-15
2434,5,-17,-8,-1,2,16,2,19
2435,6,4,-4,-5,-1,-3,15,7
2435,-21,-2,1,8,-4,-1,-1,-4
2448,-9,3,3,-11,5,2,-3,-11
2448,8,0,0,-4,-6,-5,1,2
2456,1,6,2,2,1,4,-17,-3
2456,-5,-16,-6,1,10,18,15,6
2472,1,11,-2,-6,-3,12,0,-2
2472,-11,-15,-9,9,8,-11,3,1
2473,12,7,0,-8,-26,-32,-3,-1
2473,0,-7,-2,0,-7,-1,-9,-6
2494,-1,15,4,-3,7,0,2,2
2494,-4,-3,-1,1,7,25,12,-4
2495,-1,-1,-5,-10,8,28,-7,-19
2495,1,-2,-2,-1,-17,-35,6,35
2508,-8,5,-3,3,-3,20,2,0
2508,2,4,-2,0,-1,-29,-9,-4
2516,0,-1,0,4,12,38,-6,-3
2516,-5,-1,0,-2,-7,-14,1,-12
2530,3,-4,-2,-5,-1,-2,7,2
2530,-2,4,1,-15,-6,3,-2,-1
2539,-3,-3,-4,9,0,-6,-7,3
2539,-8,-18,-1,10,11,19,3,-10
2554,3,0,6,4,2,6,5,10
2554,4,26,7,0,-15,-29,-13,-8
2555,-6,-9,-2,-9,0,5,6,6
2555,-4,2,-1,3,17,7,5,-2
2567,2,-12,-4,-4,-20,-21,-23,-6
2567,-5,-7,2,-2,-12,-38,-6,-2
2577,-5,-2,-6,-6,2,-10,3,2
2577,0,-4,-2,8,10,21,-20,-16
2591,-14,-3,1,0,12,16,26,-2
2591,2,1,-1,-1,-7,-11,2,3
2592,1,2,0,-1,-12,-8,-3,6
2592,-5,-5,-3,-15,-1,-3,-17,-11
2614,1,22,4,9,13,4,6,9
2614,-4,-12,-7,13,-4,10,-3,-7
2615,0,3,1,4,-3,-9,-2,-6
2615,2,-1,-1,-1,1,12,8,6
2628,-1,-9,-1,-10,-10,-19,-8,1
2628,0,-2,-2,-3,6,12,8,1
2636,0,3,1,-1,3,11,-2,-4
2636,2,6,3,0,2,6,5,3
2659,2,-15,-9,-12,-4,19,-7,-3
2659,-1,-5,-5,2,-13,-32,-2,-2
2660,1,-8,1,-2,-5,-10,-13,-3
2660,8,9,0,2,3,11,3,1
2681,1,0,3,7,18,61,15,-1
2681,-4,-4,2,-8,-6,-30,-8,-2
2683,-1,13,-4,-12,-13,-11,-14,0
2683,-3,0,-3,6,-7,-13,2,-2
2687,2,-2,1,6,1,-13,-8,-7
2687,-2,-2,-2,-3,9,35,7,25
2697,-6,-3,2,1,3,5,6,2
2697,2,4,3,-15,-8,-4,6,-2
2710,-1,2,-1,7,-7,-35,-5,-1
2710,-12,-19,-10,2,9,42,-5,-14
2717,-5,-12,-4,1,-2,-32,-11,-2
2717,4,6,1,3,9,40,0,-1
2741,1,-5,1,-3,-8,-25,12,8
2741,2,2,3,-4,-5,9,-5,-3
2743,-1,2,0,-2,-3,10,-3,2
2743,5,8,-3,-4,6,-2,3,1
2748,-9,-13,1,6,-14,-21,-2,-7
2748,1,-2,-6,-7,-3,32,-14,-3
2757,8,7,3,0,-7,-42,-1,-1
2757,13,-1,-2,5,0,2,-7,4
2771,-2,-10,-2,-10,20,28,3,-2
2771,-3,-4,-4,10,-1,11,23,1
2785,-8,0,2,-2,-3,0,1,-3
2785,2,-2,0,-2,-10,-19,-15,-1
2794,-1,-1,-4,-4,-2,-18,0,-1
2794,-1,8,3,-17,-1,6,-3,-7
2795,0,-18,0,18,19,65,16,8
2795,-13,4,1,5,-14,-63,-10,-8
2825,10,1,-5,-6,-7,10,-17,-2
2825,-5,1,-1,-6,0,-49,-3,0
2831,9,-2,-1,-4,4,22,-2,1
2831,-11,-6,-4,0,5,57,15,4
2839,-7,-7,-1,-3,-21,-62,-1,0
2839,-5,-2,-2,4,5,-2,-19,-8
2841,22,0,0,-9,0,-15,-1,1
2841,-3,-6,0,11,7,16,19,-3
2854,2,7,1,-1,0,-3,-16,2
2854,-2,-2,0,0,-8,-26,1,-7
2856,-9,-3,-5,-9,2,13,-6,-6
2856,5,6,-1,6,2,12,8,8
2868,-5,-13,-6,2,-2,-8,8,2
2868,4,1,2,3,6,17,-22,-8
2876,1,3,-1,-1,3,1,16,9
2876,-1,-5,-3,-14,-10,-22,-3,0
2891,-5,-7,-3,0,-11,-18,-7,-2
2891,-1,5,2,4,5,32,6,1
2898,-2,0,-3,-3,-5,-44,-4,-5
2898,3,-3,1,5,7,5,-1,-1
2914,2,-1,-1,0,2,4,-1,0
2914,4,3,3,0,3,11,4,-3
2915,-8,-3,-7,-8,-20,-29,-2,-6
2915,-8,-9,0,3,5,-4,3,-6
2937,-5,5,-1,3,-1,-10,-5,-3
2937,5,0,2,0,6,41,16,9
2939,-6,3,-2,8,3,-6,9,0
2939,-2,-4,-2,-9,-16,-17,-13,-5
2951,-5,-2,1,-6,0,-1,-9,-4
2951,-3,-9,-3,1,5,5,9,3
2957,9,15,3,-4,0,8,3,-2
2957,-1,7,1,-2,0,13,-21,-4
2982,1,1,-1,-1,3,-5,10,-2
2982,3,-6,1,-1,-9,-23,0,2
2983,-9,-9,-2,0,4,12,-11,-8
2983,0,3,-4,-10,1,23,13,1
2996,0,-3,3,-9,8,1,-14,-4
2996,-1,17,-2,17,-6,-38,19,10
2998,-6,-8,-2,1,-18,-5,4,-4
2998,-3,-2,-4,0,2,-4,-11,-2
3027,-1,-1,2,-5,8,26,1,-4
3027,3,2,0,-8,9,4,-5,-4
3028,-1,1,-1,1,3,32,-2,1
3028,-2,-6,-4,-3,-17,-32,11,6
3033,0,-2,-3,-4,-9,-38,-17,-5
3033,-6,-4,-3,-4,-3,7,-12,-7
3041,4,3,0,0,6,8,10,2
3041,-9,-6,-1,-4,5,15,-9,-6
3056,5,8,6,8,1,7,-13,-8
3056,2,-4,-2,13,-5,-7,15,9
3058,-4,-9,-3,-4,-3,9,4,1
3058,-4,-9,-3,0,-7,-40,-2,0
3070,0,3,-7,-8,-6,15,2,-1
3070,2,7,1,-7,2,2,-6,-5
3079,-1,-1,1,1,5,15,-6,-2
3079,1,2,1,-1,1,-34,-5,-1
3094,2,-2,-1,3,-4,3,12,5
3094,-3,-9,-6,-15,-14,-13,-20,-6
3096,1,12,5,8,0,-9,4,1
3096,3,4,2,1,0,15,-5,-6
3116,-2,-3,0,1,5,15,17,7
3116,-2,6,0,-4,2,10,14,-2
3117,-6,-10,-5,-13,-9,-30,-17,-4
3117,-1,0,2,-6,6,24,1,6
3130,-6,-12,-8,8,-3,-17,10,2
3130,0,-5,4,9,-5,-11,-12,-4
3139,0,5,0,0,3,4,-4,-2
3139,-1,0,0,-1,1,0,2,-3
3154,-2,5,-2,-7,7,24,-9,-5
3154,-5,-3,-2,-8,-1,-9,2,6
3156,0,-19,-2,8,-6,-24,-7,-2
3156,4,9,-1,-3,-9,-6,-10,-2
3177,2,-12,2,8,0,9,16,13
3177,2,9,2,4,5,1,-11,-8
3178,-1,0,-3,-3,5,14,-4,-1
3178,-2,-6,0,-1,3,-3,11,3
3190,-2,2,-8,-5,-12,-9,-4,-3
3190,1,2,3,-5,-5,-3,-3,-3
3199,15,34,3,2,5,27,10,2
3199,-8,-7,2,12,1,-25,-9,-9
3214,16,10,-1,-2,-4,-5,-5,4
3214,-10,-19,-6,-11,-8,1,2,-1
3216,-7,-5,-1,-3,-2,-5,-2,-5
3216,2,0,-3,6,0,-2,0,-2
3237,-2,1,0,-4,5,5,-7,-9
3237,-9,-9,-17,-20,-5,-7,5,-1
3238,15,-10,11,8,-1,-9,3,8
3238,19,29,6,16,6,10,14,4
3250,-13,-11,-2,-1,0,-10,-14,-8
3250,3,2,0,0,0,3,1,-1
3258,-13,-14,-8,-7,-5,-13,-11,-10
3258,-10,-27,-8,-10,-4,4,8,5
3274,0,-3,5,1,3,10,8,-2
3274,0,-3,2,12,3,-4,-10,-4
3275,5,7,-5,-4,0,-1,-5,-4
3275,-4,-10,-2,-6,-6,0,-1,-2
3304,1,1,0,-9,-3,0,-1,2
3304,5,2,5,13,0,-1,5,11
3306,-7,-2,-2,-1,0,-3,16,4
3306,-10,-8,-4,-3,-5,3,-21,-13
3310,3,13,0,-1,0,1,-3,3
3310,-1,0,0,-3,-6,-10,13,-1
3319,-8,-9,-2,0,-3,-2,-9,-6
3319,-3,-1,-8,-14,-2,-2,7,0
3334,-5,-14,1,3,2,3,2,-1
3334,12,25,2,-6,1,-2,-18,-7
3336,-7,-9,3,12,4,-3,-3,-4
3336,-1,5,7,3,-1,-2,4,6
3356,5,-1,-2,0,1,0,8,-1
3356,-6,-10,-6,-7,-5,1,-11,-4
3358,0,8,6,-5,-1,-2,6,8
3358,5,-6,-5,4,5,5,-2,-2
3370,7,7,3,5,-2,-6,-9,5
3370,-3,-6,-5,-5,0,-1,6,2
3380,0,8,1,-1,-1,2,2,1
3380,0,-4,2,4,-2,-6,-16,-4
3394,-1,6,-7,-10,-4,-1,1,0
3394,-4,-3,-4,-4,-2,6,14,2
3395,5,2,10,7,-2,-7,-7,0
3395,7,22,6,6,4,3,-1,2
3418,-2,-2,-5,-2,1,2,8,-4
3418,-3,3,3,-3,0,1,-9,-5
3421,-5,-13,-9,-11,-3,-4,0,6
3421,-4,-3,-3,-13,-2,-1,-6,-2
3431,3,6,4,14,4,5,4,2
3431,3,-4,5,6,1,5,-20,-9
3446,-5,-5,-7,-3,-4,-2,5,3
3446,9,-1,-3,-7,-4,-7,-16,-9
3454,-2,2,-3,-8,-3,-2,10,11
3454,-3,-6,0,2,-1,-5,6,2
3456,3,1,-1,-1,1,1,-12,-6
3456,-13,-6,-10,-11,-2,1,14,6
3476,1,-4,7,2,-4,-3,4,-9
3476,15,44,10,9,3,3,-1,4
3478,-7,-2,-4,3,1,0,-5,-6
3478,-7,-5,-2,4,-1,2,4,-5
3490,-7,-13,-12,-9,-2,-2,-14,-7
3490,-3,4,3,3,-1,1,7,-4
3500,-1,3,-2,-4,-4,-3,-9,-3
3500,-16,-17,0,1,-3,-1,1,1
3515,4,4,-5,-3,-5,-2,-4,-2
3515,-3,-10,-6,-7,0,0,-14,-11
3516,-8,-4,0,3,0,-2,23,4
3516,-7,-5,-9,-8,-5,-4,2,-3
3536,-5,3,3,1,-2,-5,-3,-4
3536,-2,3,1,4,1,-1,-1,-5
3538,2,-5,-11,-14,-4,-1,-17,-10
3538,3,16,6,4,1,-1,7,5
3550,11,5,-2,-4,-5,-6,-9,-2
3550,-9,-29,-9,-2,1,-1,4,1
3558,-6,-11,2,7,1,0,-2,-4
3558,8,6,3,-4,0,-2,-3,0
3574,-13,-10,-1,-1,0,4,-18,-2
3574,-3,-7,-6,-5,-6,-9,24,5
3576,20,6,1,-3,0,0,5,3
3576,0,-4,0,1,1,3,-3,-6
3596,-11,0,-3,-2,1,-1,2,-8
3596,15,-2,-2,-2,1,1,-13,-7
3598,3,5,8,8,3,3,12,3
3598,4,-3,1,4,0,0,5,3
3610,-1,3,-3,2,-1,-2,-5,-2
3610,-14,-14,-14,-13,-6,-3,3,3
3618,-17,-7,3,-1,-2,-7,-19,-4
3618,12,-1,2,4,1,2,0,6
3633,-5,-3,-6,-8,-1,0,6,1
3633,-1,-2,1,7,3,3,-16,-5
3640,-8,0,-3,0,0,-1,30,8
3640,-12,-9,-4,-2,-4,1,2,-7
3657,-3,2,2,2,0,-4,-3,-1
3657,4,-6,-2,-6,-6,-3,-18,-4
3658,4,3,-3,-5,-3,0,-11,6
3658,5,7,1,1,1,-5,-3,-1
3679,-2,-6,-2,2,3,1,8,1
3679,-6,3,1,0,-2,0,-1,-4
3685,-3,-6,-7,-7,-5,0,-13,-9
3685,7,21,-2,-9,-6,-6,11,14
3693,4,-8,9,11,2,-2,0,0
3693,-5,2,4,7,0,-3,3,-1
3700,-5,1,-3,-6,-2,-1,-8,-9
3700,-9,-14,-5,-5,-1,0,-3,-8
3716,4,11,-2,-2,-2,8,-14,-2
3716,3,1,2,-1,-3,2,39,12
3719,5,4,-2,0,-2,-4,-2,-2
3719,-3,-8,-3,-2,0,-2,-7,-2
3730,-11,-4,-4,0,0,-4,5,0
3730,-4,-5,-1,-1,1,3,-8,-1
3739,3,-2,-2,-2,-2,-1,0,2
3739,-7,-5,-5,0,1,1,7,-3
3753,-3,-5,1,-2,-2,0,-1,-3
3753,-7,-6,-2,0,-4,-2,-5,-2
3760,-1,-3,-1,-2,-3,-4,0,-12
3760,-1,1,2,4,0,-5,-14,-19
3776,1,-3,0,2,5,0,4,-22
3776,1,0,-11,0,4,-1,10,87
3778,-9,-4,-2,0,-5,-3,-13,-40
3778,16,1,0,-5,1,4,14,110
3791,-5,1,0,5,-5,-2,-4,-84
3791,-9,0,-2,19,41,-5,-10,-84
3799,-2,2,-27,-10,-32,-3,-8,-31
3799,17,16,60,4,6,-1,10,49
3814,7,-5,-4,-42,-44,-3,0,65
3814,6,9,0,-5,-7,5,5,0
3828,-10,-10,-14,5,9,1,-12,-57
3828,-2,3,-17,10,8,0,-13,-16
3836,-2,1,26,0,-2,-12,-13,-40
3836,9,5,19,20,17,13,16,33
3838,-15,-3,-4,-15,-6,0,4,0
3838,-3,-5,-8,4,5,-1,-6,0
3859,-6,1,-5,10,31,1,-4,-27
3859,-11,-6,-30,-29,-54,-14,-15,-35
3860,2,8,37,-10,-4,-4,-7,-18
3860,-3,-5,-15,-5,-5,-1,-13,-40
3873,-18,-20,-11,8,6,1,7,68
3873,36,6,4,7,13,-2,3,14
3880,-45,-3,-3,6,7,7,-16,-23
3880,76,26,14,7,-4,18,57,41
3897,0,9,1,8,7,2,-4,-45
3897,-1,-4,-3,-6,-9,-3,-6,-38
3899,-9,-4,-1,2,-1,-6,-9,-5
3899,-36,-20,-16,-6,-7,-11,-22,-26
3919,3,-1,-9,2,-2,3,6,0
3919,-22,-5,3,-8,-6,-3,-23,-22
3921,23,4,0,5,5,3,27,45
3921,-15,-6,-3,3,-1,-3,-20,-31
3933,3,3,-4,-4,-2,1,37,24
3933,7,2,7,-5,-3,-4,-45,-16
3941,17,-6,0,3,7,-4,10,55
3941,-11,-9,-9,-5,-6,-4,10,-11
3957,-3,-2,-2,-2,-1,2,-9,-4
3957,-16,-11,-2,-1,1,1,5,12
3958,0,5,-3,0,3,0,-21,-10
3958,2,-3,-2,-1,-5,-7,-19,-43
3978,24,59,11,6,-1,0,30,30
3978,-6,-5,-1,-1,-1,3,-22,-10
3980,-1,-20,-14,-9,-2,-3,48,10
3980,-22,15,6,4,-4,0,3,-16
3992,10,3,8,11,4,-1,-13,13
3992,-1,1,3,2,-4,-1,19,3
4001,-5,3,1,-2,-4,0,-20,2
4001,-12,-16,-13,-9,-3,-4,-9,0
4016,-6,-14,-6,-4,-2,-1,2,8
4016,2,7,2,-2,-3,0,5,0
4018,3,-5,-3,-1,0,-1,-2,2
4018,-4,-3,-2,-1,3,-1,1,-26
4039,4,-8,-2,-3,-2,1,-7,-5
4039,-14,-5,-2,-4,-2,-3,5,-10
4040,11,6,3,2,4,2,0,6
4040,0,-2,0,0,-3,0,0,-2
4053,-6,-9,-6,-3,-1,-1,-13,-14
4053,-4,-5,-3,-1,-1,-2,7,-14
4068,11,5,4,4,3,1,11,27
4068,-2,-2,1,-2,-1,-1,-7,-15
4077,-9,-13,-7,-3,-2,-1,-9,-1
4077,7,2,-2,0,0,1,6,-9
4078,4,4,3,2,0,3,-5,0
4078,-5,-4,-4,-2,-3,-2,-6,1
4100,-1,-7,-3,-2,-1,-2,-3,3
4100,-1,1,-2,-3,-2,1,5,11
4101,0,1,1,1,-3,-2,-6,-2
4101,1,-2,-2,-2,-1,-1,-3,2
4113,0,-2,-1,1,-2,2,1,-5
4113,8,4,1,-3,0,1,6,9
4122,-1,-3,-1,-1,1,0,-3,-2
4122,-6,-1,0,-3,-1,-2,-1,-9
4136,-3,-3,-1,-3,-3,0,-5,-1
4136,-14,-5,-5,-1,-1,-2,-1,1
4138,3,1,-1,0,2,0,1,-4
4138,1,0,-2,0,1,-2,-1,-4
4159,0,-3,-1,-1,-1,-2,4,0
4159,-3,-2,-1,-2,-1,-3,1,2
4160,-2,0,0,-1,-2,-1,1,-5
4160,-1,0,-1,0,-2,3,-5,-3
4173,-1,-1,-4,-3,-2,-1,-4,-1
4173,-1,0,-1,-2,0,-2,1,-2
4181,-1,0,-3,0,0,1,-1,-1
4181,0,-2,-1,0,1,-1,1,3
4196,-1,-4,-2,-1,-1,-2,-2,-2
4196,2,-1,2,1,-1,-4,0,1
4197,5,1,-1,0,2,-1,0,0
4197,-7,-3,-2,-2,-1,-3,-1,-3
4220,-2,-2,-1,-1,-2,-2,-4,-4
4220,3,0,1,0,-1,-1,-5,-1
4226,-4,-1,1,0,-2,-1,-5,-1
4226,1,1,-1,-2,-2,-1,3,-1
4233,-3,-2,-1,-1,0,-1,-7,0
4233,-1,-1,-3,-2,-2,1,6,3
4242,-2,-2,-2,0,-2,-2,-1,-4
4242,3,0,-3,-1,-1,-1,-2,-1
4256,7,0,0,-1,-1,-2,0,-2
4256,4,-1,-1,1,-2,-1,0,0
4263,-3,-1,-1,1,0,-1,-2,-3
4263,-2,-1,-1,0,-1,1,-2,1
4279,-2,-2,-1,0,0,-2,0,-2
4279,1,-2,0,-1,0,0,-2,0
4280,2,-1,0,-2,-2,0,1,-1
4280,1,-1,-1,-1,0,-2,1,0
4292,1,-1,-2,-1,0,0,-1,1
4292,-4,-1,-2,0,2,-1,0,-1
4301,0,-1,1,-1,-2,-3,-2,0
4301,-3,-1,0,-1,-2,0,-1,0
4316,-5,-3,-3,-1,0,-1,-2,1
4316,-1,-1,-1,-1,-1,-1,-3,1
4324,-1,-2,-2,-2,0,0,0,2
4324,1,-1,1,0,0,-2,-1,-2
4338,-3,0,0,1,-1,0,-1,-2
4338,-2,-1,-1,0,-1,1,-2,1
4345,-2,-1,1,0,-1,-1,0,1
4345,-2,-1,-1,0,-5,-2,-1,-2
4352,-6,-2,-1,-2,-3,-1,-2,-2
4352,1,0,-2,0,1,-3,-1,-1
4361,4,0,-1,-1,0,-2,1,1
4361,3,0,0,1,1,-1,0,2
4377,-1,-1,-1,0,-1,0,0,-2
4377,-3,-2,-1,-1,-1,-1,-1,-2
4378,-3,-1,-2,-1,-1,0,1,-3
4378,-2,-1,-1,-2,1,1,-4,-3
4399,1,1,-1,-1,-1,0,-1,-2
4399,0,0,-1,-1,0,-1,0,2
4400,0,0,-2,0,-2,0,-2,1
4400,-2,0,-1,0,-1,-2,-3,-1
4421,0,-1,1,-1,0,-1,-1,2
4421,-3,-1,-1,-2,-1,0,0,-1
4428,-3,-2,-2,-2,0,-1,1,-2
4428,0,-2,-3,0,-4,-2,-2,-1
4436,-3,-1,1,-2,1,-3,0,-2
4436,0,0,0,0,-1,-3,1,1
4443,-3,-2,-1,-2,1,-1,-3,0
4443,0,0,-1,-1,-1,0,-2,-1
4459,2,0,0,-1,-1,0,0,1
4459,0,-2,-2,-2,-1,-2,-2,-1
4461,0,0,0,0,-1,1,0,0
4461,-2,-2,0,-1,-1,-1,2,0
4482,1,-2,-1,-1,1,-1,-3,-3
4482,3,-1,-2,-1,0,-3,-5,-4
4483,-3,-1,-4,-1,0,0,-3,-1
4483,-3,-1,0,-2,-2,-2,-2,-1
4496,2,-3,-1,-1,-3,0,0,2
4496,-2,3,2,-2,-2,-1,0,-2
4503,-3,-3,0,-1,-2,-2,-2,-3
4503,-3,-2,-2,-2,-2,-1,0,1
4518,-3,-1,-2,0,0,-2,-1,-1
4518,-2,-2,-1,0,0,-1,-1,0
4520,0,-1,0,-1,-1,-1,-2,0
4520,1,1,0,0,0,0,-2,1
4533,-3,-1,-1,-2,-1,-1,-2,-3
4533,-3,-2,0,-1,0,1,-1,1
4541,0,0,0,0,-1,-1,1,-1
4541,0,-2,-4,-1,-1,-1,-2,-4
4556,-1,0,-3,1,-2,-2,-2,-1
4556,-2,-3,-1,1,-2,-2,-1,-2
4563,0,-1,-1,0,-2,-1,0,-1
4563,0,-2,0,-1,-1,0,-1,-2
4579,-3,1,-1,0,-4,0,1,-1
4579,-4,-3,-2,0,0,-1,-1,-1
4580,1,0,0,-1,-2,-2,-1,-1
4580,0,1,0,0,-1,-2,0,0
4593,-3,-1,-1,-2,-1,-2,-3,-1
4593,-3,-2,-1,-2,0,0,0,0
4602,-3,-2,-1,0,1,0,1,0
4602,-1,-1,-1,-1,0,0,-1,-2
4624,-1,-2,-1,0,-1,1,-1,-1
4624,1,1,-1,-2,-1,-2,2,-2
4626,0,1,-2,-1,2,-2,-1,-1
4626,-2,-1,-2,0,-1,-1,0,-1
4639,2,1,0,-1,-2,-4,0,0
4639,-2,-3,-2,0,-1,0,-3,0
4641,-1,-1,-2,-1,-2,-1,-1,-1
4641,-2,-2,-1,-3,0,-1,-3,-3
4661,-3,-1,-1,-1,-2,0,-2,-2
4661,2,-1,-1,1,-2,0,0,-4
4663,0,0,-2,-1,-2,-2,-1,-2
4663,-1,-2,-2,0,-4,-2,0,-3
4677,2,0,0,-1,0,-1,-1,-2
4677,-1,0,0,-2,-1,0,-1,-1
4683,0,-1,-1,0,0,-1,-3,1
4683,2,-2,-2,-1,-1,-1,0,0
4699,0,-2,-1,-1,-1,2,0,-7
4699,0,0,-1,-3,-2,-1,1,-5
4701,-1,-1,-1,-1,0,0,-1,-3
4701,-2,0,-1,-1,0,-3,0,2
4712,-3,-1,-1,-2,-2,-1,3,5
4712,-3,-2,-3,-1,0,-2,-1,4
4722,-1,-2,-2,0,-2,-2,-1,0
4722,1,0,0,0,-2,-1,-1,-1
4736,-1,-2,-1,-3,-1,-2,0,-4
4736,1,1,0,-2,0,0,1,-1
4743,-1,-1,0,0,-2,-1,0,1
4743,-4,-2,-3,-2,-1,1,0,2
4759,-1,0,-2,-1,1,0,-1,1
4759,1,-2,-1,0,-1,0,-3,-1
4760,-3,-1,0,0,-2,-1,-2,0
4760,-2,-1,1,0,-1,-3,-3,-1
4782,-1,0,-1,0,0,-2,-2,0
4782,0,-2,-1,1,-1,0,-1,0
4783,-1,-1,-2,-1,0,-1,2,-2
4783,-1,-1,-2,0,0,1,1,-2
4795,-2,0,-1,-1,-1,2,-3,1
4795,-2,-1,0,0,0,0,1,1
4803,1,-1,0,-1,-1,0,-1,-1
4803,1,0,-1,0,-2,1,0,1
4819,2,-2,-1,-1,-2,-1,-1,0
4819,1,-1,0,1,-3,0,0,0
4821,0,-1,-1,-1,0,-2,1,0
4821,-1,0,-1,0,1,-2,1,-3
4842,-1,-2,-1,0,0,0,-3,0
4842,1,-1,-1,-3,0,-2,-3,-3
4843,1,1,0,0,-1,-3,-1,-1
4843,-1,-1,0,-3,-1,-2,-3,-1
4856,-3,-3,-1,0,-3,-2,-1,-1
4856,-3,-1,-2,-1,-4,-1,-2,-1
4863,0,-2,-1,-2,-2,1,-2,0
4863,1,0,-1,0,-1,0,1,-1
4879,-1,-2,-1,-2,0,-1,1,-2
4879,-3,-2,-2,0,-1,-1,-1,-3
4880,-1,0,-2,0,-1,2,-1,-3
4880,0,-1,-1,0,-2,0,-2,-2
4901,-3,-3,-2,-1,-1,0,0,0
4901,-1,-1,-1,-1,-1,-1,2,-1
4903,-4,-2,-1,-3,-2,-3,0,0
4903,-1,-1,-2,-2,0,0,-1,-2
4916,0,0,-1,0,-2,-2,-2,-1
4916,-1,-2,-1,-1,0,-2,-2,0
4923,1,-3,0,0,1,-2,-2,1
4923,-1,-1,-1,-2,-1,0,-2,1
4939,-2,-1,-1,2,-1,-2,-2,-1
4939,-2,0,-2,0,-1,0,0,0
4940,-1,-2,-1,-2,-2,1,1,-1
4940,-2,0,-1,-3,-2,-1,-1,-1
4962,0,0,-2,-1,-1,-1,0,0
4962,-2,1,-1,0,1,-1,-1,-3
4963,0,-2,-2,-2,0,-1,-2,-1
4963,0,-2,-1,1,-1,-1,-2,0
4975,0,-1,1,0,0,0,-2,-2
4975,-4,-2,-1,-2,-1,-4,-2,-3
4984,0,-1,-2,-2,1,-1,0,-1
4984,0,-1,-1,-1,-2,-3,1,-2
4999,-2,-2,-1,-1,0,-1,1,-1
4999,0,-3,-3,-2,-2,0,0,-2
5001,-3,-1,-2,-1,-2,0,-1,-2
5001,-1,-1,0,-2,0,-1,0,-1
5022,0,-1,-1,-2,1,-2,0,0
5022,1,-2,-2,-2,0,0,-1,2
5023,1,2,1,-1,-1,2,2,0
5023,-2,0,1,1,-1,1,-1,0
5035,-1,1,-1,0,0,0,-1,-1
5035,-1,-1,0,-3,-2,-3,0,0
5044,-1,-2,-1,0,-2,-2,-2,-1
5044,1,-1,0,0,-1,-1,-1,-2
5059,0,0,-3,-3,-1,-2,-1,-1
5059,-1,-1,-1,-2,-2,0,-2,1
5060,-2,0,-1,-2,0,-2,-2,-1
5060,0,-2,0,-2,0,0,0,-1
5081,-3,-2,-1,-2,-2,0,-2,-1
5081,1,-1,-1,-2,-2,-1,-1,0
5083,1,0,-1,0,-1,-2,0,-1
5083,1,-1,-1,-1,-1,-1,1,-1
5095,0,-2,-1,-2,-1,0,1,-3
5095,-2,-1,0,0,1,-1,0,-2
5105,-3,-2,0,-2,-2,-1,1,0
5105,-2,-1,-2,0,0,0,-1,0
5119,-1,0,0,0,-2,0,1,0
5119,1,0,-1,-2,1,-1,-3,1
5121,0,-1,0,-1,0,-2,-3,0
5121,-1,-1,-1,-1,-2,-2,-2,-1
5141,-1,0,0,-2,-3,-2,-2,-1
5141,1,0,-2,0,-2,0,-2,-2
5143,-1,-2,-3,-1,-1,0,-1,-2
5143,-1,-2,0,-1,-1,0,0,0
5155,-1,-1,-2,-2,-2,-1,-1,0
5155,-2,1,-1,-2,-2,-1,1,-1
5164,-3,-2,-2,0,0,1,-3,0
5164,0,-1,-1,-2,-1,-1,0,-1
5179,1,-1,-1,1,-2,0,0,1
5179,-2,-2,0,-2,-3,-1,0,-1
5180,0,-2,-2,-1,-1,-2,-1,-2
5180,-2,-1,-2,-1,-1,-1,-2,-1
5202,1,-2,0,-1,0,-2,-3,-2
5202,0,-1,0,1,0,0,0,-1
5203,0,0,-1,0,-2,-1,-2,-2
5203,1,-1,-1,0,-1,-1,-2,-2
5215,-3,0,-1,0,-1,-1,-1,-1
5215,2,-2,0,1,-1,-1,1,-3
5224,0,-1,-1,-1,-3,1,1,-1
5224,-2,-1,-1,-1,-1,-1,0,-1
5247,-3,-1,0,-2,-1,-2,-2,-2
5247,-4,-1,-1,0,0,-1,-2,-2
5248,-2,-1,0,0,-1,0,0,1
5248,-2,1,-3,0,-1,1,-1,-1
5261,0,-1,-1,0,-3,1,-2,-2
5261,-3,-2,0,-2,1,-2,-2,-1
5263,2,-1,0,-2,-1,-2,-2,-1
5263,1,-2,-1,-2,-3,-2,-1,0
5275,-2,-2,-3,-2,0,-1,-2,-1
5275,1,0,-2,1,-1,-1,-2,0
5284,3,1,-1,-2,0,1,-1,0
5284,-1,-1,0,0,-1,0,-2,0
5298,0,-1,-1,0,1,-1,-1,0
5298,-1,-1,-1,-1,-2,0,2,1
5300,0,-1,-2,0,-1,-3,0,-1
5300,-4,-1,-1,-2,-1,-3,0,-3
5321,1,0,0,-2,-1,-1,1,1
5321,-2,-2,-1,-3,-2,1,0,-3
5323,-2,0,-1,-2,-2,0,1,-2
5323,-2,-1,-1,-2,-1,-1,1,0
5335,-2,-3,-2,0,0,0,2,-2
5335,1,0,0,-1,0,-2,-1,0
5345,-3,-1,0,0,-1,-3,-4,0
5345,1,0,-1,-1,0,-1,-5,0
5359,1,-2,-1,-3,0,-1,-2,0
5359,-1,0,-1,-1,-2,-3,-2,-3
5360,-3,0,-1,-2,-1,-2,0,-2
5360,3,1,-1,0,1,-1,0,-1
5380,-2,-2,-1,1,-1,-2,-2,-4
5380,-2,-2,-1,-1,-1,1,-1,-3
5389,-3,-2,0,0,-1,0,-1,-2
5389,-2,-2,-2,-1,0,0,0,-2
5395,0,0,0,-1,-1,-2,0,0
5395,-1,-1,-2,-1,0,-1,-2,0
5404,0,-2,1,-1,0,-2,-1,-1
5404,-2,-2,-1,-1,-3,0,-2,-2
5419,5,2,1,-2,-1,0,0,1
5419,0,0,-1,0,-1,-3,-1,-2
5421,0,-1,-1,-1,-1,-2,-1,0
5421,-1,-2,-1,-2,-2,1,1,-1
5441,-2,-1,-1,0,-2,0,0,-2
5441,-1,-1,-3,-1,1,-1,1,1
5447,1,-1,-1,0,-1,1,-1,0
5447,0,-2,0,0,-2,-2,-6,-1
5455,-2,0,-1,-1,-2,-3,-6,-1
5455,0,1,0,-1,-1,0,-2,-1
5464,-1,-1,-2,0,-1,0,0,-3
5464,0,0,2,-1,-3,-3,3,-1
5478,0,-1,-2,-1,-1,-2,0,0
5478,0,0,-2,-1,-1,-2,-1,0
5481,-1,-1,-1,0,-1,-1,0,-1
5481,0,-1,-1,-3,0,0,0,0
5502,-2,-4,-3,-1,0,2,-1,-2
5502,-1,-1,-1,-1,-2,1,-1,-1
5503,-1,-2,-2,0,-1,-1,-2,-1
5503,-1,-2,0,0,-1,-2,1,1
5514,1,0,-1,2,0,-4,0,-1
5514,-3,-3,-1,-2,-2,-2,-2,-2
5524,0,0,0,-2,-1,-1,1,0
5524,-2,0,-3,-1,-1,0,-1,-1
5539,-1,-1,1,-1,-1,0,1,0
5539,0,-3,-1,1,-1,0,2,0
5541,-1,0,0,0,-1,-1,1,0
5541,0,-2,-2,-1,-2,1,-1,-1
5562,-2,0,-2,-2,-1,1,2,-1
5562,-1,-2,0,-2,-1,-2,-3,0
5563,0,-1,-3,0,0,0,-1,-1
5563,0,0,-1,-1,2,-1,-4,-2
5575,-3,-1,-3,-2,0,-3,-3,-1
5575,1,0,0,-1,-2,-3,-4,-1
5584,0,-1,0,-2,-1,0,-2,0
5584,-1,-2,0,-1,-3,-1,-4,0
5598,1,0,0,-2,1,-3,-2,0
5598,-2,0,-1,-1,-1,0,-4,-1
5600,-1,-2,-1,-1,-1,-2,-3,-3
5600,-1,-1,-2,0,0,1,-3,0
5622,-1,-1,-1,0,-2,3,-1,-2
5622,1,1,1,-1,-1,-1,-1,0
5623,0,-2,-1,-2,-2,1,0,-1
5623,-2,-1,-2,-3,-1,1,1,0
5635,0,-1,0,-2,-2,0,-2,-1
5635,-2,0,0,-2,0,-4,-1,-3
5651,3,1,0,0,-1,-4,0,-2
5651,-1,0,0,0,2,-2,-1,-3
5659,-2,-1,-1,0,-2,-4,0,-1
5659,-2,0,-1,-1,0,-1,-1,-2
5660,-2,-2,-1,0,-1,-1,-2,-1
5660,0,-3,0,1,-1,-1,0,0
5681,0,-1,0,-3,-1,-1,-1,1
5681,1,-2,0,-1,0,1,1,1
5683,-2,0,-2,-1,0,0,-1,0
5683,0,0,0,-2,0,-2,2,-2
5695,-1,-2,0,-2,-1,0,-1,-2
5695,-1,0,-1,-2,-2,1,0,0
5704,-1,-2,1,-1,-2,-2,-1,-2
5704,0,-1,-2,1,0,-1,-2,0
5718,-2,-1,-2,0,0,0,-2,-2
5718,0,-1,-2,1,-1,0,0,-1
5721,-2,-1,-1,-1,-1,-2,0,0
5721,-2,-1,-1,-2,-2,0,-1,-2
5741,-3,0,-1,-1,-2,-2,-1,-1
5741,1,-2,0,0,1,-2,-1,1
5743,-2,0,-1,0,-1,0,-3,0
5743,1,-2,-1,-1,-2,-4,0,0
5764,0,-2,-1,0,0,-1,0,0
5764,-1,-1,-3,-2,-3,-1,1,-1
5766,-1,0,-2,-2,-2,-2,-2,-2
5766,-2,-2,-2,0,-1,0,-2,-1
5779,-3,-1,-2,0,-1,-1,0,0
5779,-2,-1,-2,-1,0,0,-2,-1
5781,-1,-1,-1,-1,-1,-2,-4,-1
5781,0,-2,-1,-1,-1,-1,-1,0
5802,0,-1,0,0,0,1,-3,0
5802,-2,-1,-2,-2,-1,0,-2,-3
5803,-1,-1,-1,-2,1,1,2,-1
5803,-1,-1,-1,-1,-1,0,2,0
5824,-1,-2,-2,-1,-1,0,2,0
5824,-2,-2,-2,-1,-1,-2,0,1
5825,-1,-1,-1,-1,-2,-1,-2,-2
5825,1,2,0,0,-3,1,-4,0
5839,0,-1,-1,-2,-1,1,0,-1
5839,-3,-2,-2,-1,-2,1,-3,-2
5840,-2,-2,-1,-1,0,0,1,0
5840,1,0,0,-1,-1,-3,2,0
5862,0,-1,-1,-1,-2,-2,1,0
5862,1,0,0,-1,0,-2,-1,0
5863,-1,0,-2,1,-2,0,-2,-2
5863,-2,-2,0,0,0,-1,-2,-2
5884,0,0,-2,1,0,-1,-2,-2
5884,-1,-2,-2,0,0,-1,0,-2
5886,1,-1,-2,-1,0,-2,1,0
5886,-1,-1,-1,-1,0,-1,-4,-1
5898,0,0,0,-2,-2,1,-4,-1
5898,-2,-2,0,-1,-1,1,-1,-1
5905,1,-1,-1,0,0,1,-1,-1
5905,-2,-2,-4,-1,-1,1,1,0
5921,0,-1,-1,-1,0,-1,-1,1
5921,0,1,0,0,-2,-3,-5,-1
5923,0,0,3,1,-3,0,-1,-3
5923,-3,-1,-2,-2,0,1,1,-3
5944,0,1,-2,-2,-1,0,1,1
5944,2,-1,-3,-1,-1,-1,3,3
5946,0,-3,-1,-1,-1,-2,1,0
5946,-4,-2,1,0,-1,-1,-1,-2
5958,-4,-1,-2,-2,0,-4,-2,-1
5958,-2,0,0,-3,-1,-1,-1,-3
5967,-1,-2,-1,-1,-2,-1,-1,1
5967,4,-2,-2,-2,-1,-1,0,-1
5981,1,-1,0,-2,-2,-1,0,-1
5981,-1,-1,0,0,-2,0,-1,-2
5989,-2,-1,-2,-1,0,1,0,-1
5989,-2,-2,-4,-1,-2,1,-2,0
6011,-1,-1,-2,0,-1,-3,-1,-3
6011,-1,-1,-2,-1,-3,-1,-1,-1
6013,-2,-2,0,-1,-2,-2,-4,0
6013,1,2,0,-1,-1,-3,-4,0
6017,-1,-2,-1,1,-2,-1,-1,-1
6017,2,-1,-2,-2,2,0,0,1
6027,0,-1,0,-1,-2,-2,-1,-2
6027,-1,-1,-1,-1,-3,-2,-1,1
6042,-2,0,-1,-2,0,-1,-1,-1
6042,-1,0,-2,-1,0,-2,-1,-2
6043,-1,-1,0,-2,-2,-1,-1,0
6043,-1,-1,-1,-1,-2,0,1,-1
6064,-2,-1,1,-2,0,1,-2,-1
6064,-6,-4,-2,-1,-3,-1,0,0
6065,-2,-1,-1,-1,-1,-2,-1,-1
6065,-3,-1,-1,0,0,-2,0,-3
6078,1,-1,-2,-2,-1,-1,1,-2
6078,-2,0,-2,-1,-1,-1,-2,-1
6086,1,-1,-3,0,-1,-1,-1,-1
6086,1,-1,-1,-1,-2,0,1,-1
6101,-3,-2,-2,-1,-1,-1,-1,0
6101,-1,-3,-1,1,1,-1,-2,-1
6102,-2,-1,-1,0,0,0,-3,0
6102,-4,-1,-1,0,-2,0,-3,-3
6123,2,2,-1,0,0,-1,-1,-1
6123,-3,-2,1,0,-3,0,2,-1
6126,0,1,-1,-2,-1,-2,-1,0
6126,2,-1,-1,-1,-2,-2,0,0
6145,-2,-3,-2,-1,-2,-2,-1,1
6145,0,-2,-3,-3,-2,-3,-1,0
6146,-3,-1,-1,-1,0,0,0,-2
6146,-5,-1,-1,-2,0,0,-2,-1
6161,1,0,-1,0,-1,-3,-2,-3
6161,-1,-2,-1,0,1,0,-1,-2
6162,5,-1,0,-2,1,-1,-2,-1
6162,-2,-2,-1,-2,0,0,-2,-2
6183,0,-1,0,1,-1,0,-1,0
6183,1,0,-2,1,-1,-2,-2,0
6184,-2,-1,-2,-1,-2,-1,-2,1
6184,0,-1,0,0,-2,-2,0,-1
6206,0,-1,0,-3,-1,2,-1,0
6206,1,1,0,0,-2,1,-1,1
6207,-1,0,0,-1,1,0,1,0
6207,1,0,0,-1,-1,-2,0,2
6221,-2,-3,0,0,-1,-1,-1,-1
6221,4,1,0,1,-2,0,-2,-1
6222,-2,-2,-2,-1,-1,0,-1,-2
6222,-2,-2,0,0,-1,1,0,-1
6244,-2,-1,-2,0,-1,0,1,0
6244,-1,0,-1,-2,-1,-1,1,1
6244,-5,-1,-1,-2,1,-1,1,0
6244,-3,-1,-1,-2,-1,-1,-1,-1
6266,-8,-4,-2,-1,-3,0,-3,-2
6266,2,-1,1,0,-1,-1,-1,-1
6267,1,1,-2,-1,-4,-1,1,-1
6267,1,-1,-1,-1,-1,-1,-1,0
6282,-2,1,0,-1,-2,-1,-2,-2
6282,0,-1,-1,-1,0,-1,-2,-3
6288,0,-1,-1,-2,0,-1,0,0
6288,3,-1,-2,-1,0,-3,-1,1
6303,2,-1,0,-1,-1,0,0,0
6303,-3,-1,-1,-1,-1,-2,1,-1
6304,-3,-1,-2,0,-3,-2,-2,-3
6304,-2,-1,0,1,-1,1,-2,-2
6325,-2,0,0,-2,-2,-2,-2,-3
6325,-4,0,-1,-1,-2,-1,-1,0
6333,1,-1,-1,-1,0,1,-2,0
6333,-1,0,-3,-2,-1,0,0,-1
6341,-2,0,-4,0,-2,0,1,1
6341,-1,0,-1,-1,-1,0,-2,-3
6342,0,0,0,0,-1,1,-2,-1
6342,0,1,1,0,-1,0,2,1
6363,1,1,0,-1,0,-1,1,0
6363,-4,0,-2,-1,-1,0,0,0
6364,-1,-2,-1,0,-2,-1,0,-3
6364,0,-1,-1,1,-1,-1,-3,0
6379,0,-1,-1,0,-1,-4,1,-1
6379,-1,-1,-1,-1,-2,-2,-2,-2
6386,-1,-1,-1,-1,-2,0,-3,-1
6386,-6,-2,-2,0,-1,0,-4,-4
6402,0,-2,-1,-2,0,0,1,1
6402,3,-1,0,1,1,0,-3,7
6402,-3,-2,-1,0,1,0,2,-9
6402,1,1,0,-1,-1,0,0,1
6424,1,-1,-2,-1,-1,1,-3,4
6424,-4,-2,-1,-1,-1,0,-1,-1
6424,3,2,1,-3,1,-1,-2,-2
6424,-3,-2,-2,-1,-1,0,3,-3
6438,1,-1,1,-2,0,1,-4,-6
6438,4,1,0,0,0,-1,5,4
6445,-3,0,-1,0,-1,-2,-2,0
6445,1,-1,-2,-1,-1,-1,2,0
6460,-8,-3,-3,0,-1,0,-4,-2
6460,-3,-1,0,-1,-1,-1,-3,-11
6462,-2,-1,0,-3,0,-1,-2,-5
6462,-1,-1,-3,-2,-2,-3,-1,26
6483,3,2,2,0,2,1,-4,-30
6483,-3,-1,-1,-1,1,-1,2,8
6484,2,1,-2,0,-1,1,5,-1
6484,-4,-2,-1,-1,-1,-1,-3,1
6498,-1,-4,-3,-1,-2,-2,-1,10
6498,-2,-2,0,-1,-1,-2,-1,-5
6506,0,-3,3,-2,-1,-1,-3,3
6506,1,0,-18,-2,-4,-3,-3,-11
6521,-1,-6,-1,-2,-1,-1,1,-4
6521,-6,-3,2,-2,-2,-1,-3,0
6522,2,1,1,0,2,3,5,19
6522,-5,0,-8,0,-1,0,-5,-41
6543,5,1,-6,0,-2,-2,-3,1
6543,-1,-3,4,2,1,1,4,35
6544,-8,-3,-3,-2,-3,0,-2,-29
6544,-8,-2,2,-1,1,-1,-1,7
6566,-1,-2,-2,-1,-2,-3,1,-5
6566,-2,-2,-10,-2,-4,-4,0,-13
6567,-8,2,20,3,0,1,-5,-15
6567,5,-1,5,1,0,1,-3,-15
6582,4,2,-3,-3,-1,1,4,11
6582,3,2,-1,-1,0,0,1,9
6583,-6,-7,-10,-3,-5,-4,0,12
6583,7,4,3,0,-1,1,-3,-13
6603,-3,-2,3,-2,1,0,2,24
6603,-1,1,-5,-1,-1,1,-4,-29
6604,1,-1,-10,0,-2,-3,1,-6
6604,-4,-2,-1,-1,-2,-2,-3,-17
6625,4,4,18,2,0,-1,5,29
6625,-9,-1,-2,-2,-2,-3,-1,-16
6626,13,-2,-6,-1,-1,0,-3,-1
6626,-7,-1,13,0,-1,-2,-4,24
6640,-2,11,-3,-2,1,-2,2,9
6640,-2,-10,-1,0,-1,1,1,-26
6642,-3,-2,4,-1,-1,-3,-3,13
6642,-2,-2,-6,-3,0,0,0,2
6664,0,-7,-24,-5,-3,-4,-8,-29
6664,15,6,18,3,1,-1,-1,2
6664,-6,-6,-23,-4,-1,-3,-1,9
6664,7,4,21,2,1,-1,3,-5
6685,-5,-6,-9,-2,-4,-3,-4,-30
6685,0,2,-3,-3,1,2,5,39
6687,-6,-6,-14,-3,-2,0,-3,-11
6687,-6,-3,-9,-3,-2,-2,-3,-16
6701,2,-4,1,2,-1,3,5,52
6701,-17,-3,-2,-2,-4,-3,-4,-16
6701,6,6,-17,-4,-1,1,0,4
6701,-4,-9,1,-2,1,0,2,2
6723,-5,-7,0,0,0,-1,-3,-15
6723,-10,-3,-3,-1,-3,-1,-7,-12
6724,2,0,-4,0,-1,2,5,17
6724,-6,-3,-7,-2,-1,-3,0,-9
6746,-11,0,12,-2,-3,-2,-8,-26
6746,4,-9,-23,-4,0,-2,-6,-6
6747,2,0,25,-1,-2,-3,-1,-2
6747,11,3,5,0,0,3,3,14
6761,4,9,4,2,1,1,-1,-32
6761,4,-4,3,1,0,0,8,62
6761,1,0,9,0,-3,-3,-5,-18
6761,-1,-4,-6,1,-1,-3,0,31
6783,2,1,-2,0,1,1,1,-3
6783,7,4,-1,0,0,1,-3,-25
6784,-11,-7,1,-1,-1,-3,-2,-10
6784,3,4,-6,0,-1,-1,2,11
6814,-6,-6,-5,-1,-2,-3,1,2
6814,1,2,10,2,0,1,0,-6
6815,-8,-2,6,2,-2,-3,-6,1
6815,6,3,-4,-1,0,-1,3,36
6822,-2,-3,-1,0,1,-1,-1,5
6822,-2,0,0,-2,-2,-2,-3,-10
6823,-2,4,-1,-1,-1,-1,-2,-7
6823,-8,-5,-7,-3,-7,-4,-12,-107
6843,17,5,26,4,5,7,19,71
6843,-8,-6,-17,-3,-2,-1,2,6
6844,30,15,18,4,3,3,6,-2
6844,-11,-2,3,-1,-4,-3,-6,-14
6866,3,0,-5,-1,-1,1,0,-1
6866,0,-8,-7,-1,0,-3,-2,-8
6867,-17,1,-5,-2,0,-3,-4,5
6867,-5,-2,1,2,2,2,0,18
6881,-3,2,-2,-3,-3,-5,-11,-20
6881,-1,5,4,-2,-1,1,0,6
6882,-6,-10,-11,-4,-2,-2,-3,-8
6882,1,6,2,-1,0,-1,3,17
6904,-9,-7,-7,-2,-5,-2,-7,-17
6904,6,0,-11,-1,-1,-1,-6,-17
6904,-5,-1,9,0,-1,0,-2,2
6904,3,-3,-2,-2,0,1,1,5
6926,12,1,-8,2,0,-1,1,6
6926,2,2,-2,-3,-1,-1,2,2
6927,0,-5,-3,-2,1,-2,-3,1
6927,-4,-7,1,-1,2,-1,-1,6
6941,-4,-6,-21,-6,-5,-6,-10,-25
6941,12,1,29,1,1,1,1,5
6941,-4,1,-12,2,-4,0,-1,0
6941,2,6,13,-2,-1,-2,-1,-2
6963,-12,-8,-5,-6,-2,-3,-2,-9
6963,-4,-5,-4,-1,-3,-4,-5,-15
6964,3,4,3,-1,0,-1,2,-4
6964,3,-3,-18,-1,1,-1,2,-7
6986,7,-1,4,1,0,1,1,-2
6986,-3,4,-2,-2,-2,-1,-2,-3
6986,-7,-6,-4,-2,1,-2,-2,-2
6986,0,-2,-1,1,0,-1,2,8
7000,-6,1,6,-4,-4,0,3,7
7000,-7,0,2,1,-1,-3,-2,-17
7002,-1,-5,-10,-5,-2,-1,-2,11
7002,1,6,20,5,5,-1,-2,-8
7023,3,4,12,-3,-2,0,4,15
7023,2,-4,0,1,0,0,0,6
7024,2,1,-2,1,-4,-2,-3,-5
7024,-11,-5,-10,-4,-4,-2,-7,-81
7047,-3,-1,-4,6,3,1,-1,-18
7047,-4,0,-34,-2,3,-2,-3,-42
7047,-6,1,42,9,2,0,4,18
7047,13,8,-5,-19,-19,-2,8,39
7061,-20,-10,-5,-6,-4,-5,-5,-22
7061,-8,-8,-14,-7,-5,-4,-3,3
7062,5,-3,-12,4,6,2,-3,-28
7062,6,6,-6,2,3,0,-3,13
7083,10,5,8,2,-3,0,-1,20
7083,-14,-25,6,6,3,1,0,9
7084,22,61,0,6,3,2,3,5
7084,3,-4,0,-7,0,2,-2,16
7106,-6,4,-1,2,-4,-1,-6,3
7106,-16,-15,7,-1,-6,-9,-23,-21
7106,3,-18,-10,-9,1,-2,19,9
7106,28,35,-10,-4,-3,-1,2,23
7120,-4,7,-3,-14,1,-3,2,-11
7120,4,1,11,21,6,2,4,8
7121,-11,-12,1,11,-3,-3,-10,-7
7121,-6,-8,5,4,8,2,0,3
7143,-4,-22,-17,-7,-1,1,-22,-6
7143,4,9,1,-16,-4,1,-7,-6
7143,-8,1,-3,-7,-2,-5,28,17
7143,-9,-17,-48,-22,-10,-11,-5,-7
7165,8,-5,54,47,11,21,14,11
7165,-14,-2,25,51,-1,-17,-6,-4
7166,20,-10,24,36,-2,-10,-22,-12
7166,4,-11,-36,-30,2,10,4,3
7180,10,46,28,7,-7,-8,-13,-4
7180,39,44,12,11,5,8,8,21
7181,-32,-121,-54,-19,0,1,5,-11
7181,-27,-14,-34,-30,-4,-1,5,5
7203,-48,-84,1,-12,-11,-5,-24,-15
7203,39,80,95,72,13,4,10,1
7203,26,46,42,44,6,-2,11,10
7203,11,-4,1,2,-5,-6,-7,2
7225,-24,-19,-44,-40,-3,12,-13,-15
7225,-18,-40,-56,-62,-13,-12,7,-1
7226,-22,7,-12,-30,-14,-13,13,5
7226,14,12,27,18,7,0,14,4
7240,12,8,-16,0,6,8,-9,10
7240,-17,-10,-4,-9,-3,10,-5,-11
7241,13,34,-20,-33,1,13,8,2
7241,-17,-16,-11,-26,-7,-1,-1,-1
7273,-15,-37,22,54,23,6,34,-3
7273,40,4,4,1,-2,2,-57,-2
7273,-2,5,18,9,2,-1,59,4
7273,-8,-14,-7,0,-12,-25,-35,2
7286,15,33,-8,-17,-3,-5,10,-16
7286,-20,-33,-30,-25,-2,4,9,12
7286,-7,-5,-16,-23,-2,5,-41,-31
7286,8,20,41,25,10,13,-10,8
7302,0,-19,-23,7,-1,-15,1,17
7302,-13,7,-6,-10,-3,-1,8,-5
7309,27,17,0,-2,-2,1,2,13
7309,-13,8,-7,-2,10,39,37,-17
7323,10,8,17,5,0,-34,-22,-3
7323,14,16,2,2,-19,-28,36,18
7325,-6,1,-21,-16,-9,9,-38,-16
7325,13,-19,1,2,3,-2,8,55
7346,13,37,11,10,1,12,11,3
7346,-6,-14,-7,-4,13,11,18,2
7347,5,-23,-2,1,-8,-11,-20,-8
7347,-20,29,16,27,-2,-1,-6,-19
7361,24,6,2,-10,1,3,5,6
7361,-3,-14,-11,-9,4,-11,-16,3
7368,-40,-16,-9,-17,-4,6,-27,-14
7368,17,-48,13,5,6,3,7,-6
7383,0,58,-3,4,1,5,5,-3
7383,31,8,-3,-1,-2,9,-1,15
7384,-13,3,-12,-21,-12,-48,-9,25
7384,-19,-19,32,10,-13,-11,-56,-51
7406,18,-11,-13,3,13,4,37,10
7406,-41,-17,-12,-19,-6,2,-4,-1
7407,18,-19,-7,-6,-6,16,-12,19
7407,-21,45,10,30,9,-13,-2,-83
7420,-13,-26,-4,-18,-8,-17,-10,9
7420,8,17,8,3,-1,30,15,18
7436,6,-6,-16,-18,-8,-38,13,33
7436,-10,-8,17,29,6,24,-6,19
7443,-20,3,-16,-16,-2,-12,-38,-28
7443,-10,9,-4,-5,10,21,29,-6
7444,-7,9,9,-3,0,7,-5,-44
7444,12,-10,-19,-2,-13,-42,18,62
7466,-12,-16,9,2,-3,13,-12,-14
7466,-7,-19,-7,-7,4,4,-7,5
7467,3,5,2,14,16,34,5,-25
7467,-3,-2,4,-8,-12,-5,7,-8
7480,2,-35,-9,-14,-18,-30,-6,4
7480,-14,23,-12,-8,-2,18,1,-7
7488,23,-8,11,28,22,4,20,4
7488,-9,-6,-4,-7,0,-12,11,-4
7512,5,-1,-1,-12,-29,-26,5,36
7512,-30,-53,-29,-24,-9,-1,0,-21
7513,13,90,33,25,13,9,-5,-3
7513,-9,-6,-3,2,19,54,19,-9
7526,15,13,-4,-9,1,-18,-7,-13
7526,-18,-21,-14,-3,-8,-10,-16,3
7526,-21,-19,1,3,2,-2,-4,9
7526,19,7,-6,-17,-6,18,1,-9
7540,-18,-2,-3,-6,3,-12,-11,-5
7540,15,19,12,19,-15,-28,-8,-3
7548,-3,1,8,2,-10,-15,-12,-1
7548,22,24,-10,2,17,15,-23,-66
7563,-5,-19,-12,-10,-4,28,23,78
7563,23,-2,3,-4,3,16,12,14
7564,0,-19,3,-10,-2,-51,9,-1
7564,-29,-16,-14,-12,-11,-17,-37,0
7586,-29,9,10,13,-15,3,16,-31
7586,51,29,9,5,2,-26,0,29
7587,-21,-39,-26,-22,-5,46,-12,-14
7587,23,38,8,32,32,44,17,34
7609,-9,-2,-1,0,13,-27,-14,-44
7609,19,-9,1,-4,-28,-15,8,8
7609,-15,-7,-3,-8,-23,-28,-38,-47
7609,25,-2,7,-24,-10,-51,1,90
7623,11,7,-6,24,25,47,0,-5
7623,-30,-19,9,7,18,10,27,-6
7624,21,-5,-6,2,7,42,5,-13
7624,-14,0,-7,-19,-27,-45,7,-12
7646,18,4,10,15,9,18,-2,26
7646,4,6,2,2,0,-14,-36,-47
7647,-19,1,1,-2,-9,-11,-11,2
7647,-5,-46,1,-11,-13,-3,-17,-9
7669,13,16,-14,6,2,-7,5,-16
7669,15,-9,-2,1,17,34,3,14
7670,-25,0,7,10,10,17,24,14
7670,8,-11,-7,-3,-7,-20,0,-10
7683,1,6,10,-20,-18,-20,-14,-20
7683,-14,-31,-2,8,2,-21,-10,-13
7684,11,8,-8,4,0,5,-10,-3
7684,-5,-16,10,3,18,54,37,2
7706,4,8,-14,-13,-1,-6,24,34
7706,-19,-5,-2,1,-3,-15,-25,-38
7706,22,4,4,-4,-22,-29,-9,28
7706,-15,7,-15,-17,-10,-17,-3,-6
7729,7,-17,1,23,16,46,-9,-26
7729,-12,38,13,0,5,2,20,5
7730,-5,-2,-18,-5,5,-10,-13,-45
7730,5,14,10,7,8,-14,33,65
7743,-3,-16,-4,-15,-31,-22,6,10
7743,-15,-20,7,11,-5,-14,-14,-27
7743,9,8,-14,-3,3,39,8,7
7743,6,7,3,7,7,-27,-14,-9
7766,5,3,1,-14,1,28,2,-3
7766,-20,-20,3,7,7,33,11,26
7767,5,13,1,9,8,-41,9,10
7767,-14,-17,-7,-2,-26,-21,-37,-29
7789,19,3,-4,-6,-12,-14,-16,-16
7789,19,13,-5,-22,-14,-37,-24,0
7790,-14,-10,3,-1,13,35,22,60
7790,-16,-11,4,22,23,45,27,25
7812,14,20,12,5,2,-22,7,-23
7812,-10,-3,-13,-7,2,32,-3,1
7812,17,2,-1,-7,-1,-15,5,15
7812,-15,-5,4,-1,-11,14,-1,-27
7825,-8,6,3,-13,8,-5,-21,-2
7825,9,-27,-20,13,-13,-42,20,11
7826,0,4,5,2,-21,-40,-18,3
7826,-15,-8,-7,-11,-10,3,-7,-26
7848,-23,-16,-2,3,18,64,20,4
7848,16,21,14,6,28,5,-15,-17
7850,-9,13,-3,0,-15,-46,11,7
7850,20,-2,0,-2,-22,55,-5,-30
7863,-12,13,-1,3,20,-85,-5,4
7863,-12,-7,-16,-18,-18,9,-1,-5
7864,14,-18,-4,1,-13,17,1,8
7864,-12,-2,2,-2,7,-17,-22,-21
7885,0,-6,-3,1,-3,24,0,-23
7885,-1,0,6,-4,31,49,14,87
7887,-10,21,2,9,9,4,18,-17
7887,5,-17,4,8,-14,-26,-5,5
7909,38,30,-2,-19,-22,-28,3,7
7909,-22,-4,7,15,6,33,-20,-17
7909,4,-3,-2,-9,11,28,12,21
7909,-10,-1,-3,5,-2,-53,-1,12
7923,-10,-7,-12,-14,-18,-22,-3,5
7923,3,8,6,-3,-20,-52,-22,-24
7924,-3,-18,-4,-1,10,51,-15,-33
7924,13,34,8,9,19,6,-7,32
7945,-6,-11,-10,-9,5,5,21,1
7945,23,-1,-1,-1,-38,-32,-14,-22
7953,0,-14,1,8,10,-11,-9,-47
7953,13,-4,-7,-11,13,66,36,25
7969,-7,17,14,2,14,-15,-10,6
7969,5,-29,-9,3,5,3,14,-13
7970,0,22,8,9,-12,-9,-5,-9
7970,-11,0,-2,-12,-10,-9,-16,-24
7983,-12,-11,-9,21,26,58,18,41
7983,3,-5,-11,-16,7,-49,-9,-26
7984,-6,0,4,-4,-46,-6,0,-4
7984,2,9,-10,-5,4,-26,-7,-3
8014,-20,-3,14,8,-3,-5,-23,-16
8014,37,8,0,0,2,23,11,-24
8014,-1,-3,-2,-11,15,4,-8,45
8014,15,-1,-1,-8,-2,-34,19,17
8029,-31,-44,-4,20,-6,24,2,-17
8029,-4,23,4,-9,0,28,2,-12
8029,-20,-20,-6,1,17,13,0,-9
8029,5,11,8,5,-13,-33,-7,-1
8043,2,-29,-15,-7,1,13,5,6
8043,-13,53,-3,-19,6,-4,-3,-11
8044,17,12,6,14,-29,-33,0,28
8044,-30,-12,-8,-11,-11,-29,-17,-3
8068,2,9,4,8,5,-20,-4,-13
8068,-5,-19,4,-15,-1,30,7,-6
8068,-20,13,-5,7,23,-3,22,-14
8068,1,-4,1,6,-11,-8,-1,-16
8089,0,0,-5,-12,-23,-29,-29,-10
8089,3,-1,-9,-5,2,-7,3,11
8090,3,-16,27,12,22,72,2,-18
8090,-3,9,-8,9,8,-2,0,19
8112,4,18,-3,-3,-23,2,8,-13
8112,-41,-24,-7,-12,-14,-47,-21,15
8113,10,15,-1,-3,12,11,7,-17
8113,-5,-12,16,16,17,25,2,-25
8126,12,3,-5,1,1,-1,-3,-3
8126,-14,1,2,4,-21,1,-6,-5
8126,-12,-15,-6,-20,-19,-59,-13,-1
8126,6,-16,-7,-14,0,16,-14,-20
8149,-16,-7,-1,24,19,45,9,8
8149,28,1,3,15,17,20,26,7
8150,6,-9,-3,-8,-11,-55,-20,-7
8150,-14,-14,-9,-18,-14,-9,2,14
8163,-7,40,11,-4,-6,18,5,41
8163,-6,-3,-17,1,12,11,2,9
8164,8,2,5,6,-11,-4,0,-10
8164,1,3,-8,-8,-9,0,-16,9
8186,-6,-17,-2,-7,6,-1,2,-10
8186,-25,-1,12,6,16,33,7,-2
8187,39,14,1,-15,6,31,-6,20
8187,-28,-4,1,18,-2,2,12,-24
8209,1,-29,6,7,4,-57,-14,15
8209,-4,4,-2,-6,-27,-19,-16,-38
8210,-13,-51,-22,-13,21,94,14,3
8210,13,37,8,6,0,-87,6,0
8231,23,-1,3,-10,-24,-7,4,-1
8231,-4,-5,-19,0,-10,-25,-28,3
8233,-14,-7,7,6,11,-2,2,-11
8233,11,-1,-7,9,11,52,22,9
8245,6,20,8,-7,21,29,5,1
8245,30,13,7,3,-14,-36,-1,11
8247,-7,8,0,8,9,94,7,20
8247,6,2,9,-10,-9,-84,-3,34
8269,-3,11,-8,-2,-41,-39,-23,-24
8269,-20,-31,-22,-6,-9,2,-2,53
8269,-23,-4,0,2,13,-5,-27,-9
8269,12,3,4,0,21,60,16,-2
8283,2,-2,1,-18,4,16,25,-2
8283,-3,-11,5,12,1,0,-9,-2
8291,-4,16,1,3,0,-4,1,2
8291,-12,9,-2,-10,-6,-2,-3,3
8305,9,-2,-4,-7,-12,-32,-27,-25
8305,-7,1,4,4,0,-2,7,-33
8306,6,-7,-1,-4,-11,-39,-7,4
8306,-8,-1,-7,9,23,66,-11,-23
8329,14,-14,1,4,11,-3,46,10
8329,-8,-8,0,-13,-24,-48,-21,3
8329,3,19,-1,-8,-10,-5,5,-15
8329,-1,-7,-5,-4,-9,4,-32,-27
8352,-25,-27,-13,-30,-9,-18,-25,5
8352,35,16,1,31,20,41,9,23
8353,18,1,4,6,8,4,21,-27
8353,11,-7,-1,0,5,-5,7,-20
8366,-2,2,-1,-7,-13,-32,-20,37
8366,1,6,5,2,-8,12,1,2
8367,-10,-10,-10,-1,-2,-30,9,-12
8367,3,17,-11,-11,0,7,13,-1
8389,10,8,10,10,6,-2,-9,-12
8389,-10,1,2,-12,5,11,18,1
8390,-23,-17,-3,14,0,-4,-9,9
8390,31,1,-5,-7,5,40,41,26
8411,3,23,6,9,0,-11,-25,-8
8411,0,-1,-11,-20,-24,-43,-25,0
8413,3,-6,3,9,-7,5,7,9
8413,1,-5,-2,-8,7,54,-3,-1
8426,1,-13,2,13,1,-40,9,-20
8426,19,4,20,3,12,33,25,79
8427,-1,-5,-31,-6,-5,-26,-16,-21
8427,7,15,5,4,-28,-17,-20,-22
8449,3,2,-4,-1,14,17,-6,20
8449,-17,1,5,-1,26,65,17,-16
8450,-2,1,5,-9,-8,-51,2,24
8450,-8,5,4,5,-14,2,-7,-3
8463,-25,-16,-12,-3,7,25,4,-29
8463,23,24,8,-4,6,27,19,48
8471,-7,-12,-7,8,-19,-41,22,12
8471,9,-9,-3,-11,-11,-29,-46,-39
8486,7,-10,-9,3,-8,-15,11,26
8486,-35,-21,6,-9,10,2,-6,-37
8486,23,25,4,10,23,49,-2,-2
8486,-6,-10,-1,4,-15,-97,2,3
8509,6,-1,-9,-22,-33,13,-17,-30
8509,-15,-9,-10,3,19,11,-2,-18
8510,-11,5,8,-9,-34,-65,4,19
8510,11,-5,0,1,13,26,-8,13
8523,-1,7,5,1,25,25,-14,-19
8523,-13,-8,3,-6,-3,-25,10,-18
8531,-9,12,-8,-6,3,36,2,35
8531,1,-14,-5,21,-3,-11,0,6
8554,-6,-5,4,0,-3,6,18,16
8554,2,-17,-9,-1,-2,-43,-14,-6
8555,-10,7,-1,-20,-9,-34,-11,-31
8555,1,-13,3,5,-11,9,17,78
8568,1,1,0,14,26,67,2,-27
8568,8,10,2,-8,-7,-16,-13,-17
8576,-4,-3,0,5,7,16,0,-5
8576,-20,-4,-2,-7,10,13,1,-16
8592,3,-2,-3,-2,-26,-67,7,2
8592,18,17,-1,-6,-31,-43,-31,0
8592,-10,-20,0,-8,20,52,14,-9
8592,30,25,7,9,13,20,12,-15
8607,3,5,-5,1,16,48,10,81
8607,-11,12,-2,17,4,-35,-4,-22
8608,12,-8,-2,-2,-7,-27,-19,2
8608,-27,6,-5,-16,-21,-20,-11,-18
8628,3,-1,2,5,10,49,31,-6
8628,-1,0,9,18,26,-3,-2,-7
8630,-3,-10,-6,-14,-43,-53,-13,10
8630,-3,-10,-4,-10,-18,-36,-23,20
8651,-8,8,-1,-6,10,26,9,-54
8651,10,-4,-7,-17,9,54,36,56
8652,3,-1,21,22,13,-20,-18,0
8652,2,-22,-27,1,-10,-24,-18,-13
8666,3,12,-2,6,-15,-25,-8,-1
8666,-2,-8,-3,6,28,78,35,-13
8666,6,10,2,-10,-12,-49,-21,-9
8666,-3,-7,1,-15,-13,11,7,-2
8689,3,3,7,4,4,-29,-25,4
8689,-17,-6,-7,8,-16,-32,-8,48
8690,9,21,-1,0,15,43,28,10
8690,-8,-12,4,2,15,41,-3,-11
8711,-1,8,-9,-4,-4,-19,7,-15
8711,-1,-10,9,-21,0,23,-8,-22
8712,-15,-27,-24,7,-11,-17,3,-17
8712,14,0,5,2,-18,-26,-13,-32
8726,2,8,11,3,13,-2,7,17
8726,-1,-3,-15,-11,11,10,20,-17
8726,1,4,9,-1,-3,22,-12,4
8726,-9,-4,2,-3,-3,-13,1,-13
8750,-7,-6,8,1,-10,-25,6,-11
8750,9,-5,-10,-3,-21,-24,-28,10
8750,-3,9,1,3,20,34,-3,-21
8750,-1,14,-4,-5,38,99,21,16
8788,-17,-17,2,4,-24,-81,-14,10
8788,-19,14,9,12,-31,-22,1,-11
8789,0,-18,-8,7,14,25,-8,-6
8789,-1,3,0,0,20,0,-2,-9
8790,0,11,5,-9,5,26,20,20
8790,-7,-23,-16,3,-25,-35,-27,-53
8794,1,16,3,-14,-18,-64,-18,47
8794,-7,1,3,3,17,6,8,7
8809,-4,3,0,-11,25,90,14,-13
8809,10,7,2,-4,-24,-59,9,-2
8810,-18,-8,2,11,-15,17,-3,-17
8810,10,-18,-7,5,-2,-30,-6,3
8831,-1,16,1,10,1,0,-8,1
8831,18,-4,2,-5,9,23,-8,4
8833,12,-1,8,-9,22,91,23,-29
8833,-9,12,3,3,-5,-11,19,21
8846,-11,-24,-20,-6,-39,-69,-62,-40
8846,1,5,-2,2,21,24,19,51
8846,3,3,2,0,3,-12,11,-8
8846,0,-3,0,-1,-14,-8,31,5
8869,1,-18,-7,-11,-9,-41,-41,-2
8869,-3,7,6,13,15,62,8,-24
8869,2,-10,-8,5,12,14,-12,3
8869,-7,-2,1,-1,-13,-44,-5,5
8892,12,-2,-1,3,4,50,16,12
8892,-7,-15,-5,-15,-12,-38,-16,-13
8893,3,0,-2,-9,-10,3,6,16
8893,-1,21,2,1,25,33,-1,-29
8906,-2,-9,-2,15,8,-2,26,54
8906,8,-11,4,-3,-31,-9,-9,2
8907,4,6,2,-3,7,-16,-14,-5
8907,-8,-16,-14,-9,0,5,7,-2
8929,-1,7,0,-7,2,-24,16,-23
8929,-2,-1,0,10,1,-8,-19,-2
8930,-3,-1,7,-14,12,11,11,6
8930,-1,5,-3,15,-24,-31,-10,-1
8959,-15,-18,-10,-9,-17,3,-15,-14
8959,5,24,0,-6,19,36,12,-2
8960,3,12,3,6,-2,-28,3,-7
8960,14,2,9,2,16,85,6,11
8965,0,-2,-4,-2,-9,-77,5,-30
8965,-4,-4,7,-11,-39,-59,-32,12
8974,19,23,-13,-2,3,-11,-4,-11
8974,-4,-6,-7,0,29,64,3,16
8989,-5,1,5,11,-9,22,3,-18
8989,8,-1,0,3,21,-1,-5,3
8991,-4,-2,-1,-4,2,41,5,0
8991,-10,2,1,-10,-37,-96,-4,0
9012,-1,-2,0,-1,-9,-1,-26,3
9012,-9,-2,-7,-14,13,6,23,-12
9013,-4,-6,-3,-2,-6,7,-16,3
9013,-20,-7,17,21,10,-17,6,7
9025,2,-2,-20,1,22,68,25,7
9025,4,-1,7,14,6,21,7,25
9042,-6,-16,-5,-4,-27,-52,-18,-28
9042,8,9,4,-5,-3,-30,-15,41
9049,-13,-3,5,-20,-6,-23,-9,-3
9049,-5,-18,-16,11,9,54,4,-12
9050,1,-5,2,4,-13,-29,13,-5
9050,2,-12,3,-2,-1,-17,5,52
9072,19,14,-2,-1,7,33,13,10
9072,-3,-1,-9,0,-4,-45,-6,-15
9073,-5,-4,5,-9,-15,-45,-18,2
9073,-7,-10,-5,-11,-3,47,-13,-57
9084,11,-5,-8,9,30,3,3,10
9084,-10,29,6,-7,-39,-37,5,-13
9101,2,-8,2,0,-10,-21,-5,-3
9101,3,-2,-12,-4,20,53,3,-13
9109,-9,-5,-4,5,2,-14,-3,4
9109,0,-1,1,-7,16,53,26,-10
9110,-21,0,-3,0,-21,-48,-22,-35
9110,6,7,-2,-22,-8,-12,-27,26
9132,-9,-8,6,16,17,70,29,-6
9132,2,0,-2,-2,3,-22,-20,4
9133,-11,-1,3,-2,-12,-5,15,0
9133,-7,-4,-11,-9,-11,-34,-13,-37
9145,5,3,4,-4,12,18,-4,12
9145,18,-2,1,6,-22,-42,-9,-4
9154,-2,-7,-7,5,29,123,31,24
9154,-4,-5,15,-1,6,-95,-5,-22
9168,-26,15,1,-11,-38,-46,-16,-10
9168,0,-8,-21,-3,4,9,-2,-27
9170,-2,-16,4,9,20,9,-17,23
9170,17,17,4,5,-4,35,12,45
9199,0,-6,-1,-5,-4,2,11,-8
9199,-26,-14,1,-6,12,-23,-1,-15
9200,0,0,-5,-20,-30,-6,-3,9
9200,-8,-4,-3,7,9,8,8,-14
9205,5,-10,-10,1,14,-19,10,-3
9205,-3,8,9,-2,-20,-22,-17,13
9214,7,4,-9,5,-1,-7,-1,8
9214,-3,-2,0,4,30,76,3,-5
9229,-11,-4,6,-14,-29,-31,2,-2
9229,-15,-6,-11,-11,-12,2,-4,-26
9235,-4,11,7,4,37,27,5,57
9235,1,-4,4,17,-9,-58,5,-18
9251,4,0,-6,-3,-38,-34,-21,21
9251,-9,-14,0,-18,0,5,-10,0
9253,7,6,7,0,11,-6,2,-22
9253,-12,-5,-15,11,0,27,11,-10
9265,21,-1,3,16,37,77,6,27
9265,21,10,5,2,-11,-49,11,1
9275,2,6,0,-15,-6,35,-17,-9
9275,-4,-7,6,11,5,-36,-4,-5
9289,8,7,-14,-15,-28,-73,-15,-15
9289,-5,-3,-4,8,15,55,-5,-16
9291,13,2,4,-1,1,-26,15,-18
9291,16,13,3,-3,-25,-14,-5,5
9319,-20,-8,-7,-2,21,64,-2,-5
9319,9,7,7,9,-3,-33,4,7
9320,-6,-12,-9,-7,-18,-29,-23,-24
9320,2,-1,-4,-15,-8,6,-10,-3
9325,4,7,9,-1,11,14,25,2
9325,2,4,-3,16,23,29,-2,26
9341,-7,-11,0,6,-5,-45,12,-4
9341,-7,-4,-5,-23,-48,-12,-38,-10
9349,9,21,4,12,15,-4,-17,-3
9349,0,-4,-2,-6,8,23,14,4
9350,2,-4,-2,14,1,8,25,11
9350,-8,8,-2,-3,0,-13,-9,-25
9372,-4,-18,8,-1,-7,9,4,-20
9372,-8,11,1,-2,14,75,13,1
9373,-2,0,-6,4,7,-72,-11,-4
9373,1,-1,-3,-10,-21,-25,-13,-5
9385,-4,-18,-7,-8,-14,6,-12,-6
9385,3,9,6,4,18,14,-10,6
9394,-13,3,-2,-3,11,59,36,-7
9394,1,-7,-2,-20,-16,-24,5,3
9409,0,10,6,12,-19,-63,-36,16
9409,-2,22,1,24,33,67,29,-5
9411,4,1,2,-2,6,-3,-6,1
9411,-3,9,-2,3,-7,-15,4,9
9432,2,-9,16,-6,0,39,0,-1
9432,16,-22,-26,-8,-13,-54,-21,-8
9433,-6,14,3,2,-14,12,-8,-5
9433,-3,-1,3,1,14,49,15,29
9445,7,-1,-5,-12,10,-8,7,-10
9445,-6,-5,6,-2,-18,5,-13,-10
9455,5,-6,-3,-4,-3,-37,-21,13
9455,4,-24,-13,-5,2,17,8,3
9469,-11,6,-1,3,-3,4,12,-9
9469,3,-2,5,-4,6,-10,12,21
9470,-1,-2,-3,-12,-13,11,-2,-5
9470,-1,-12,-10,-3,2,-4,-14,-10
9499,-9,12,4,14,26,1,24,3
9499,-7,-6,0,-4,-24,-26,-23,-13
9501,-6,-5,-6,-5,-2,-8,-10,-12
9501,-2,-1,2,3,-3,-10,25,2
9505,-3,-4,-4,-7,0,7,-2,1
9505,4,-1,-2,-15,-8,-24,1,0
9531,7,-6,6,12,25,72,10,2
9531,-5,5,-4,9,25,-4,11,-6
9532,-2,-11,-10,-7,-41,-53,-4,9
9532,-5,-2,8,3,-23,-41,-33,-8
9535,-3,7,-1,-7,9,19,-8,-9
9535,1,3,2,2,14,13,9,0
9551,4,6,2,1,-7,16,-9,-5
9551,-4,-2,-4,3,3,-21,8,-10
9557,0,-1,-7,4,-2,-13,-5,15
9557,-1,10,9,1,13,31,4,1
9573,1,-8,-4,0,-13,-47,0,-9
9573,-3,-9,-1,-11,-7,8,-3,9
9576,-6,1,-6,3,9,26,9,39
9576,-10,2,9,2,-2,-27,-3,-13
9589,21,5,-12,-11,-4,-5,-29,-12
9589,-8,12,3,1,-6,13,7,46
9591,6,-5,-1,-5,2,-61,1,-3
9591,-9,-8,-2,3,-2,35,-1,-11
9611,-1,-3,4,0,6,26,27,16
9611,-6,0,-1,0,-2,-47,-11,-40
9619,0,-5,-12,-22,-11,2,-6,2
9619,5,7,2,15,1,-1,7,12
9634,-5,-6,-1,10,-7,-20,-16,-37
9634,0,-6,1,3,24,64,20,20
9636,-10,-10,2,-3,7,-8,21,-4
9636,16,13,-1,14,-13,4,-23,-18
9657,-13,0,-6,-13,-10,21,-20,-24
9657,-2,-8,0,-12,-7,-31,1,-3
9658,-10,-4,7,7,6,20,-13,-18
9658,20,6,-4,-6,0,28,20,14
9672,1,5,7,-6,8,13,32,13
9672,-10,-14,-8,4,-22,-71,-28,-3
9673,-5,5,0,-1,-5,44,4,-25
9673,-13,-12,-9,-3,13,-52,3,2
9694,6,7,3,-10,-23,-58,-21,5
9694,-2,-8,-7,-4,-3,10,-15,-42
9695,9,-4,0,6,13,32,8,48
9695,-2,0,1,-1,15,4,1,1
9708,-1,2,-5,-3,-9,10,4,13
9708,-3,-20,3,-3,-12,-4,8,-23
9716,16,10,0,12,-7,-30,-18,-11
9716,-5,6,-5,-12,7,44,-1,5
9731,-1,-4,-2,9,17,4,16,12
9731,-2,0,0,9,-8,0,-2,11
9739,1,-3,-2,-9,-5,9,-3,-8
9739,1,0,8,1,-9,-44,11,6
9754,1,-14,-3,11,12,8,-21,-38
9754,7,10,-3,-9,20,25,9,14
9757,0,-2,8,8,-33,-81,-9,6
9757,-13,-9,-22,-22,-28,-34,-32,-24
9768,5,-9,5,7,16,38,9,3
9768,2,11,0,1,20,48,44,-1
9775,-14,-20,2,-7,-4,-48,-21,-6
9775,-4,-8,-5,2,-23,-23,-18,-13
9792,4,25,4,4,29,30,-9,22
9792,1,2,-1,7,1,24,22,19
9794,3,5,3,-9,-15,-26,1,-16
9794,-4,-8,1,-8,0,72,-6,6
9814,2,-1,-5,-3,-10,-55,14,34
9814,1,4,-3,7,22,64,-12,34
9816,-2,14,-6,0,2,-37,12,-8
9816,1,-3,3,9,-9,-20,-21,-15
9829,0,2,-1,-17,5,50,1,5
9829,0,2,7,-1,0,-31,6,-3
9835,-2,-11,-10,6,-23,2,-9,0
9835,1,9,1,1,6,-16,-6,-1
9852,-7,-32,-14,-15,22,80,12,-13
9852,-6,14,7,-1,-22,-70,26,6
9853,2,-1,-7,1,1,9,-39,-62
9853,-10,-1,0,-9,-3,-20,-11,59
9875,-5,-12,1,16,12,88,15,-2
9875,-5,-6,0,-9,7,-69,-16,-10
9876,12,10,-5,2,-14,37,12,-3
9876,8,-1,0,2,-7,-15,-3,-15
9888,-7,1,-6,-20,-36,-69,12,14
9888,-9,-5,-2,10,3,17,-35,-18
9896,8,1,3,0,43,63,47,29
9896,0,-8,7,13,9,17,7,-6
9912,3,3,-6,2,-30,-70,-10,1
9912,-4,3,8,-9,-13,-18,-35,-32
9913,3,-3,-17,-15,4,-3,4,2
9913,4,1,-1,10,32,58,20,49
9934,2,14,6,3,-5,-23,18,-13
9934,11,0,-2,10,-26,-24,-13,1
9936,-14,-19,2,3,18,81,0,-14
9936,0,2,-2,-3,13,-19,-3,-20
9948,7,-9,2,-5,-38,-89,8,7
9948,-1,14,-2,-12,-4,13,-6,5
9955,-6,-6,1,10,11,6,-9,2
9955,1,-4,-14,-6,-3,-4,10,-21
9971,-15,-7,8,2,13,59,-28,-10
9971,8,-2,-5,-5,-9,-11,21,66
9973,8,15,9,-14,4,-1,21,5
9973,-3,2,0,6,-13,-28,-8,8
9994,-9,-14,10,17,20,30,-26,-15
9994,-4,-6,-11,-10,17,30,27,-7
9995,3,3,-11,6,-38,-63,-20,9
9995,-6,-5,1,-9,-3,3,3,-20
9,-12,2,-5,-3,11,31,-9,3
9,9,-3,8,13,10,-75,9,-5
15,-29,1,2,-5,-24,-25,-16,-1
15,-20,-16,-5,-16,-5,14,-11,-24
31,2,27,1,5,25,43,13,7
31,-2,-9,1,7,23,62,2,-13
34,0,1,-6,-12,-21,-33,-15,-18
34,-3,-9,0,5,-19,-33,18,34
54,2,19,0,-4,-2,-52,-24,-18
54,-2,3,-1,4,-1,38,-5,-14
56,3,0,7,0,10,-21,17,16
56,4,4,5,4,8,7,-8,-23
68,4,-7,-2,-6,-7,4,-8,4
68,9,13,8,-27,-9,0,1,4
77,-5,-13,-22,16,3,-27,-2,1
77,3,4,1,13,12,15,2,-1
92,1,-1,-3,8,-1,-14,5,-23
92,4,0,5,-7,-5,-3,13,67
93,1,1,0,-7,31,76,-7,-18
93,6,-2,1,-5,-42,-85,7,9
114,1,-16,-4,-7,-9,-18,-28,-2
114,-14,3,-8,2,8,27,-8,-37
115,2,5,4,2,-1,-17,-8,-2
115,-18,4,9,-2,4,25,4,-3
128,1,-9,-4,-11,4,-5,16,-4
128,-9,-10,-12,26,8,27,7,-6
136,0,3,7,9,-10,-4,3,13
136,0,-5,-4,-20,-3,3,-8,-12
152,-8,-3,-5,-3,-18,-16,-11,-42
152,5,-2,-1,0,27,38,21,81
153,-2,5,6,2,-21,-36,0,7
153,2,-2,-2,-2,-19,-33,-34,-16
175,-3,-4,-3,0,7,2,6,-3
175,4,0,-5,-2,2,49,2,-32
176,-1,-4,4,1,3,-11,-5,-5
176,5,17,4,-3,-4,-7,8,14
188,-10,10,4,6,2,-5,-5,7
188,7,-15,-1,-19,-3,20,-8,-19
204,7,20,-6,15,14,8,10,27
204,0,-4,-2,4,2,3,8,-16
212,-7,-8,-7,-10,-33,-43,-21,11
212,-6,1,-1,-1,-8,-27,-20,-22
213,-4,-6,4,-17,26,102,19,-77
213,11,5,1,12,-4,-62,30,41
234,7,-6,-1,11,-9,-34,-21,-12
234,-3,-11,-5,-8,-11,-22,-16,-17
236,-1,-8,-3,-7,0,5,-15,-16
236,-2,4,4,-1,17,53,6,-6
248,6,-6,-5,-4,13,52,32,22
248,2,15,0,4,-15,-47,-8,-13
257,-4,-4,6,-9,-9,-16,-2,21
257,0,-3,-6,0,8,37,-8,0
271,-5,-22,-11,9,-1,-56,-4,8
271,13,27,6,2,-4,29,-7,-11
273,-6,-3,-2,0,-19,-35,2,6
273,3,-2,0,-15,-11,-30,-23,-10
294,6,-1,-1,-1,21,43,0,11
294,-2,-5,-4,9,13,21,29,68
296,5,1,5,-2,-4,0,1,13
296,-2,-10,-6,-1,2,-2,-24,-8
308,-2,19,0,-4,-9,0,0,-10
308,-12,-15,-3,-2,-10,-14,-4,-30
316,15,-2,-2,-1,-4,-5,2,18
316,-3,-6,-3,-3,6,17,3,-6
331,0,11,6,5,11,24,12,3
331,-4,-13,0,4,0,-35,8,-4
337,-6,-2,-11,-2,-5,-3,-16,-8
337,-4,7,-1,-8,-13,-5,-11,-14
354,1,-6,0,-11,-7,-20,1,1
354,-5,-6,6,17,20,36,0,-14
356,4,-10,-8,-2,-6,-10,15,11
356,9,-1,-4,3,2,-6,10,-3
368,2,-2,0,-6,-6,-8,-2,-2
368,-7,-9,-4,-8,-17,-39,-27,-64
376,-2,-4,0,2,12,29,9,52
376,1,-1,2,4,10,27,7,-1
399,-3,4,-1,-2,3,23,20,3
399,-5,4,0,-5,-22,-55,-3,-23
400,-7,-17,0,6,-7,-23,-24,-16
400,-1,7,0,4,8,33,4,-1
414,7,6,1,8,18,27,4,5
414,6,6,1,-5,8,37,-2,13
416,-6,2,2,-7,-26,-91,-14,-8
416,-12,-14,-8,-13,-10,-4,-2,7
428,8,7,2,3,4,19,2,-9
428,-3,1,-5,7,8,-16,8,9
437,-5,1,4,4,15,37,18,-4
437,-1,-4,4,-5,-13,-19,-7,-15
451,2,-4,-8,-7,-17,-34,-23,-2
451,2,0,-6,-3,-8,-1,-2,30
465,0,2,2,10,31,92,3,-10
465,-6,-2,-1,-3,-7,-61,-2,5
474,1,17,6,-5,-7,2,3,4
474,1,-13,-2,3,-6,-2,-14,-6
475,-3,15,6,-1,-3,-10,10,-32
475,8,2,0,4,23,88,2,77
496,-6,-4,-1,4,7,0,4,-18
496,0,0,-2,-6,-37,-79,-11,19
498,-1,-8,-6,-10,-8,-15,-18,-2
498,-4,-2,-3,-5,5,15,5,-23
511,-5,-4,-3,4,10,11,6,-8
511,6,-3,-1,-3,17,27,11,8
518,-4,-3,-1,-1,-13,-26,-9,-3
518,-1,3,0,3,-11,-20,0,-9
534,-1,-10,-3,-9,-9,-13,-10,8
534,5,4,8,-4,5,34,21,-17
536,3,-18,-19,7,1,-11,3,7
536,7,15,2,4,5,0,8,-16
557,-4,-6,-2,1,-1,17,-8,8
557,-4,0,0,-4,-3,-32,-8,-7
558,-3,0,1,-14,-6,11,-1,-1
558,-2,-1,0,7,-3,9,6,-5
571,-3,-16,-4,10,-4,-23,3,0
571,8,1,-4,-2,16,54,-9,-3
578,7,4,3,3,3,-28,12,-13
578,-7,-5,-3,-9,-26,-34,-9,-6
594,-10,8,0,-10,-2,0,-21,6
594,-4,-5,-5,-3,-2,-14,-11,-16
595,-2,8,1,2,5,12,0,-10
595,7,15,7,-3,10,29,-5,-13
616,5,-7,-2,4,-1,-9,8,31
616,-10,-8,-5,2,3,2,10,-4
618,-1,-3,2,-5,7,22,-1,5
618,0,-9,-4,3,-22,-40,-9,3
638,4,2,0,-5,-9,-18,-17,-1
638,-3,5,-1,-9,-7,-1,0,-5
647,-8,-12,2,-2,2,13,-7,5
647,5,0,3,12,25,-5,29,11
654,3,3,-3,-3,-1,3,-8,-19
654,-9,-3,-2,-3,-23,-18,-4,2
656,-3,-7,-6,-7,-11,-19,-13,-4
656,-7,-6,-3,-4,23,38,-5,-7
676,7,5,4,5,2,6,16,-1
676,0,3,-3,-3,-2,5,19,-1
679,-2,6,0,-3,-11,10,-7,13
679,-6,-4,-5,-24,-14,-45,-4,-7
690,-10,-11,-1,23,11,-7,-6,2
690,11,-13,-2,4,8,14,0,2
699,5,38,6,4,-5,-3,-2,-3
699,-2,-8,0,7,11,37,9,-3
714,-3,-3,3,-11,-4,2,14,-1
714,-6,-4,-8,-10,-1,-9,-3,0
715,2,-6,1,5,-8,-6,-13,0
715,2,2,-1,2,2,4,5,10
737,-4,-1,-5,-9,-11,-8,-4,-17
737,-6,0,-3,-2,-3,-31,-11,-4
738,3,0,-5,-7,8,40,1,5
738,-3,0,3,-9,-4,-42,-7,-3
750,-5,-3,-6,4,2,22,9,0
750,1,21,7,7,-2,12,-11,0
767,12,10,5,5,10,-15,9,4
767,-5,-11,-3,6,-7,62,-5,-7
798,2,3,0,-7,2,-56,2,4
798,-7,-4,0,-4,-6,-9,-8,-3
799,-6,-5,-4,-2,-6,-12,-2,-7
799,6,1,-3,-5,-2,13,4,2
800,-8,-17,-4,-6,-1,0,11,7
800,1,7,-4,16,9,22,-18,1
804,6,-8,4,-1,-4,-13,22,6
804,-3,-4,-3,2,0,12,-20,-7
810,-10,-4,-1,-9,-12,-16,-9,-5
810,4,-7,-1,-10,-5,-7,2,-1
818,-3,-2,-5,-5,2,-18,-8,2
818,1,0,-1,3,11,25,9,-4
841,-2,1,2,7,6,17,8,7
841,-8,-5,2,2,-7,-17,-25,-3
843,2,12,-1,-15,-3,15,22,6
843,6,7,-1,11,0,-37,-7,0
856,5,3,3,4,-3,4,-7,-12
856,-3,-5,0,-2,4,36,11,0
858,-12,-16,-5,-9,-13,-55,-7,-2
858,-5,7,3,-3,-1,40,3,-2
870,13,13,3,3,5,-39,-1,-2
870,-4,-2,0,8,-5,-3,7,-2
879,0,-11,-4,-2,5,16,-12,0
879,-4,-4,-2,1,2,-6,3,1
894,1,-3,4,-2,5,26,1,-4
894,2,-11,-1,-10,1,-20,7,6
896,-3,27,-7,17,3,40,4,-1
896,1,-9,-2,-3,-17,-52,-13,-4
917,-1,3,-2,-9,-8,-19,-19,2
917,-5,-3,0,-9,2,-6,9,3
918,-11,-12,1,4,12,43,-6,0
918,26,5,1,2,-5,-47,-1,-1
930,-1,-4,-2,-1,-2,11,-5,-5
930,-4,2,-2,-7,-4,1,-5,1
940,1,-8,0,-2,-11,-17,-12,-12
940,-12,-10,-2,-4,5,27,4,6
954,0,1,-3,-10,10,45,22,3
954,12,5,-3,16,3,-27,6,4
956,-6,-16,0,4,-13,-16,-8,-9
956,-7,-19,-7,-10,-15,-31,-18,-9
976,6,1,-1,-4,-4,-11,0,4
976,-6,-6,-1,-1,10,30,11,-4
978,6,-2,2,0,8,4,3,1
978,-8,-4,-4,-1,2,-10,-4,2
990,3,-2,-2,-2,7,94,20,5
990,8,7,5,1,-10,-92,-18,0
1006,-6,-2,-5,-5,-14,-14,-1,-2
1006,0,-4,-1,-6,-2,7,-12,1
1014,2,0,1,14,5,-3,-5,-3
1014,2,8,4,6,5,27,1,-4
1016,5,5,1,-1,5,24,7,2
1016,-14,-1,-1,1,-6,-32,2,-3
1037,10,7,-3,-10,-1,-10,12,9
1037,-4,5,-4,-2,-11,12,-13,-2
1038,-5,14,4,2,-3,-34,-7,-6
1038,0,-2,-2,-1,11,41,-1,-6
1050,-5,-3,-1,-1,-4,-43,-17,-8
1050,-2,-2,-2,-10,-6,24,13,4
1059,-1,-12,-4,-8,0,0,9,-3
1059,8,19,3,6,-4,-8,0,13
1074,-9,-9,-1,11,1,-16,-13,-3
1074,-1,-2,0,-4,3,24,-4,-3
1076,-11,-13,-3,-5,-6,-25,-1,-3
1076,8,-10,-2,-1,2,1,4,2
1097,10,25,6,0,-5,0,-6,-3
1097,-8,-4,-12,-8,1,29,11,-9
1098,8,-3,3,-2,-1,-28,6,8
1098,-9,-7,4,9,1,3,6,-3
1110,-8,-9,-6,-1,-4,-2,-30,-14
1110,0,0,1,-3,2,2,13,5
1125,-3,4,-3,1,-1,9,11,1
1125,5,6,1,-14,-7,-12,-1,-2
1134,-10,-14,-10,1,-4,-1,10,0
1134,0,4,-1,-3,6,14,-20,-5
1135,19,15,7,9,2,-21,-5,2
1135,-4,1,0,0,-3,5,-1,-7
1156,-4,7,0,-6,-1,4,-2,-2
1156,-6,-16,-8,-8,-6,-15,-7,-5
1158,-5,-8,0,-5,-3,13,-15,-3
1158,6,9,1,15,7,4,12,13
1187,-5,-14,-2,-6,-3,-7,3,-1
1187,1,0,0,-7,-6,-7,4,2
1188,-3,-12,-7,2,-3,1,-14,-1
1188,-3,3,-1,-1,2,5,1,-3
1194,-1,-9,2,4,2,2,6,7
1194,1,-2,1,3,-6,-16,1,-8
1196,6,16,-3,-9,3,15,-1,4
1196,-6,-13,-9,-8,-5,-7,-11,-2
1217,8,13,-1,0,-1,-3,-3,1
1217,-3,12,10,14,7,-5,-3,0
1219,0,-16,-3,0,2,0,-13,-5
1219,4,13,3,0,2,7,24,8
1239,0,-4,-5,-6,-3,-5,-10,-2
1239,2,-5,-8,-14,-3,-7,-8,3
1240,-13,7,2,6,-2,1,3,-7
1240,-9,-22,-5,-5,-3,-2,-7,-3
1253,-6,10,6,15,-1,-5,2,-5
1253,13,15,-1,-4,-3,-4,1,5
1262,-9,-9,-1,0,3,8,-3,-3
1262,-6,0,-6,-10,-3,3,3,-6
1284,-3,-2,0,-6,-3,-3,4,1
1284,-10,-17,2,8,-2,-5,-16,-10
1286,12,2,-10,-13,0,3,13,5
1286,2,-5,4,10,4,3,3,-2
1290,0,1,-2,-6,-1,-2,-3,3
1290,0,-5,0,6,-2,-7,-3,-5
1299,-1,-12,-12,-18,-6,-4,-6,3
1299,8,33,9,4,0,4,-2,-1
1314,-4,-14,0,2,-1,-3,10,-5
1314,2,-2,3,4,0,0,15,9
1321,-4,-2,3,4,0,-6,-3,1
1321,-3,-12,-8,-6,-3,-2,-21,-7
1336,3,11,-7,-11,3,5,5,3
1336,1,3,9,5,4,3,8,-6
1337,-14,-9,-1,4,1,2,-3,-5
1337,3,-5,-4,-5,-2,3,-17,-2
1349,-12,-9,-5,-8,-9,-10,-17,-4
1349,-18,-12,-8,-12,-4,1,3,6
1359,20,-4,11,11,6,5,19,6
1359,-5,13,-4,5,-2,-1,-13,-8
1374,13,2,12,3,1,-2,0,4
1374,-1,0,-5,-1,-1,-4,0,0
1380,1,14,-8,-10,-4,-2,-8,-4
1380,-5,-8,4,-7,-1,0,5,5
1397,-3,-2,-6,-4,0,2,-6,-10
1397,-4,-10,8,8,0,-1,-20,-6
1399,-10,0,-1,3,-3,-3,0,-7
1399,2,-2,-3,-3,0,7,0,-10
1419,-2,0,-13,-15,-7,-7,6,7
1419,2,-3,-2,-3,-6,-15,-8,1
1421,6,1,-2,8,-2,-3,1,13
1421,0,-6,-3,1,3,-1,18,1
1433,5,-11,4,6,0,2,-7,2
1433,3,-3,-8,1,2,7,7,2
1440,-11,2,2,-1,-2,5,-4,-7
1440,-3,-9,0,0,-4,-7,-30,-15
1463,-6,17,1,-1,-4,2,13,2
1463,3,9,-3,-5,-4,-5,-8,4
1465,-4,-10,-4,-2,-2,-10,-1,1
1465,-7,-8,-1,0,-2,-2,13,9
1486,4,9,4,5,3,4,-3,-5
1486,-7,-1,-2,-1,-2,-1,3,-1
1488,-6,0,2,3,1,2,-9,-7
1488,3,0,-4,-2,1,-3,2,0
1493,2,-12,-5,-4,-2,-2,3,2
1493,1,4,2,7,3,2,3,-9
1500,-3,-2,-1,-5,0,0,-2,20
1500,-7,-1,-2,0,-3,-4,-1,-9
1517,-3,-4,-1,-2,-2,0,-6,-5
1517,5,-4,-7,-7,2,3,5,4
1518,6,4,1,4,0,-1,10,-4
1518,-10,-2,-6,-5,-3,-7,-7,-6
1540,8,5,8,4,0,-4,9,11
1540,-8,-18,-7,-3,-5,-2,-1,-13
1541,-3,16,1,4,0,-1,-2,-10
1541,1,4,6,14,20,-5,12,7
1562,-10,-14,-18,-9,-19,5,-1,-6
1562,-1,-1,9,-2,8,-3,-7,-18
1563,-8,-5,0,-5,-13,-1,-1,23
1563,-4,2,-9,-9,-1,-1,-6,-29
1577,-12,-1,3,6,11,-3,-13,-30
1577,-9,1,-23,1,12,-5,-6,-1
1578,26,12,39,14,4,9,24,87
1578,6,2,-3,-22,-24,-10,-14,-33
1599,-2,-17,-4,3,0,-3,24,118
1599,-27,-3,-16,-11,-23,-5,-30,-112
1600,29,5,8,1,7,-1,8,-12
1600,-2,4,-10,-3,-11,6,6,-94
1613,-31,-13,-19,-2,0,-14,-36,-82
1613,41,-3,20,40,29,-4,24,49
1622,-1,10,-34,-14,-29,12,17,32
1622,7,1,11,-29,-21,-3,-1,-2
1636,-4,3,-2,-6,-13,3,-8,-43
1636,-18,-6,-13,-7,3,-2,-14,-10
1638,-12,-4,-3,13,25,-6,-16,-48
1638,6,-3,2,16,12,-1,-7,-10
1659,-22,-6,1,-6,-1,-3,-9,-18
1659,38,29,19,6,9,20,44,81
1660,1,-6,7,-2,-4,0,-4,-88
1660,-5,0,2,2,2,4,2,-7
1682,-14,-10,-2,0,1,-8,-20,-52
1682,17,0,-3,-7,-12,-2,4,56
1683,-19,-11,-9,-8,-1,-1,-5,21
1683,-3,-8,-6,5,1,-3,-3,49
1696,12,9,6,8,5,5,12,19
1696,-6,-2,0,-7,-10,0,-9,-18
1698,-10,-9,-7,-10,-4,-7,-21,-19
1698,-9,-3,3,8,7,-1,3,8
1718,24,9,7,3,-1,0,28,-1
1718,-1,2,-1,-8,-10,-3,-10,-52
1727,-1,-3,-1,0,5,2,-14,-25
1727,-2,-2,-1,3,-1,-6,14,35
1733,22,4,1,-2,5,9,4,4
1733,-2,-2,-4,-8,-11,-17,-17,-16
1748,-1,1,-1,0,0,-3,0,57
1748,1,-1,0,2,2,6,7,45
1756,1,4,1,1,-1,0,-23,2
1756,-13,-7,-1,-3,-5,-8,2,-19
1758,-7,-8,-4,-2,-1,-1,-6,-33
1758,4,3,1,1,1,2,-9,8
1779,1,1,1,-2,2,-1,11,-1
1779,-6,2,1,1,-2,7,-8,-2
1781,-1,-4,-4,-3,-1,-6,0,-9
1781,-5,-6,-3,0,-2,-2,5,-23
1792,5,8,0,1,2,1,-2,-8
1792,-4,-4,0,-2,-2,0,3,8
1802,-4,-6,-5,-4,-2,-2,8,-13
1802,1,1,-3,-2,-1,-2,-17,-18
1816,17,5,6,2,1,0,1,12
1816,3,2,0,-1,-1,4,21,1
1818,-3,-6,-2,-1,-1,-7,-8,-22
1818,-5,-1,0,0,1,1,8,6
1840,-18,-6,-4,-4,-5,-6,-9,-17
1840,0,-1,-1,-1,0,1,-2,21
1841,-4,0,-1,2,0,0,-1,-8
1841,6,-1,1,1,1,-1,-8,4
1853,0,-1,-1,0,0,1,11,-7
1853,-8,-2,-2,-1,-2,-3,-11,-2
1861,-8,-1,-2,-1,-3,-5,-1,-9
1861,0,2,0,1,-1,-1,-2,-1
1876,-6,-4,-1,-1,1,2,4,11
1876,-1,0,-1,-2,0,1,-3,-15
1878,-2,2,-1,-1,-1,0,0,-4
1878,-2,-2,-1,1,-2,-4,6,7
1899,-2,-5,-1,-2,-1,-4,1,-5
1899,-5,-3,-2,-3,0,1,-12,-7
1901,6,3,2,-2,-2,2,11,4
1901,1,1,0,-1,2,1,9,1
1913,-4,-2,-2,0,-2,0,-4,6
1913,-3,1,-1,0,0,-3,-3,0
1922,2,-2,0,-1,-2,-1,-5,1
1922,-3,-2,-1,-1,1,0,-1,-4
1937,-1,-2,0,-1,0,0,0,1
1937,-3,-2,-1,-2,0,-1,-1,-1
1938,1,1,-1,-1,-2,-1,-2,-7
1938,0,-1,-1,-2,-2,-1,-1,1
1959,2,-1,-2,0,0,-1,-3,7
1959,-2,-3,0,0,-2,0,2,-2
1960,-1,1,-2,0,0,0,1,1
1960,-2,-2,-1,-1,-3,-2,-1,0
1972,3,1,-1,-1,0,0,-1,2
1972,-5,-2,-1,-1,0,-1,2,-4
1981,-3,-2,-3,-1,-2,-1,0,-3
1981,0,-1,-3,0,-1,0,-2,-2
1996,-3,0,-1,-1,-1,1,-1,-2
1996,0,-2,-2,-1,-2,0,-1,-2
1997,2,1,0,0,0,0,-3,-1
1997,-2,-2,-1,-1,-2,-1,0,-2
2019,2,-1,0,0,1,-3,2,1
2019,5,1,-1,-1,1,-2,2,1
2021,-2,-1,-1,0,-1,-2,-1,0
2021,-2,0,-1,-1,-1,0,-1,0
2033,-3,-1,-2,-1,-1,-1,-1,1
2033,-3,0,0,-1,0,0,0,-1
2047,3,0,-1,-2,-1,-1,-2,-2
2047,-3,-1,0,-1,0,0,0,-2
2056,5,-1,-3,-2,-3,-2,-3,1
