processing_time_ms
41.0
48.0
47.0
99.0
62.0
69.0
79.0
74.0
70.0
81.0
106.0
1623.0
93.0
68.0
98.0
61.0
60.0
62.0
100.0
89.0
66.0
68.0
56.0
81.0
63.0
86.0
80.0
1268.0
94.0
93.0
90.0
96.0
96.0
88.0
86.0
87.0
78.0
79.0
91.0
73.0
116.0
104.0
101.0
100.0
84.0
81.0
82.0
77.0
75.0
74.0
87.0
76.0
82.0
83.0
78.0
87.0
89.0
89.0
87.0
86.0
88.0
93.0
92.0
84.0
91.0
84.0
79.0
92.0
86.0
85.0
92.0
80.0
79.0
83.0
80.0
81.0
73.0
72.0
71.0
72.0
74.0
69.0
85.0
69.0
74.0
60.0
47.0
62.0
79.0
63.0
62.0
67.0
64.0
72.0
60.0
58.0
63.0
60.0
65.0
69.0
65.0
56.0
74.0
61.0
70.0
63.0
59.0
60.0
65.0
66.0
64.0
70.0
74.0
68.0
66.0
66.0
54.0
65.0
61.0
64.0
50.0
64.0
58.0
62.0
60.0
54.0
71.0
63.0
70.0
56.0
68.0
64.0
67.0
68.0
62.0
55.0
67.0
60.0
64.0
68.0
77.0
51.0
66.0
68.0
70.0
67.0
71.0
57.0
64.0
61.0
69.0
74.0
67.0
67.0
67.0
70.0
63.0
101.0
60.0
62.0
74.0
54.0
77.0
59.0
70.0
51.0
68.0
52.0
61.0
62.0
61.0
52.0
55.0
70.0
55.0
61.0
67.0
65.0
51.0
63.0
63.0
53.0
61.0
72.0
71.0
63.0
58.0
57.0
70.0
57.0
69.0
58.0
61.0
73.0
59.0
57.0
69.0
68.0
67.0
65.0
70.0
54.0
62.0
68.0
68.0
83.0
65.0
63.0
70.0
75.0
94.0
77.0
57.0
76.0
118.0
60.0
62.0
65.0
67.0
70.0
58.0
68.0
58.0
69.0
52.0
72.0
50.0
69.0
57.0
68.0
66.0
62.0
65.0
74.0
59.0
73.0
67.0
69.0
57.0
61.0
65.0
64.0
61.0
70.0
63.0
70.0
59.0
72.0
68.0
66.0
71.0
70.0
71.0
78.0
61.0
62.0
61.0
64.0
62.0
66.0
69.0
70.0
76.0
94.0
89.0
66.0
80.0
62.0
67.0
53.0
73.0
52.0
64.0
54.0
54.0
65.0
57.0
67.0
63.0
61.0
54.0
64.0
69.0
74.0
59.0
77.0
62.0
63.0
53.0
68.0
59.0
66.0
65.0
57.0
63.0
52.0
65.0
48.0
67.0
69.0
64.0
57.0
60.0
65.0
63.0
69.0
63.0
62.0
59.0
65.0
57.0
66.0
58.0
60.0
63.0
60.0
71.0
60.0
63.0
69.0
63.0
70.0
58.0
55.0
56.0
51.0
66.0
57.0
73.0
59.0
64.0
54.0
68.0
60.0
81.0
60.0
62.0
63.0
63.0
61.0
57.0
68.0
61.0
69.0
54.0
68.0
63.0
64.0
68.0
58.0
60.0
63.0
58.0
55.0
68.0
59.0
65.0
56.0
70.0
63.0
71.0
59.0
72.0
60.0
69.0
67.0
66.0
62.0
67.0
55.0
64.0
57.0
62.0
71.0
66.0
59.0
67.0
52.0
59.0
56.0
58.0
59.0
65.0
67.0
55.0
64.0
65.0
61.0
63.0
64.0
58.0
69.0
65.0
55.0
59.0
73.0
63.0
58.0
66.0
58.0
70.0
72.0
64.0
63.0
73.0
68.0
66.0
58.0
73.0
73.0
65.0
50.0
62.0
61.0
68.0
59.0
62.0
61.0
58.0
61.0
54.0
64.0
53.0
65.0
57.0
64.0
64.0
67.0
58.0
67.0
63.0
48.0
63.0
44.0
58.0
49.0
61.0
55.0
59.0
58.0
58.0
74.0
61.0
68.0
54.0
64.0
55.0
69.0
68.0
64.0
54.0
56.0
69.0
66.0
66.0
68.0
64.0
66.0
73.0
70.0
77.0
70.0
112.0
70.0
78.0
68.0
62.0
62.0
58.0
68.0
71.0
73.0
60.0
64.0
69.0
70.0
68.0
66.0
62.0
64.0
58.0
64.0
58.0
69.0
57.0
63.0
60.0
63.0
60.0
56.0
61.0
55.0
68.0
56.0
70.0
59.0
67.0
58.0
69.0
66.0
65.0
60.0
69.0
57.0
65.0
91.0
59.0
56.0
73.0
51.0
78.0
90.0
89.0
68.0
74.0
79.0
62.0
60.0
57.0
64.0
56.0
68.0
57.0
63.0
64.0
68.0
57.0
61.0
64.0
56.0
62.0
67.0
59.0
58.0
63.0
53.0
70.0
57.0
64.0
56.0
65.0
59.0
62.0
69.0
63.0
63.0
55.0
63.0
52.0
64.0
56.0
66.0
56.0
61.0
59.0
62.0
63.0
64.0
67.0
53.0
63.0
55.0
63.0
62.0
59.0
64.0
61.0
66.0
61.0
64.0
58.0
65.0
56.0
65.0
54.0
63.0
53.0
58.0
62.0
61.0
63.0
74.0
68.0
73.0
70.0
68.0
72.0
83.0
74.0
79.0
76.0
71.0
84.0
76.0
90.0
82.0
78.0
77.0
77.0
80.0
80.0
85.0
80.0
83.0
78.0
77.0
80.0
76.0
72.0
71.0
77.0
71.0
57.0
65.0
63.0
65.0
60.0
63.0
66.0
62.0
62.0
62.0
70.0
57.0
68.0
62.0
69.0
53.0
68.0
58.0
71.0
54.0
66.0
66.0
67.0
61.0
62.0
63.0
62.0
63.0
54.0
73.0
61.0
66.0
63.0
67.0
54.0
72.0
62.0
68.0
60.0
73.0
65.0
67.0
60.0
65.0
64.0
63.0
61.0
65.0
59.0
60.0
66.0
59.0
64.0
66.0
67.0
57.0
72.0
55.0
73.0
59.0
69.0
59.0
70.0
60.0
69.0
59.0
66.0
56.0
70.0
64.0
69.0
58.0
64.0
66.0
68.0
64.0
72.0
65.0
63.0
54.0
59.0
68.0
63.0
54.0
56.0
73.0
58.0
73.0
57.0
70.0
58.0
74.0
57.0
67.0
61.0
71.0
57.0
71.0
61.0
66.0
69.0
73.0
52.0
60.0
61.0
63.0
64.0
71.0
64.0
64.0
63.0
65.0
68.0
65.0
67.0
62.0
65.0
54.0
66.0
56.0
73.0
59.0
103.0
62.0
65.0
66.0
65.0
60.0
67.0
67.0
70.0
59.0
67.0
55.0
77.0
65.0
69.0
61.0
69.0
58.0
71.0
56.0
72.0
56.0
68.0
63.0
73.0
57.0
70.0
56.0
73.0
56.0
73.0
56.0
69.0
61.0
105.0
70.0
60.0
65.0
68.0
63.0
64.0
58.0
69.0
56.0
68.0
59.0
67.0
58.0
64.0
47.0
71.0
72.0
75.0
71.0
76.0
67.0
84.0
74.0
71.0
82.0
73.0
87.0
74.0
84.0
80.0
72.0
80.0
88.0
84.0
83.0
73.0
78.0
82.0
86.0
88.0
76.0
85.0
85.0
84.0
89.0
84.0
91.0
94.0
92.0
83.0
91.0
87.0
88.0
96.0
95.0
92.0
89.0
93.0
102.0
93.0
99.0
90.0
88.0
90.0
97.0
88.0
89.0
84.0
91.0
98.0
101.0
93.0
102.0
102.0
101.0
99.0
91.0
106.0
95.0
98.0
97.0
99.0
96.0
101.0
101.0
106.0
100.0
95.0
99.0
104.0
104.0
105.0
100.0
99.0
108.0
94.0
93.0
101.0
97.0
101.0
90.0
95.0
97.0
90.0
103.0
103.0
104.0
101.0
99.0
96.0
100.0
98.0
101.0
109.0
104.0
98.0
92.0
95.0
106.0
111.0
102.0
100.0
101.0
103.0
97.0
99.0
99.0
87.0
95.0
93.0
98.0
93.0
98.0
95.0
92.0
99.0
101.0
96.0
93.0
90.0
80.0
74.0
80.0
86.0
84.0
83.0
81.0
79.0
88.0
82.0
83.0
84.0
88.0
88.0
92.0
85.0
96.0
99.0
88.0
94.0
94.0
83.0
90.0
96.0
84.0
88.0
84.0
92.0
96.0
88.0
88.0
82.0
94.0
85.0
90.0
88.0
89.0
87.0
84.0
84.0
91.0
91.0
91.0
88.0
84.0
77.0
90.0
79.0
81.0
85.0
83.0
84.0
88.0
81.0
87.0
77.0
82.0
90.0
77.0
84.0
86.0
84.0
89.0
98.0
89.0
92.0
81.0
85.0
89.0
85.0
92.0
86.0
86.0
99.0
88.0
95.0
99.0
94.0
89.0
100.0
77.0
86.0
91.0
86.0
81.0
85.0
84.0
92.0
87.0
105.0
91.0
92.0
99.0
99.0
101.0
88.0
92.0
82.0
92.0
85.0
85.0
91.0
86.0
93.0
92.0
88.0
92.0
94.0
86.0
91.0
94.0
95.0
139.0
91.0
104.0
105.0
96.0
94.0
92.0
94.0
97.0
93.0
86.0
97.0
93.0
100.0
96.0
142.0
97.0
93.0
107.0
102.0
93.0
93.0
87.0
103.0
86.0
92.0
90.0
105.0
101.0
93.0
94.0
96.0
102.0
98.0
90.0
94.0
96.0
87.0
86.0
87.0
95.0
101.0
97.0
87.0
84.0
102.0
109.0
106.0
105.0
107.0
96.0
88.0
82.0
80.0
88.0
80.0
88.0
85.0
79.0
86.0
83.0
85.0
79.0
86.0
97.0
81.0
79.0
74.0
78.0
88.0
83.0
75.0
80.0
78.0
79.0
84.0
77.0
85.0
87.0
85.0
89.0
78.0
80.0
78.0
78.0
85.0
78.0
80.0
78.0
72.0
83.0
84.0
79.0
79.0
77.0
87.0
78.0
78.0
89.0
79.0
77.0
79.0
80.0
75.0
80.0
81.0
88.0
94.0
77.0
84.0
81.0
90.0
82.0
83.0
82.0
82.0
82.0
85.0
81.0
76.0
83.0
80.0
67.0
78.0
76.0
84.0
85.0
75.0
79.0
71.0
76.0
67.0
66.0
46.0
65.0
46.0
50.0
76.0
68.0
69.0
71.0
70.0
71.0
71.0
75.0
73.0
78.0
71.0
69.0
78.0
76.0
75.0
72.0
81.0
80.0
76.0
89.0
83.0
81.0
89.0
97.0
84.0
87.0
83.0
81.0
86.0
77.0
79.0
81.0
79.0
93.0
83.0
91.0
86.0
78.0
81.0
73.0
89.0
86.0
82.0
77.0
83.0
85.0
80.0
86.0
83.0
79.0
75.0
82.0
80.0
80.0
85.0
87.0
89.0
79.0
87.0
84.0
83.0
83.0
87.0
74.0
91.0
85.0
87.0
84.0
81.0
92.0
91.0
90.0
86.0
96.0
92.0
94.0
92.0
93.0
99.0
91.0
97.0
92.0
81.0
103.0
93.0
97.0
99.0
101.0
90.0
98.0
92.0
95.0
96.0
94.0
108.0
99.0
103.0
94.0
108.0
104.0
99.0
102.0
105.0
103.0
99.0
112.0
102.0
111.0
103.0
122.0
113.0
106.0
105.0
111.0
106.0
100.0
120.0
108.0
107.0
101.0
108.0
111.0
108.0
117.0
120.0
113.0
117.0
126.0
100.0
113.0
118.0
114.0
118.0
111.0
116.0
116.0
113.0
112.0
114.0
102.0
108.0
111.0
105.0
122.0
122.0
122.0
111.0
122.0
95.0
100.0
97.0
102.0
105.0
101.0
95.0
103.0
97.0
108.0
106.0
102.0
109.0
112.0
116.0
103.0
99.0
105.0
105.0
103.0
109.0
101.0
110.0
99.0
110.0
99.0
102.0
108.0
109.0
107.0
106.0
109.0
108.0
104.0
104.0
105.0
105.0
121.0
105.0
118.0
111.0
116.0
121.0
110.0
112.0
116.0
114.0
110.0
115.0
108.0
113.0
115.0
122.0
115.0
122.0
133.0
115.0
116.0
133.0
124.0
115.0
113.0
113.0
125.0
124.0
103.0
102.0
106.0
110.0
109.0
110.0
109.0
109.0
101.0
107.0
115.0
101.0
100.0
104.0
104.0
109.0
96.0
96.0
103.0
100.0
94.0
97.0
100.0
105.0
98.0
100.0
102.0
108.0
98.0
130.0
130.0
133.0
123.0
105.0
117.0
114.0
122.0
116.0
111.0
109.0
126.0
114.0
117.0
114.0
112.0
106.0
106.0
117.0
105.0
123.0
115.0
124.0
126.0
125.0
109.0
109.0
111.0
122.0
126.0
109.0
115.0
109.0
116.0
116.0
108.0
124.0
119.0
117.0
102.0
109.0
109.0
100.0
107.0
110.0
112.0
104.0
103.0
98.0
101.0
108.0
112.0
110.0
106.0
105.0
111.0
114.0
114.0
112.0
104.0
104.0
119.0
112.0
120.0
111.0
114.0
94.0
109.0
121.0
142.0
142.0
146.0
128.0
114.0
102.0
127.0
103.0
115.0
111.0
108.0
122.0
131.0
113.0
117.0
108.0
111.0
119.0
114.0
115.0
107.0
115.0
116.0
106.0
109.0
114.0
115.0
108.0
107.0
103.0
114.0
112.0
102.0
104.0
110.0
119.0
121.0
113.0
107.0
99.0
108.0
108.0
110.0
115.0
105.0
100.0
108.0
106.0
104.0
107.0
99.0
117.0
106.0
111.0
111.0
101.0
113.0
109.0
101.0
129.0
132.0
139.0
132.0
117.0
110.0
94.0
99.0
92.0
98.0
90.0
86.0
84.0
74.0
78.0
82.0
81.0
82.0
77.0
77.0
79.0
74.0
82.0
80.0
78.0
63.0
48.0
51.0
57.0
59.0
63.0
87.0
44.0
68.0
64.0
68.0
58.0
68.0
64.0
68.0
66.0
72.0
65.0
68.0
65.0
64.0
67.0
67.0
62.0
61.0
70.0
65.0
81.0
92.0
85.0
75.0
86.0
65.0
77.0
62.0
68.0
61.0
66.0
61.0
64.0
66.0
64.0
61.0
65.0
60.0
63.0
70.0
102.0
65.0
67.0
61.0
65.0
66.0
67.0
61.0
70.0
64.0
71.0
59.0
62.0
62.0
65.0
64.0
64.0
67.0
62.0
66.0
59.0
69.0
61.0
68.0
65.0
71.0
65.0
72.0
58.0
66.0
65.0
70.0
59.0
68.0
59.0
68.0
59.0
72.0
57.0
71.0
55.0
66.0
65.0
71.0
66.0
74.0
67.0
77.0
74.0
73.0
79.0
76.0
78.0
79.0
86.0
77.0
81.0
87.0
87.0
81.0
99.0
91.0
98.0
89.0
94.0
99.0
85.0
95.0
106.0
98.0
95.0
103.0
100.0
106.0
100.0
104.0
96.0
95.0
98.0
99.0
114.0
107.0
106.0
106.0
111.0
97.0
101.0
104.0
102.0
107.0
94.0
111.0
107.0
90.0
101.0
100.0
108.0
112.0
111.0
103.0
108.0
106.0
120.0
112.0
115.0
127.0
118.0
127.0
119.0
113.0
126.0
99.0
115.0
124.0
122.0
113.0
121.0
113.0
101.0
97.0
107.0
108.0
115.0
109.0
106.0
115.0
108.0
114.0
111.0
103.0
106.0
111.0
110.0
104.0
104.0
108.0
104.0
112.0
123.0
117.0
113.0
115.0
108.0
117.0
106.0
121.0
115.0
112.0
108.0
111.0
102.0
114.0
104.0
106.0
111.0
116.0
114.0
115.0
112.0
120.0
106.0
103.0
105.0
102.0
93.0
98.0
91.0
86.0
93.0
92.0
83.0
80.0
88.0
76.0
81.0
79.0
77.0
76.0
74.0
73.0
76.0
77.0
74.0
71.0
73.0
54.0
55.0
52.0
78.0
60.0
51.0
57.0
73.0
66.0
60.0
72.0
64.0
64.0
71.0
65.0
66.0
61.0
63.0
66.0
69.0
70.0
67.0
65.0
73.0
69.0
70.0
66.0
73.0
64.0
75.0
62.0
74.0
64.0
73.0
65.0
70.0
62.0
68.0
65.0
73.0
57.0
69.0
55.0
69.0
65.0
74.0
67.0
70.0
61.0
68.0
67.0
70.0
60.0
64.0
67.0
64.0
65.0
107.0
63.0
74.0
58.0
68.0
57.0
67.0
58.0
72.0
66.0
72.0
65.0
75.0
63.0
72.0
78.0
69.0
71.0
74.0
78.0
73.0
84.0
79.0
74.0
82.0
82.0
91.0
86.0
81.0
86.0
87.0
83.0
89.0
90.0
94.0
95.0
90.0
96.0
105.0
97.0
100.0
104.0
100.0
108.0
96.0
102.0
109.0
104.0
105.0
103.0
112.0
103.0
116.0
102.0
104.0
102.0
104.0
100.0
108.0
117.0
108.0
110.0
107.0
109.0
111.0
113.0
108.0
105.0
116.0
118.0
114.0
124.0
110.0
116.0
107.0
114.0
110.0
105.0
113.0
113.0
116.0
103.0
112.0
126.0
117.0
120.0
115.0
120.0
116.0
116.0
111.0
113.0
105.0
115.0
108.0
110.0
110.0
115.0
116.0
109.0
127.0
117.0
118.0
113.0
118.0
117.0
122.0
118.0
112.0
119.0
112.0
124.0
109.0
124.0
120.0
115.0
115.0
120.0
108.0
115.0
114.0
118.0
117.0
113.0
115.0
117.0
113.0
120.0
102.0
104.0
109.0
103.0
98.0
108.0
93.0
89.0
86.0
85.0
82.0
88.0
86.0
77.0
70.0
76.0
73.0
70.0
64.0
71.0
73.0
76.0
58.0
66.0
66.0
68.0
64.0
54.0
52.0
66.0
67.0
79.0
59.0
50.0
73.0
68.0
77.0
64.0
68.0
65.0
69.0
66.0
71.0
68.0
68.0
65.0
66.0
60.0
63.0
67.0
71.0
65.0
71.0
63.0
71.0
65.0
79.0
64.0
70.0
74.0
63.0
66.0
64.0
70.0
65.0
71.0
67.0
67.0
69.0
66.0
66.0
72.0
63.0
73.0
60.0
74.0
61.0
71.0
61.0
76.0
61.0
105.0
70.0
66.0
63.0
70.0
63.0
66.0
64.0
71.0
61.0
67.0
65.0
73.0
64.0
75.0
71.0
69.0
67.0
68.0
73.0
59.0
63.0
70.0
68.0
63.0
64.0
67.0
69.0
67.0
67.0
59.0
61.0
74.0
60.0
74.0
67.0
64.0
68.0
65.0
62.0
74.0
61.0
67.0
62.0
71.0
66.0
68.0
71.0
67.0
72.0
66.0
79.0
102.0
88.0
81.0
79.0
78.0
72.0
68.0
59.0
75.0
66.0
66.0
66.0
70.0
66.0
67.0
61.0
68.0
66.0
68.0
65.0
65.0
61.0
73.0
56.0
67.0
61.0
66.0
66.0
74.0
55.0
74.0
58.0
70.0
66.0
75.0
60.0
69.0
59.0
70.0
58.0
66.0
64.0
72.0
64.0
70.0
65.0
69.0
63.0
73.0
62.0
73.0
66.0
74.0
61.0
72.0
61.0
72.0
64.0
68.0
66.0
67.0
66.0
68.0
63.0
69.0
66.0
69.0
72.0
63.0
67.0
59.0
67.0
67.0
66.0
64.0
68.0
70.0
67.0
60.0
69.0
62.0
76.0
63.0
77.0
60.0
74.0
57.0
74.0
62.0
68.0
63.0
64.0
66.0
71.0
65.0
73.0
67.0
70.0
65.0
71.0
71.0
80.0
76.0
75.0
84.0
82.0
84.0
77.0
89.0
86.0
87.0
87.0
88.0
83.0
89.0
94.0
92.0
87.0
99.0
98.0
101.0
100.0
103.0
100.0
94.0
103.0
95.0
104.0
96.0
99.0
102.0
120.0
109.0
107.0
110.0
103.0
113.0
115.0
117.0
118.0
114.0
130.0
107.0
115.0
107.0
111.0
122.0
113.0
120.0
112.0
124.0
120.0
118.0
122.0
124.0
117.0
142.0
132.0
127.0
109.0
108.0
110.0
109.0
110.0
111.0
110.0
118.0
147.0
72.0
148.0
152.0
125.0
114.0
124.0
126.0
124.0
111.0
109.0
127.0
128.0
118.0
124.0
124.0
115.0
121.0
122.0
115.0
119.0
111.0
120.0
127.0
108.0
115.0
122.0
128.0
114.0
110.0
122.0
106.0
111.0
118.0
117.0
121.0
117.0
118.0
112.0
109.0
119.0
116.0
118.0
128.0
123.0
115.0
126.0
123.0
133.0
115.0
120.0
122.0
121.0
120.0
116.0
122.0
119.0
120.0
122.0
121.0
127.0
125.0
109.0
117.0
113.0
119.0
127.0
114.0
129.0
117.0
118.0
118.0
122.0
116.0
127.0
126.0
120.0
117.0
116.0
112.0
120.0
120.0
121.0
117.0
112.0
117.0
112.0
105.0
113.0
122.0
114.0
105.0
113.0
120.0
144.0
128.0
140.0
141.0
143.0
150.0
162.0
144.0
119.0
101.0
92.0
93.0
94.0
98.0
99.0
94.0
98.0
100.0
100.0
92.0
99.0
96.0
99.0
100.0
104.0
98.0
103.0
105.0
93.0
93.0
96.0
90.0
108.0
101.0
97.0
96.0
97.0
105.0
108.0
102.0
97.0
100.0
101.0
100.0
106.0
100.0
100.0
102.0
101.0
98.0
101.0
105.0
95.0
146.0
98.0
108.0
97.0
102.0
100.0
103.0
97.0
97.0
153.0
97.0
99.0
100.0
95.0
98.0
99.0
91.0
94.0
99.0
100.0
99.0
98.0
99.0
95.0
99.0
98.0
98.0
96.0
95.0
96.0
100.0
98.0
97.0
100.0
100.0
95.0
104.0
100.0
96.0
96.0
100.0
98.0
102.0
102.0
97.0
102.0
100.0
100.0
100.0
99.0
98.0
106.0
103.0
97.0
97.0
104.0
110.0
100.0
97.0
99.0
108.0
102.0
105.0
101.0
98.0
97.0
99.0
99.0
97.0
95.0
95.0
99.0
96.0
96.0
102.0
94.0
98.0
96.0
95.0
95.0
97.0
94.0
92.0
93.0
97.0
100.0
98.0
95.0
96.0
92.0
97.0
102.0
102.0
91.0
90.0
95.0
139.0
89.0
91.0
89.0
99.0
92.0
90.0
89.0
88.0
94.0
90.0
98.0
90.0
93.0
101.0
129.0
110.0
105.0
112.0
101.0
99.0
99.0
96.0
107.0
98.0
97.0
103.0
90.0
97.0
108.0
120.0
116.0
112.0
109.0
113.0
107.0
105.0
98.0
100.0
163.0
125.0
118.0
108.0
103.0
110.0
104.0
108.0
116.0
107.0
110.0
110.0
127.0
112.0
110.0
104.0
106.0
102.0
108.0
113.0
109.0
108.0
111.0
110.0
100.0
107.0
113.0
117.0
164.0
150.0
158.0
110.0
93.0
96.0
92.0
94.0
91.0
99.0
99.0
102.0
95.0
96.0
93.0
97.0
93.0
97.0
89.0
52.0
95.0
87.0
98.0
93.0
95.0
98.0
96.0
94.0
92.0
93.0
97.0
95.0
102.0
98.0
98.0
89.0
94.0
91.0
92.0
87.0
97.0
92.0
87.0
88.0
85.0
83.0
77.0
76.0
74.0
74.0
78.0
73.0
72.0
71.0
72.0
75.0
71.0
72.0
66.0
71.0
66.0
66.0
67.0
69.0
71.0
69.0
70.0
63.0
61.0
69.0
63.0
107.0
67.0
46.0
60.0
52.0
57.0
74.0
53.0
57.0
68.0
70.0
70.0
70.0
63.0
75.0
61.0
69.0
66.0
70.0
71.0
64.0
66.0
71.0
68.0
69.0
73.0
68.0
69.0
60.0
69.0
71.0
59.0
64.0
61.0
61.0
62.0
68.0
62.0
64.0
56.0
71.0
64.0
74.0
62.0
70.0
64.0
73.0
61.0
70.0
63.0
64.0
67.0
70.0
65.0
119.0
69.0
63.0
67.0
61.0
62.0
59.0
56.0
71.0
67.0
64.0
65.0
69.0
64.0
63.0
65.0
72.0
65.0
67.0
65.0
77.0
69.0
71.0
61.0
65.0
69.0
60.0
58.0
69.0
65.0
70.0
64.0
71.0
64.0
67.0
56.0
70.0
60.0
66.0
63.0
62.0
65.0
66.0
67.0
67.0
75.0
92.0
87.0
73.0
86.0
72.0
70.0
70.0
67.0
77.0
75.0
81.0
75.0
82.0
90.0
79.0
84.0
92.0
91.0
96.0
86.0
95.0
88.0
87.0
98.0
93.0
107.0
107.0
104.0
104.0
116.0
117.0
117.0
111.0
117.0
119.0
127.0
122.0
106.0
125.0
129.0
124.0
119.0
122.0
118.0
123.0
127.0
123.0
104.0
111.0
118.0
117.0
126.0
130.0
122.0
107.0
116.0
112.0
112.0
121.0
118.0
125.0
122.0
119.0
126.0
114.0
117.0
109.0
113.0
112.0
126.0
108.0
120.0
121.0
115.0
118.0
117.0
107.0
113.0
114.0
123.0
127.0
116.0
115.0
108.0
99.0
114.0
110.0
101.0
124.0
116.0
123.0
125.0
104.0
110.0
121.0
110.0
134.0
134.0
126.0
132.0
121.0
113.0
91.0
110.0
112.0
117.0
128.0
86.0
112.0
92.0
76.0
89.0
118.0
74.0
74.0
79.0
77.0
73.0
84.0
92.0
67.0
67.0
83.0
68.0
82.0
66.0
67.0
62.0
73.0
75.0
72.0
67.0
68.0
71.0
74.0
58.0
48.0
48.0
54.0
46.0
64.0
62.0
70.0
60.0
128.0
89.0
71.0
78.0
72.0
75.0
72.0
72.0
70.0
74.0
74.0
77.0
74.0
73.0
71.0
65.0
80.0
74.0
75.0
74.0
71.0
79.0
68.0
77.0
67.0
83.0
81.0
74.0
76.0
70.0
75.0
60.0
66.0
69.0
75.0
63.0
77.0
68.0
74.0
72.0
75.0
79.0
75.0
77.0
66.0
70.0
68.0
76.0
71.0
79.0
78.0
70.0
76.0
71.0
83.0
77.0
78.0
78.0
70.0
66.0
70.0
77.0
66.0
75.0
69.0
73.0
80.0
77.0
67.0
77.0
79.0
73.0
73.0
83.0
73.0
69.0
76.0
82.0
81.0
84.0
78.0
88.0
91.0
99.0
99.0
107.0
106.0
109.0
105.0
114.0
114.0
112.0
116.0
122.0
127.0
117.0
108.0
106.0
108.0
122.0
154.0
108.0
102.0
153.0
150.0
119.0
111.0
161.0
128.0
124.0
161.0
168.0
191.0
127.0
118.0
141.0
140.0
116.0
142.0
185.0
154.0
97.0
147.0
144.0
185.0
156.0
132.0
126.0
137.0
157.0
103.0
108.0
82.0
86.0
86.0
82.0
75.0
98.0
110.0
98.0
116.0
90.0
82.0
76.0
71.0
78.0
74.0
85.0
82.0
83.0
85.0
89.0
79.0
74.0
65.0
71.0
69.0
72.0
69.0
73.0
72.0
72.0
66.0
71.0
64.0
75.0
45.0
51.0
48.0
53.0
63.0
53.0
86.0
91.0
66.0
89.0
60.0
69.0
66.0
75.0
62.0
66.0
66.0
66.0
60.0
60.0
62.0
65.0
60.0
63.0
64.0
63.0
58.0
70.0
64.0
61.0
85.0
70.0
55.0
64.0
60.0
60.0
61.0
64.0
63.0
65.0
67.0
58.0
70.0
58.0
62.0
60.0
74.0
60.0
64.0
60.0
64.0
61.0
66.0
62.0
59.0
63.0
63.0
65.0
64.0
65.0
57.0
75.0
61.0
63.0
60.0
66.0
66.0
76.0
65.0
86.0
77.0
76.0
90.0
79.0
76.0
86.0
84.0
87.0
83.0
83.0
70.0
75.0
77.0
72.0
68.0
66.0
72.0
72.0
76.0
80.0
76.0
90.0
78.0
118.0
95.0
84.0
98.0
103.0
128.0
92.0
110.0
113.0
114.0
105.0
105.0
122.0
100.0
165.0
177.0
163.0
178.0
157.0
116.0
144.0
134.0
184.0
142.0
91.0
107.0
115.0
99.0
110.0
96.0
106.0
102.0
102.0
106.0
97.0
112.0
100.0
104.0
98.0
72.0
112.0
49.0
69.0
95.0
107.0
50.0
69.0
72.0
92.0
62.0
65.0
77.0
85.0
80.0
2692.0
93.0
79.0
90.0
88.0
90.0
84.0
79.0
73.0
91.0
95.0
84.0
84.0
98.0
92.0
104.0
99.0
99.0
110.0
83.0
74.0
75.0
78.0
94.0
73.0
86.0
71.0
86.0
89.0
84.0
93.0
92.0
94.0
85.0
89.0
87.0
93.0
85.0
85.0
92.0
82.0
89.0
86.0
89.0
90.0
89.0
87.0
87.0
89.0
90.0
87.0
91.0
86.0
88.0
89.0
83.0
88.0
89.0
91.0
87.0
87.0
83.0
82.0
82.0
80.0
78.0
81.0
82.0
86.0
82.0
78.0
76.0
72.0
74.0
74.0
76.0
77.0
79.0
75.0
74.0
79.0
75.0
83.0
75.0
80.0
77.0
77.0
80.0
80.0
81.0
82.0
81.0
79.0
81.0
84.0
83.0
85.0
83.0
82.0
89.0
86.0
88.0
84.0
90.0
89.0
91.0
92.0
85.0
92.0
93.0
90.0
95.0
104.0
105.0
105.0
104.0
87.0
90.0
83.0
86.0
121.0
77.0
77.0
76.0
70.0
73.0
68.0
70.0
68.0
70.0
69.0
65.0
67.0
65.0
66.0
67.0
61.0
68.0
64.0
59.0
46.0
53.0
48.0
52.0
57.0
55.0
67.0
60.0
65.0
67.0
63.0
71.0
70.0
60.0
59.0
68.0
59.0
53.0
44.0
60.0
61.0
66.0
92.0
93.0
84.0
74.0
72.0
57.0
73.0
61.0
73.0
58.0
71.0
66.0
70.0
105.0
70.0
64.0
72.0
66.0
65.0
73.0
64.0
64.0
67.0
70.0
63.0
64.0
63.0
62.0
67.0
59.0
68.0
57.0
75.0
58.0
66.0
56.0
75.0
55.0
72.0
57.0
74.0
63.0
74.0
58.0
73.0
58.0
73.0
62.0
64.0
62.0
69.0
63.0
74.0
54.0
71.0
66.0
65.0
64.0
66.0
65.0
68.0
58.0
68.0
71.0
69.0
65.0
71.0
48.0
65.0
64.0
71.0
77.0
73.0
74.0
77.0
82.0
80.0
80.0
80.0
76.0
76.0
75.0
85.0
82.0
79.0
79.0
85.0
90.0
82.0
82.0
82.0
90.0
89.0
91.0
82.0
102.0
96.0
92.0
90.0
101.0
95.0
91.0
97.0
98.0
93.0
92.0
101.0
87.0
91.0
105.0
98.0
90.0
93.0
96.0
92.0
100.0
109.0
100.0
101.0
96.0
96.0
102.0
104.0
96.0
108.0
99.0
101.0
95.0
99.0
99.0
91.0
100.0
105.0
91.0
88.0
108.0
99.0
98.0
107.0
93.0
101.0
116.0
103.0
106.0
97.0
111.0
99.0
112.0
99.0
101.0
102.0
109.0
100.0
104.0
101.0
99.0
105.0
100.0
89.0
93.0
102.0
94.0
83.0
84.0
81.0
80.0
78.0
86.0
79.0
78.0
74.0
77.0
79.0
75.0
74.0
74.0
74.0
73.0
78.0
57.0
59.0
64.0
54.0
63.0
64.0
72.0
64.0
72.0
78.0
92.0
68.0
63.0
77.0
73.0
54.0
59.0
54.0
63.0
80.0
64.0
77.0
67.0
67.0
65.0
70.0
67.0
64.0
69.0
64.0
69.0
66.0
63.0
68.0
72.0
67.0
68.0
66.0
71.0
66.0
69.0
62.0
69.0
71.0
68.0
64.0
68.0
68.0
72.0
63.0
71.0
64.0
66.0
64.0
72.0
60.0
74.0
58.0
69.0
85.0
84.0
65.0
81.0
76.0
110.0
71.0
63.0
70.0
67.0
68.0
66.0
67.0
63.0
71.0
68.0
70.0
60.0
69.0
63.0
68.0
59.0
68.0
60.0
71.0
63.0
68.0
56.0
74.0
60.0
68.0
62.0
70.0
57.0
72.0
55.0
74.0
65.0
64.0
65.0
67.0
61.0
70.0
60.0
70.0
56.0
72.0
68.0
71.0
63.0
69.0
61.0
70.0
59.0
72.0
55.0
74.0
65.0
75.0
63.0
70.0
65.0
72.0
56.0
70.0
60.0
68.0
61.0
71.0
64.0
74.0
59.0
70.0
62.0
72.0
60.0
72.0
63.0
75.0
59.0
71.0
59.0
72.0
62.0
70.0
63.0
72.0
61.0
75.0
61.0
72.0
63.0
75.0
57.0
69.0
58.0
73.0
60.0
72.0
63.0
71.0
60.0
79.0
65.0
80.0
59.0
73.0
62.0
71.0
67.0
70.0
58.0
80.0
65.0
71.0
65.0
76.0
71.0
68.0
68.0
66.0
71.0
73.0
70.0
71.0
76.0
73.0
75.0
73.0
76.0
79.0
81.0
80.0
80.0
78.0
81.0
80.0
82.0
78.0
84.0
81.0
79.0
89.0
84.0
88.0
93.0
79.0
83.0
99.0
76.0
86.0
88.0
99.0
96.0
99.0
101.0
89.0
98.0
94.0
95.0
93.0
106.0
128.0
121.0
121.0
122.0
108.0
104.0
115.0
107.0
109.0
103.0
102.0
108.0
110.0
117.0
120.0
113.0
98.0
116.0
119.0
110.0
110.0
109.0
112.0
115.0
114.0
102.0
107.0
102.0
112.0
114.0
112.0
109.0
121.0
104.0
109.0
112.0
109.0
114.0
111.0
103.0
106.0
105.0
109.0
107.0
107.0
164.0
124.0
122.0
109.0
104.0
95.0
89.0
93.0
89.0
86.0
84.0
89.0
80.0
73.0
81.0
81.0
74.0
63.0
79.0
73.0
73.0
83.0
57.0
60.0
58.0
53.0
64.0
72.0
71.0
61.0
72.0
68.0
69.0
68.0
66.0
58.0
65.0
60.0
73.0
95.0
66.0
70.0
93.0
91.0
77.0
82.0
76.0
62.0
75.0
58.0
69.0
61.0
70.0
56.0
70.0
63.0
76.0
65.0
72.0
57.0
71.0
60.0
72.0
67.0
82.0
79.0
89.0
89.0
84.0
83.0
79.0
73.0
89.0
82.0
86.0
82.0
82.0
81.0
81.0
102.0
89.0
90.0
89.0
87.0
91.0
83.0
90.0
98.0
90.0
87.0
90.0
89.0
92.0
99.0
88.0
92.0
95.0
94.0
97.0
100.0
100.0
98.0
101.0
109.0
100.0
104.0
103.0
100.0
109.0
102.0
110.0
104.0
111.0
98.0
96.0
99.0
104.0
97.0
97.0
94.0
92.0
96.0
96.0
94.0
106.0
104.0
110.0
109.0
112.0
105.0
114.0
110.0
107.0
114.0
109.0
118.0
113.0
110.0
110.0
118.0
116.0
111.0
118.0
104.0
115.0
125.0
120.0
107.0
120.0
118.0
113.0
118.0
120.0
125.0
113.0
118.0
114.0
117.0
115.0
110.0
122.0
118.0
124.0
118.0
120.0
115.0
116.0
121.0
113.0
122.0
121.0
114.0
125.0
115.0
120.0
114.0
105.0
118.0
126.0
106.0
108.0
97.0
108.0
104.0
118.0
116.0
113.0
118.0
109.0
109.0
109.0
111.0
114.0
103.0
108.0
115.0
117.0
115.0
110.0
105.0
108.0
118.0
113.0
116.0
115.0
109.0
118.0
105.0
120.0
99.0
114.0
104.0
109.0
108.0
111.0
93.0
92.0
106.0
115.0
114.0
101.0
104.0
95.0
109.0
109.0
94.0
106.0
97.0
106.0
96.0
102.0
92.0
93.0
106.0
105.0
98.0
90.0
97.0
97.0
100.0
110.0
102.0
102.0
97.0
111.0
102.0
98.0
104.0
105.0
102.0
102.0
109.0
101.0
103.0
103.0
103.0
109.0
103.0
107.0
103.0
108.0
104.0
95.0
97.0
82.0
96.0
97.0
90.0
103.0
100.0
98.0
102.0
100.0
90.0
88.0
100.0
98.0
106.0
107.0
97.0
135.0
125.0
125.0
110.0
101.0
99.0
96.0
111.0
110.0
112.0
103.0
104.0
117.0
117.0
110.0
104.0
91.0
104.0
101.0
106.0
115.0
108.0
98.0
109.0
104.0
101.0
104.0
107.0
110.0
95.0
99.0
101.0
105.0
98.0
104.0
102.0
114.0
112.0
135.0
152.0
144.0
118.0
111.0
115.0
116.0
116.0
128.0
110.0
105.0
108.0
109.0
117.0
107.0
110.0
112.0
112.0
117.0
99.0
101.0
106.0
114.0
110.0
113.0
115.0
113.0
111.0
108.0
109.0
117.0
109.0
111.0
121.0
114.0
126.0
136.0
147.0
131.0
106.0
120.0
100.0
122.0
119.0
118.0
108.0
119.0
113.0
106.0
116.0
103.0
112.0
110.0
116.0
103.0
125.0
124.0
126.0
130.0
116.0
114.0
121.0
118.0
118.0
108.0
124.0
125.0
105.0
116.0
114.0
119.0
113.0
115.0
125.0
116.0
125.0
127.0
111.0
121.0
107.0
130.0
120.0
116.0
114.0
117.0
114.0
112.0
104.0
121.0
115.0
121.0
122.0
120.0
127.0
124.0
116.0
121.0
124.0
121.0
118.0
124.0
121.0
115.0
123.0
118.0
130.0
118.0
124.0
122.0
126.0
120.0
132.0
121.0
134.0
138.0
119.0
121.0
117.0
108.0
110.0
125.0
123.0
126.0
110.0
126.0
124.0
122.0
126.0
121.0
122.0
117.0
117.0
120.0
110.0
115.0
120.0
126.0
122.0
104.0
120.0
118.0
123.0
105.0
122.0
123.0
127.0
116.0
117.0
117.0
130.0
123.0
119.0
94.0
100.0
103.0
101.0
108.0
117.0
114.0
115.0
104.0
100.0
100.0
108.0
119.0
111.0
120.0
114.0
112.0
114.0
120.0
117.0
112.0
115.0
116.0
108.0
108.0
118.0
122.0
113.0
117.0
111.0
118.0
124.0
110.0
105.0
106.0
114.0
116.0
113.0
113.0
118.0
114.0
111.0
115.0
116.0
115.0
120.0
115.0
120.0
113.0
124.0
127.0
118.0
125.0
121.0
117.0
121.0
122.0
117.0
119.0
125.0
116.0
119.0
120.0
125.0
119.0
114.0
116.0
128.0
116.0
126.0
122.0
120.0
128.0
120.0
117.0
121.0
120.0
99.0
100.0
115.0
108.0
96.0
115.0
116.0
119.0
119.0
114.0
125.0
122.0
117.0
109.0
120.0
126.0
115.0
110.0
116.0
128.0
115.0
123.0
107.0
126.0
113.0
111.0
125.0
120.0
118.0
113.0
120.0
125.0
121.0
120.0
118.0
118.0
128.0
124.0
117.0
114.0
115.0
109.0
125.0
120.0
107.0
97.0
98.0
108.0
94.0
104.0
116.0
111.0
117.0
118.0
117.0
124.0
108.0
136.0
148.0
146.0
117.0
92.0
92.0
96.0
91.0
95.0
97.0
95.0
101.0
98.0
91.0
98.0
98.0
95.0
99.0
90.0
93.0
91.0
96.0
98.0
97.0
104.0
97.0
93.0
96.0
99.0
92.0
96.0
99.0
99.0
100.0
92.0
98.0
96.0
94.0
101.0
101.0
99.0
97.0
92.0
93.0
89.0
90.0
94.0
93.0
95.0
89.0
98.0
88.0
82.0
83.0
78.0
84.0
81.0
77.0
80.0
80.0
76.0
76.0
76.0
75.0
76.0
70.0
80.0
83.0
84.0
124.0
71.0
81.0
69.0
79.0
75.0
73.0
76.0
55.0
51.0
52.0
52.0
66.0
65.0
61.0
50.0
56.0
62.0
66.0
74.0
74.0
66.0
70.0
73.0
69.0
61.0
71.0
68.0
73.0
64.0
69.0
65.0
72.0
70.0
77.0
72.0
72.0
66.0
72.0
59.0
94.0
88.0
80.0
68.0
84.0
70.0
75.0
72.0
64.0
72.0
66.0
46.0
75.0
113.0
76.0
72.0
80.0
82.0
77.0
83.0
84.0
85.0
88.0
84.0
79.0
89.0
78.0
92.0
94.0
85.0
99.0
99.0
100.0
99.0
107.0
105.0
108.0
98.0
103.0
109.0
103.0
128.0
137.0
141.0
128.0
116.0
108.0
107.0
114.0
122.0
111.0
120.0
111.0
113.0
104.0
114.0
114.0
109.0
107.0
113.0
117.0
105.0
113.0
108.0
112.0
102.0
108.0
104.0
117.0
116.0
111.0
113.0
110.0
109.0
108.0
123.0
120.0
122.0
113.0
122.0
120.0
128.0
115.0
116.0
107.0
124.0
116.0
110.0
116.0
117.0
125.0
118.0
111.0
104.0
116.0
107.0
102.0
118.0
104.0
96.0
94.0
110.0
91.0
94.0
91.0
96.0
88.0
86.0
92.0
94.0
89.0
84.0
85.0
69.0
83.0
76.0
75.0
75.0
72.0
74.0
62.0
77.0
80.0
77.0
82.0
68.0
73.0
73.0
79.0
66.0
64.0
80.0
51.0
64.0
69.0
60.0
66.0
72.0
77.0
69.0
69.0
66.0
66.0
64.0
71.0
73.0
56.0
52.0
72.0
63.0
72.0
63.0
72.0
57.0
76.0
55.0
79.0
66.0
69.0
61.0
74.0
54.0
74.0
65.0
71.0
59.0
74.0
100.0
70.0
73.0
66.0
70.0
61.0
67.0
65.0
71.0
62.0
68.0
61.0
71.0
65.0
73.0
92.0
92.0
70.0
85.0
80.0
72.0
71.0
67.0
72.0
69.0
64.0
62.0
70.0
60.0
69.0
62.0
74.0
60.0
66.0
57.0
67.0
62.0
71.0
61.0
74.0
60.0
67.0
66.0
75.0
59.0
75.0
59.0
67.0
64.0
73.0
65.0
74.0
62.0
73.0
59.0
72.0
54.0
67.0
67.0
75.0
64.0
71.0
61.0
67.0
65.0
72.0
65.0
80.0
58.0
67.0
65.0
70.0
65.0
69.0
61.0
68.0
71.0
70.0
61.0
67.0
58.0
70.0
60.0
81.0
61.0
67.0
62.0
72.0
63.0
72.0
64.0
74.0
56.0
71.0
62.0
71.0
58.0
73.0
63.0
78.0
58.0
70.0
64.0
67.0
59.0
68.0
61.0
73.0
60.0
68.0
66.0
67.0
63.0
67.0
64.0
69.0
64.0
69.0
63.0
69.0
65.0
77.0
65.0
69.0
61.0
69.0
63.0
65.0
62.0
65.0
68.0
63.0
70.0
68.0
63.0
72.0
67.0
68.0
69.0
69.0
60.0
64.0
67.0
72.0
72.0
73.0
63.0
71.0
69.0
75.0
61.0
66.0
62.0
80.0
59.0
72.0
63.0
69.0
61.0
72.0
67.0
75.0
63.0
76.0
71.0
71.0
70.0
68.0
73.0
68.0
77.0
67.0
81.0
67.0
74.0
66.0
75.0
64.0
75.0
96.0
94.0
79.0
82.0
82.0
77.0
75.0
80.0
77.0
63.0
73.0
71.0
73.0
68.0
68.0
66.0
65.0
64.0
63.0
72.0
76.0
66.0
77.0
65.0
76.0
62.0
73.0
73.0
75.0
75.0
72.0
72.0
71.0
82.0
71.0
72.0
75.0
75.0
76.0
73.0
83.0
70.0
84.0
75.0
69.0
45.0
80.0
68.0
77.0
72.0
70.0
73.0
59.0
68.0
54.0
68.0
66.0
69.0
68.0
69.0
46.0
68.0
67.0
61.0
112.0
68.0
62.0
74.0
64.0
74.0
67.0
74.0
63.0
70.0
66.0
73.0
62.0
66.0
64.0
92.0
96.0
82.0
80.0
85.0
71.0
72.0
72.0
73.0
68.0
72.0
67.0
71.0
64.0
76.0
72.0
68.0
69.0
48.0
62.0
69.0
79.0
65.0
70.0
73.0
72.0
63.0
67.0
54.0
66.0
71.0
69.0
74.0
113.0
60.0
70.0
67.0
75.0
66.0
62.0
72.0
62.0
65.0
67.0
80.0
66.0
69.0
63.0
63.0
70.0
65.0
73.0
68.0
72.0
75.0
73.0
73.0
69.0
64.0
67.0
72.0
77.0
68.0
78.0
74.0
78.0
86.0
83.0
83.0
79.0
103.0
119.0
116.0
116.0
103.0
101.0
104.0
104.0
101.0
109.0
104.0
114.0
120.0
115.0
108.0
114.0
120.0
118.0
119.0
117.0
111.0
113.0
122.0
112.0
114.0
112.0
113.0
121.0
115.0
114.0
114.0
120.0
120.0
130.0
138.0
132.0
129.0
126.0
117.0
122.0
126.0
116.0
116.0
121.0
118.0
115.0
114.0
122.0
118.0
129.0
114.0
121.0
104.0
122.0
116.0
109.0
108.0
123.0
122.0
114.0
116.0
124.0
115.0
119.0
125.0
116.0
110.0
121.0
115.0
113.0
115.0
120.0
117.0
110.0
116.0
113.0
118.0
109.0
112.0
124.0
126.0
112.0
121.0
126.0
117.0
122.0
114.0
109.0
123.0
108.0
119.0
113.0
133.0
112.0
107.0
115.0
122.0
108.0
129.0
130.0
136.0
130.0
115.0
112.0
116.0
114.0
124.0
122.0
122.0
108.0
138.0
138.0
139.0
123.0
124.0
121.0
130.0
126.0
116.0
105.0
112.0
127.0
115.0
121.0
113.0
130.0
111.0
119.0
113.0
118.0
118.0
121.0
154.0
131.0
124.0
128.0
120.0
122.0
124.0
113.0
108.0
124.0
125.0
119.0
122.0
114.0
119.0
122.0
125.0
116.0
125.0
106.0
123.0
126.0
111.0
113.0
122.0
121.0
125.0
133.0
121.0
126.0
120.0
123.0
118.0
116.0
122.0
126.0
113.0
121.0
124.0
131.0
129.0
127.0
118.0
130.0
124.0
111.0
118.0
111.0
129.0
129.0
113.0
124.0
126.0
115.0
111.0
123.0
114.0
123.0
119.0
122.0
125.0
117.0
103.0
112.0
132.0
119.0
122.0
111.0
117.0
125.0
122.0
122.0
124.0
124.0
113.0
120.0
125.0
119.0
127.0
125.0
124.0
126.0
119.0
118.0
131.0
127.0
127.0
123.0
120.0
121.0
123.0
122.0
126.0
122.0
115.0
123.0
114.0
115.0
139.0
149.0
133.0
151.0
143.0
136.0
146.0
120.0
133.0
129.0
113.0
127.0
125.0
127.0
122.0
108.0
124.0
130.0
126.0
70.0
124.0
122.0
125.0
125.0
123.0
119.0
121.0
124.0
109.0
158.0
144.0
153.0
139.0
121.0
110.0
121.0
124.0
112.0
121.0
117.0
114.0
137.0
115.0
119.0
125.0
126.0
126.0
117.0
125.0
131.0
117.0
127.0
121.0
125.0
134.0
120.0
120.0
125.0
134.0
115.0
107.0
106.0
127.0
112.0
104.0
118.0
129.0
131.0
110.0
130.0
112.0
106.0
104.0
106.0
100.0
101.0
99.0
104.0
109.0
105.0
107.0
110.0
107.0
107.0
121.0
110.0
99.0
103.0
121.0
106.0
137.0
145.0
152.0
136.0
113.0
125.0
121.0
125.0
127.0
115.0
130.0
126.0
126.0
113.0
120.0
118.0
104.0
121.0
130.0
116.0
110.0
133.0
109.0
119.0
115.0
117.0
108.0
109.0
118.0
108.0
107.0
125.0
113.0
105.0
127.0
142.0
135.0
140.0
119.0
117.0
117.0
112.0
116.0
115.0
121.0
132.0
120.0
116.0
117.0
128.0
126.0
124.0
126.0
126.0
122.0
133.0
126.0
112.0
117.0
131.0
130.0
122.0
122.0
139.0
137.0
155.0
144.0
121.0
113.0
121.0
125.0
126.0
126.0
128.0
114.0
119.0
118.0
125.0
121.0
125.0
127.0
122.0
110.0
117.0
121.0
115.0
110.0
106.0
114.0
109.0
95.0
94.0
92.0
98.0
91.0
101.0
94.0
88.0
94.0
91.0
85.0
78.0
88.0
76.0
81.0
74.0
77.0
75.0
73.0
78.0
75.0
78.0
82.0
74.0
120.0
85.0
71.0
76.0
91.0
91.0
85.0
90.0
78.0
73.0
76.0
75.0
71.0
75.0
57.0
59.0
63.0
57.0
58.0
74.0
70.0
62.0
74.0
71.0
69.0
74.0
70.0
73.0
70.0
75.0
73.0
75.0
67.0
66.0
77.0
69.0
73.0
52.0
63.0
85.0
77.0
74.0
74.0
71.0
78.0
70.0
74.0
103.0
63.0
74.0
64.0
66.0
58.0
73.0
63.0
72.0
70.0
72.0
73.0
79.0
76.0
72.0
74.0
76.0
81.0
75.0
80.0
84.0
80.0
84.0
90.0
82.0
94.0
94.0
92.0
83.0
100.0
90.0
99.0
109.0
107.0
106.0
105.0
108.0
113.0
119.0
115.0
115.0
115.0
106.0
112.0
109.0
126.0
109.0
116.0
124.0
132.0
111.0
118.0
130.0
112.0
127.0
133.0
110.0
119.0
134.0
107.0
135.0
107.0
114.0
119.0
117.0
111.0
112.0
114.0
113.0
111.0
119.0
111.0
118.0
116.0
126.0
118.0
119.0
130.0
113.0
125.0
119.0
133.0
116.0
114.0
115.0
117.0
121.0
126.0
118.0
128.0
122.0
120.0
117.0
113.0
123.0
120.0
117.0
128.0
119.0
120.0
126.0
120.0
119.0
123.0
145.0
134.0
133.0
133.0
117.0
125.0
126.0
125.0
116.0
112.0
116.0
113.0
105.0
108.0
97.0
100.0
90.0
101.0
91.0
98.0
92.0
88.0
89.0
88.0
83.0
85.0
83.0
79.0
83.0
77.0
79.0
82.0
77.0
84.0
85.0
84.0
128.0
75.0
85.0
79.0
73.0
77.0
75.0
75.0
75.0
73.0
77.0
67.0
71.0
70.0
75.0
68.0
79.0
72.0
70.0
70.0
71.0
47.0
57.0
50.0
72.0
46.0
66.0
62.0
74.0
65.0
76.0
64.0
72.0
70.0
70.0
65.0
76.0
73.0
71.0
69.0
75.0
71.0
68.0
72.0
68.0
84.0
85.0
87.0
94.0
93.0
76.0
83.0
88.0
75.0
119.0
72.0
74.0
81.0
75.0
76.0
74.0
75.0
72.0
72.0
77.0
73.0
76.0
68.0
77.0
71.0
73.0
71.0
69.0
66.0
76.0
68.0
52.0
64.0
75.0
87.0
72.0
76.0
74.0
74.0
94.0
93.0
84.0
88.0
88.0
94.0
95.0
93.0
101.0
104.0
108.0
100.0
110.0
112.0
107.0
116.0
127.0
122.0
106.0
127.0
123.0
134.0
143.0
143.0
130.0
121.0
129.0
112.0
115.0
123.0
127.0
123.0
116.0
112.0
123.0
123.0
114.0
125.0
113.0
119.0
119.0
118.0
124.0
152.0
149.0
150.0
153.0
147.0
189.0
159.0
159.0
171.0
173.0
163.0
175.0
164.0
120.0
160.0
157.0
168.0
167.0
158.0
163.0
150.0
177.0
129.0
144.0
139.0
135.0
172.0
145.0
120.0
163.0
177.0
180.0
186.0
162.0
153.0
149.0
163.0
135.0
138.0
130.0
145.0
139.0
137.0
128.0
118.0
122.0
123.0
126.0
135.0
127.0
134.0
131.0
143.0
144.0
140.0
139.0
133.0
136.0
132.0
136.0
206.0
116.0
114.0
117.0
104.0
102.0
91.0
157.0
93.0
93.0
103.0
106.0
97.0
96.0
97.0
144.0
90.0
90.0
88.0
82.0
85.0
94.0
84.0
85.0
88.0
68.0
81.0
73.0
58.0
67.0
72.0
71.0
79.0
94.0
85.0
81.0
66.0
81.0
79.0
133.0
80.0
80.0
89.0
88.0
91.0
85.0
83.0
85.0
80.0
86.0
81.0
80.0
88.0
86.0
90.0
92.0
72.0
83.0
82.0
75.0
77.0
77.0
77.0
73.0
78.0
73.0
75.0
84.0
72.0
113.0
76.0
74.0
89.0
92.0
90.0
95.0
93.0
74.0
86.0
82.0
82.0
78.0
70.0
84.0
78.0
82.0
70.0
54.0
78.0
69.0
75.0
83.0
79.0
85.0
85.0
90.0
90.0
86.0
93.0
96.0
101.0
103.0
109.0
115.0
113.0
117.0
119.0
129.0
123.0
119.0
120.0
136.0
126.0
128.0
130.0
133.0
132.0
125.0
128.0
115.0
131.0
129.0
126.0
132.0
157.0
148.0
139.0
135.0
134.0
127.0
120.0
60.0
77.0
70.0
82.0
98.0
64.0
58.0
80.0
67.0
70.0
2866.0
100.0
106.0
118.0
124.0
112.0
115.0
120.0
119.0
119.0
128.0
111.0
112.0
111.0
100.0
126.0
125.0
131.0
118.0
116.0
114.0
107.0
109.0
123.0
134.0
121.0
108.0
99.0
92.0
90.0
89.0
90.0
104.0
109.0
95.0
106.0
83.0
82.0
81.0
80.0
79.0
90.0
81.0
89.0
94.0
90.0
84.0
80.0
79.0
86.0
82.0
87.0
90.0
82.0
90.0
87.0
88.0
89.0
75.0
92.0
91.0
88.0
89.0
83.0
84.0
83.0
76.0
76.0
79.0
74.0
84.0
67.0
75.0
73.0
67.0
76.0
62.0
55.0
62.0
59.0
70.0
55.0
64.0
58.0
66.0
58.0
66.0
60.0
71.0
63.0
63.0
56.0
62.0
93.0
46.0
60.0
56.0
83.0
64.0
67.0
56.0
69.0
55.0
70.0
58.0
66.0
57.0
61.0
63.0
74.0
56.0
49.0
60.0
58.0
65.0
55.0
61.0
52.0
66.0
64.0
72.0
72.0
66.0
58.0
66.0
64.0
59.0
61.0
58.0
64.0
58.0
67.0
62.0
66.0
54.0
63.0
77.0
90.0
90.0
61.0
80.0
67.0
60.0
62.0
63.0
58.0
60.0
64.0
59.0
68.0
62.0
64.0
60.0
64.0
59.0
62.0
57.0
70.0
57.0
74.0
58.0
65.0
57.0
65.0
58.0
59.0
62.0
62.0
62.0
57.0
68.0
57.0
64.0
58.0
66.0
60.0
64.0
59.0
64.0
59.0
62.0
66.0
51.0
66.0
57.0
69.0
64.0
63.0
63.0
70.0
62.0
67.0
61.0
65.0
61.0
55.0
67.0
66.0
68.0
63.0
66.0
61.0
70.0
70.0
68.0
62.0
66.0
58.0
68.0
61.0
72.0
64.0
72.0
61.0
70.0
63.0
66.0
56.0
68.0
54.0
69.0
64.0
60.0
45.0
54.0
61.0
57.0
71.0
56.0
64.0
63.0
68.0
61.0
96.0
60.0
64.0
51.0
71.0
62.0
73.0
60.0
69.0
55.0
62.0
58.0
59.0
64.0
59.0
66.0
55.0
69.0
59.0
64.0
58.0
63.0
67.0
65.0
59.0
65.0
64.0
64.0
58.0
62.0
66.0
63.0
71.0
71.0
70.0
78.0
70.0
71.0
72.0
71.0
73.0
77.0
77.0
82.0
85.0
85.0
80.0
75.0
82.0
80.0
87.0
92.0
88.0
80.0
88.0
86.0
83.0
90.0
99.0
89.0
94.0
100.0
95.0
93.0
93.0
90.0
84.0
84.0
89.0
96.0
101.0
95.0
105.0
100.0
93.0
103.0
92.0
94.0
84.0
83.0
85.0
83.0
93.0
90.0
90.0
85.0
89.0
95.0
96.0
84.0
77.0
75.0
86.0
75.0
73.0
84.0
66.0
73.0
56.0
52.0
62.0
62.0
60.0
70.0
75.0
62.0
65.0
63.0
69.0
60.0
64.0
57.0
70.0
71.0
67.0
60.0
74.0
60.0
98.0
67.0
57.0
68.0
56.0
60.0
63.0
58.0
67.0
58.0
71.0
52.0
66.0
62.0
63.0
57.0
64.0
59.0
71.0
67.0
71.0
66.0
69.0
63.0
63.0
58.0
54.0
66.0
59.0
64.0
63.0
67.0
60.0
67.0
60.0
71.0
62.0
60.0
67.0
62.0
60.0
61.0
89.0
86.0
84.0
79.0
88.0
58.0
70.0
58.0
58.0
69.0
66.0
64.0
60.0
64.0
58.0
65.0
59.0
66.0
61.0
72.0
55.0
62.0
62.0
70.0
56.0
66.0
60.0
67.0
66.0
60.0
66.0
60.0
68.0
63.0
66.0
52.0
72.0
60.0
74.0
60.0
68.0
58.0
66.0
65.0
65.0
57.0
69.0
54.0
75.0
62.0
68.0
63.0
72.0
52.0
71.0
52.0
67.0
66.0
59.0
57.0
58.0
81.0
77.0
70.0
68.0
71.0
65.0
66.0
71.0
55.0
96.0
55.0
64.0
60.0
61.0
62.0
71.0
63.0
63.0
62.0
62.0
67.0
74.0
67.0
71.0
70.0
85.0
68.0
72.0
69.0
76.0
70.0
80.0
77.0
75.0
81.0
75.0
76.0
80.0
81.0
84.0
75.0
78.0
89.0
81.0
105.0
114.0
105.0
110.0
100.0
92.0
91.0
94.0
98.0
97.0
96.0
100.0
106.0
92.0
94.0
92.0
98.0
94.0
102.0
119.0
117.0
110.0
114.0
124.0
122.0
123.0
110.0
108.0
106.0
109.0
108.0
104.0
100.0
102.0
108.0
104.0
97.0
103.0
113.0
108.0
108.0
119.0
118.0
113.0
120.0
173.0
118.0
111.0
109.0
114.0
113.0
110.0
111.0
105.0
103.0
105.0
113.0
106.0
94.0
91.0
91.0
100.0
105.0
95.0
92.0
96.0
113.0
112.0
113.0
95.0
102.0
100.0
104.0
86.0
88.0
96.0
88.0
77.0
78.0
81.0
79.0
71.0
83.0
78.0
75.0
70.0
67.0
75.0
64.0
52.0
68.0
67.0
56.0
52.0
66.0
57.0
68.0
62.0
63.0
58.0
77.0
61.0
67.0
60.0
63.0
57.0
88.0
58.0
65.0
64.0
71.0
63.0
64.0
64.0
58.0
64.0
53.0
71.0
60.0
72.0
54.0
69.0
54.0
69.0
55.0
67.0
61.0
61.0
60.0
59.0
66.0
57.0
69.0
56.0
74.0
56.0
67.0
60.0
71.0
57.0
64.0
67.0
60.0
62.0
61.0
69.0
75.0
62.0
71.0
59.0
63.0
65.0
58.0
63.0
59.0
68.0
58.0
78.0
63.0
64.0
59.0
64.0
59.0
68.0
56.0
61.0
62.0
66.0
63.0
63.0
65.0
73.0
68.0
61.0
63.0
67.0
62.0
57.0
74.0
72.0
71.0
69.0
78.0
64.0
78.0
90.0
76.0
89.0
78.0
75.0
76.0
67.0
81.0
63.0
103.0
97.0
89.0
85.0
82.0
81.0
81.0
72.0
79.0
79.0
76.0
79.0
68.0
74.0
69.0
73.0
77.0
75.0
77.0
78.0
74.0
68.0
70.0
63.0
73.0
78.0
84.0
83.0
82.0
97.0
90.0
91.0
98.0
95.0
84.0
88.0
85.0
94.0
90.0
91.0
101.0
98.0
97.0
93.0
108.0
102.0
98.0
99.0
99.0
102.0
98.0
105.0
102.0
100.0
99.0
104.0
106.0
104.0
134.0
135.0
127.0
122.0
108.0
98.0
88.0
83.0
96.0
92.0
86.0
95.0
86.0
90.0
93.0
81.0
72.0
79.0
79.0
72.0
74.0
69.0
80.0
76.0
72.0
75.0
67.0
53.0
49.0
55.0
70.0
60.0
72.0
54.0
73.0
63.0
86.0
59.0
68.0
59.0
74.0
57.0
70.0
57.0
77.0
94.0
90.0
66.0
70.0
74.0
67.0
71.0
61.0
72.0
70.0
71.0
57.0
71.0
67.0
66.0
64.0
68.0
62.0
72.0
59.0
74.0
61.0
72.0
60.0
69.0
66.0
72.0
68.0
65.0
68.0
67.0
58.0
67.0
64.0
66.0
66.0
70.0
66.0
68.0
63.0
72.0
61.0
71.0
59.0
75.0
55.0
74.0
65.0
70.0
57.0
76.0
57.0
70.0
60.0
73.0
61.0
67.0
58.0
69.0
57.0
70.0
65.0
70.0
64.0
67.0
65.0
77.0
66.0
73.0
58.0
68.0
58.0
65.0
65.0
72.0
64.0
70.0
54.0
66.0
63.0
72.0
64.0
66.0
103.0
69.0
72.0
73.0
64.0
66.0
57.0
72.0
67.0
66.0
53.0
71.0
66.0
74.0
54.0
69.0
51.0
66.0
57.0
76.0
71.0
68.0
73.0
74.0
76.0
69.0
79.0
77.0
70.0
71.0
78.0
76.0
76.0
79.0
74.0
79.0
82.0
82.0
78.0
79.0
87.0
88.0
80.0
92.0
90.0
98.0
87.0
86.0
97.0
92.0
94.0
91.0
99.0
88.0
85.0
87.0
94.0
96.0
94.0
87.0
82.0
76.0
90.0
94.0
86.0
93.0
81.0
78.0
85.0
77.0
78.0
76.0
74.0
66.0
67.0
72.0
67.0
74.0
60.0
56.0
58.0
65.0
66.0
64.0
70.0
62.0
74.0
70.0
56.0
70.0
63.0
69.0
60.0
70.0
68.0
73.0
59.0
64.0
61.0
73.0
58.0
105.0
64.0
61.0
60.0
68.0
68.0
71.0
57.0
75.0
62.0
70.0
60.0
69.0
56.0
67.0
60.0
71.0
60.0
66.0
60.0
75.0
65.0
75.0
58.0
67.0
64.0
69.0
63.0
68.0
61.0
70.0
63.0
68.0
63.0
69.0
65.0
66.0
65.0
70.0
63.0
67.0
70.0
69.0
66.0
66.0
60.0
70.0
58.0
61.0
60.0
60.0
67.0
65.0
69.0
68.0
66.0
65.0
66.0
62.0
69.0
67.0
70.0
62.0
69.0
67.0
66.0
67.0
65.0
66.0
69.0
63.0
67.0
59.0
73.0
66.0
67.0
66.0
69.0
58.0
73.0
55.0
72.0
57.0
71.0
54.0
69.0
62.0
72.0
63.0
73.0
63.0
71.0
59.0
68.0
66.0
69.0
60.0
68.0
62.0
70.0
61.0
68.0
66.0
66.0
64.0
58.0
75.0
64.0
70.0
73.0
63.0
66.0
62.0
63.0
71.0
71.0
65.0
88.0
68.0
74.0
77.0
79.0
76.0
75.0
82.0
121.0
71.0
77.0
66.0
77.0
61.0
85.0
69.0
78.0
73.0
73.0
78.0
78.0
80.0
72.0
76.0
74.0
67.0
82.0
70.0
75.0
70.0
75.0
76.0
76.0
85.0
84.0
81.0
73.0
71.0
70.0
84.0
80.0
83.0
85.0
82.0
78.0
83.0
108.0
113.0
115.0
113.0
95.0
90.0
92.0
101.0
103.0
98.0
88.0
105.0
109.0
98.0
88.0
102.0
101.0
94.0
95.0
103.0
106.0
105.0
100.0
99.0
102.0
93.0
96.0
104.0
98.0
96.0
104.0
97.0
106.0
106.0
96.0
102.0
102.0
105.0
106.0
101.0
114.0
112.0
107.0
109.0
116.0
113.0
117.0
105.0
109.0
110.0
111.0
111.0
124.0
103.0
121.0
171.0
97.0
100.0
90.0
107.0
97.0
89.0
81.0
83.0
84.0
85.0
80.0
73.0
79.0
82.0
68.0
73.0
83.0
73.0
71.0
74.0
40.0
58.0
47.0
58.0
66.0
75.0
73.0
60.0
73.0
71.0
72.0
61.0
66.0
64.0
68.0
60.0
66.0
58.0
74.0
62.0
72.0
60.0
68.0
63.0
70.0
61.0
85.0
99.0
80.0
79.0
82.0
68.0
72.0
74.0
66.0
62.0
62.0
66.0
67.0
73.0
68.0
66.0
64.0
71.0
64.0
65.0
66.0
61.0
62.0
72.0
60.0
75.0
69.0
67.0
62.0
71.0
69.0
69.0
75.0
65.0
72.0
69.0
72.0
61.0
75.0
63.0
68.0
62.0
69.0
66.0
70.0
63.0
72.0
63.0
74.0
64.0
70.0
60.0
70.0
64.0
69.0
64.0
77.0
61.0
72.0
69.0
72.0
65.0
76.0
63.0
73.0
65.0
71.0
61.0
65.0
61.0
69.0
67.0
72.0
72.0
81.0
61.0
64.0
67.0
65.0
74.0
60.0
76.0
58.0
72.0
62.0
70.0
64.0
70.0
62.0
72.0
56.0
77.0
64.0
71.0
65.0
71.0
66.0
74.0
55.0
61.0
54.0
87.0
50.0
63.0
45.0
73.0
64.0
65.0
46.0
65.0
69.0
62.0
83.0
52.0
58.0
59.0
50.0
95.0
67.0
48.0
60.0
51.0
72.0
57.0
61.0
53.0
56.0
59.0
51.0
55.0
84.0
64.0
56.0
62.0
75.0
43.0
76.0
4834.0
52.0
52.0
47.0
49.0
51.0
57.0
47.0
57.0
69.0
41.0
57.0
51.0
51.0
63.0
51.0
56.0
52.0
56.0
55.0
56.0
61.0
50.0
59.0
60.0
60.0
95.0
61.0
49.0
57.0
49.0
53.0
55.0
50.0
53.0
54.0
53.0
62.0
53.0
49.0
56.0
56.0
61.0
55.0
61.0
60.0
57.0
63.0
63.0
63.0
68.0
65.0
61.0
67.0
66.0
64.0
52.0
61.0
59.0
80.0
64.0
66.0
60.0
69.0
74.0
75.0
69.0
59.0
62.0
65.0
46.0
88.0
67.0
75.0
71.0
75.0
89.0
77.0
72.0
78.0
70.0
57.0
79.0
80.0
73.0
81.0
74.0
85.0
90.0
88.0
94.0
94.0
96.0
98.0
84.0
86.0
96.0
86.0
92.0
90.0
97.0
104.0
124.0
125.0
126.0
108.0
89.0
88.0
83.0
86.0
90.0
92.0
96.0
92.0
96.0
101.0
96.0
98.0
86.0
90.0
88.0
85.0
89.0
88.0
92.0
89.0
89.0
94.0
97.0
97.0
92.0
97.0
96.0
102.0
98.0
93.0
95.0
98.0
99.0
98.0
93.0
93.0
107.0
98.0
93.0
100.0
106.0
113.0
110.0
104.0
109.0
100.0
96.0
100.0
122.0
115.0
108.0
113.0
113.0
100.0
96.0
102.0
102.0
90.0
105.0
97.0
91.0
102.0
94.0
92.0
93.0
95.0
85.0
85.0
78.0
79.0
80.0
73.0
74.0
74.0
83.0
79.0
68.0
70.0
68.0
109.0
66.0
65.0
64.0
66.0
64.0
65.0
64.0
68.0
66.0
69.0
52.0
56.0
46.0
52.0
50.0
57.0
51.0
86.0
94.0
72.0
73.0
62.0
75.0
65.0
67.0
60.0
73.0
68.0
67.0
67.0
66.0
65.0
64.0
62.0
65.0
69.0
66.0
66.0
63.0
66.0
65.0
70.0
61.0
59.0
63.0
53.0
63.0
53.0
62.0
60.0
61.0
64.0
53.0
63.0
53.0
59.0
54.0
64.0
60.0
57.0
64.0
57.0
63.0
57.0
63.0
59.0
59.0
58.0
58.0
63.0
58.0
66.0
62.0
60.0
53.0
66.0
58.0
62.0
57.0
62.0
56.0
63.0
55.0
56.0
61.0
52.0
64.0
57.0
61.0
63.0
58.0
57.0
60.0
64.0
50.0
64.0
56.0
62.0
55.0
68.0
51.0
56.0
63.0
51.0
60.0
56.0
65.0
62.0
55.0
62.0
54.0
66.0
53.0
59.0
57.0
60.0
58.0
57.0
63.0
60.0
61.0
57.0
60.0
57.0
62.0
58.0
62.0
60.0
54.0
68.0
51.0
63.0
75.0
66.0
50.0
59.0
61.0
63.0
63.0
63.0
62.0
65.0
66.0
62.0
64.0
87.0
64.0
55.0
63.0
54.0
63.0
57.0
62.0
59.0
65.0
62.0
59.0
61.0
57.0
62.0
60.0
64.0
57.0
59.0
61.0
67.0
58.0
55.0
62.0
59.0
62.0
54.0
61.0
62.0
65.0
60.0
60.0
63.0
57.0
69.0
61.0
64.0
57.0
63.0
56.0
60.0
61.0
65.0
62.0
65.0
65.0
64.0
63.0
68.0
72.0
69.0
72.0
68.0
73.0
69.0
71.0
72.0
70.0
70.0
69.0
72.0
70.0
64.0
70.0
65.0
66.0
67.0
64.0
66.0
69.0
65.0
65.0
67.0
64.0
58.0
58.0
61.0
49.0
60.0
61.0
62.0
58.0
59.0
59.0
59.0
78.0
54.0
81.0
55.0
65.0
50.0
66.0
73.0
66.0
59.0
77.0
53.0
69.0
62.0
70.0
64.0
106.0
75.0
60.0
66.0
68.0
70.0
66.0
74.0
70.0
69.0
74.0
71.0
64.0
70.0
75.0
73.0
81.0
71.0
83.0
79.0
77.0
86.0
83.0
127.0
83.0
82.0
82.0
85.0
99.0
88.0
85.0
92.0
81.0
91.0
87.0
85.0
90.0
84.0
95.0
83.0
83.0
81.0
80.0
76.0
79.0
76.0
79.0
67.0
72.0
69.0
72.0
76.0
71.0
87.0
92.0
81.0
76.0
77.0
69.0
107.0
63.0
64.0
67.0
65.0
67.0
61.0
73.0
59.0
70.0
61.0
75.0
65.0
74.0
57.0
75.0
65.0
69.0
64.0
65.0
67.0
67.0
63.0
69.0
62.0
67.0
60.0
80.0
62.0
70.0
62.0
72.0
61.0
72.0
73.0
64.0
76.0
68.0
72.0
87.0
70.0
57.0
76.0
67.0
70.0
66.0
68.0
64.0
59.0
63.0
65.0
59.0
73.0
61.0
67.0
58.0
75.0
63.0
72.0
67.0
73.0
61.0
73.0
60.0
71.0
62.0
68.0
66.0
71.0
60.0
75.0
71.0
65.0
62.0
69.0
66.0
70.0
57.0
70.0
62.0
71.0
64.0
69.0
53.0
68.0
61.0
78.0
67.0
67.0
63.0
71.0
64.0
65.0
58.0
71.0
63.0
73.0
100.0
63.0
65.0
68.0
69.0
64.0
68.0
65.0
70.0
61.0
62.0
67.0
66.0
68.0
73.0
66.0
72.0
56.0
66.0
63.0
63.0
66.0
64.0
68.0
63.0
76.0
59.0
70.0
63.0
69.0
68.0
76.0
76.0
67.0
71.0
71.0
81.0
80.0
78.0
74.0
76.0
79.0
80.0
84.0
85.0
75.0
85.0
88.0
86.0
90.0
90.0
86.0
88.0
94.0
94.0
93.0
102.0
96.0
95.0
95.0
108.0
100.0
97.0
92.0
103.0
109.0
92.0
106.0
58.0
94.0
109.0
102.0
100.0
104.0
100.0
101.0
103.0
101.0
106.0
108.0
111.0
108.0
102.0
108.0
109.0
172.0
108.0
127.0
116.0
106.0
115.0
106.0
119.0
108.0
110.0
112.0
113.0
112.0
104.0
113.0
107.0
107.0
113.0
115.0
115.0
121.0
121.0
128.0
118.0
111.0
115.0
103.0
113.0
118.0
114.0
114.0
111.0
116.0
121.0
114.0
117.0
114.0
111.0
115.0
105.0
111.0
104.0
102.0
119.0
114.0
120.0
107.0
112.0
109.0
114.0
110.0
117.0
125.0
119.0
120.0
123.0
116.0
171.0
109.0
118.0
112.0
115.0
114.0
106.0
109.0
123.0
121.0
110.0
110.0
109.0
105.0
107.0
112.0
110.0
116.0
119.0
112.0
112.0
110.0
111.0
117.0
100.0
97.0
116.0
106.0
110.0
99.0
107.0
106.0
107.0
94.0
109.0
115.0
121.0
109.0
109.0
113.0
111.0
109.0
105.0
108.0
108.0
106.0
110.0
96.0
112.0
110.0
103.0
103.0
106.0
105.0
101.0
109.0
103.0
97.0
101.0
120.0
100.0
106.0
121.0
116.0
105.0
110.0
101.0
101.0
95.0
111.0
107.0
115.0
111.0
111.0
105.0
105.0
111.0
105.0
108.0
103.0
116.0
102.0
118.0
110.0
99.0
104.0
121.0
120.0
104.0
107.0
108.0
103.0
100.0
108.0
93.0
87.0
87.0
86.0
90.0
85.0
75.0
85.0
80.0
81.0
80.0
69.0
78.0
77.0
72.0
57.0
81.0
60.0
51.0
57.0
66.0
54.0
76.0
70.0
71.0
57.0
72.0
59.0
71.0
54.0
64.0
62.0
70.0
64.0
67.0
62.0
67.0
71.0
65.0
66.0
71.0
67.0
77.0
63.0
68.0
59.0
73.0
60.0
69.0
62.0
70.0
66.0
68.0
63.0
68.0
58.0
64.0
71.0
66.0
62.0
77.0
60.0
68.0
68.0
67.0
64.0
66.0
64.0
72.0
62.0
69.0
68.0
66.0
64.0
64.0
67.0
66.0
68.0
71.0
63.0
60.0
66.0
68.0
75.0
71.0
68.0
67.0
64.0
67.0
66.0
70.0
63.0
104.0
63.0
71.0
59.0
69.0
56.0
72.0
66.0
72.0
58.0
68.0
60.0
66.0
63.0
78.0
75.0
75.0
74.0
75.0
70.0
68.0
88.0
70.0
82.0
74.0
86.0
87.0
80.0
88.0
82.0
85.0
90.0
88.0
87.0
90.0
90.0
87.0
89.0
88.0
92.0
94.0
98.0
95.0
93.0
97.0
96.0
92.0
97.0
102.0
98.0
98.0
102.0
103.0
93.0
96.0
105.0
97.0
88.0
86.0
98.0
77.0
81.0
79.0
80.0
78.0
73.0
84.0
74.0
80.0
80.0
80.0
76.0
72.0
75.0
66.0
55.0
54.0
72.0
117.0
59.0
65.0
72.0
76.0
65.0
73.0
68.0
66.0
63.0
73.0
64.0
67.0
68.0
62.0
70.0
67.0
60.0
63.0
68.0
64.0
67.0
65.0
62.0
74.0
64.0
66.0
69.0
65.0
64.0
64.0
60.0
64.0
65.0
67.0
66.0
57.0
72.0
65.0
70.0
63.0
71.0
66.0
65.0
61.0
90.0
87.0
80.0
80.0
80.0
71.0
75.0
67.0
76.0
65.0
69.0
62.0
68.0
66.0
65.0
62.0
68.0
57.0
61.0
66.0
63.0
70.0
60.0
69.0
66.0
72.0
59.0
72.0
65.0
72.0
63.0
66.0
54.0
70.0
60.0
70.0
58.0
71.0
66.0
66.0
61.0
70.0
60.0
70.0
59.0
66.0
55.0
70.0
67.0
72.0
64.0
67.0
69.0
69.0
107.0
65.0
71.0
65.0
65.0
69.0
66.0
71.0
63.0
67.0
73.0
70.0
69.0
67.0
65.0
62.0
72.0
64.0
73.0
64.0
70.0
60.0
73.0
60.0
74.0
66.0
67.0
64.0
73.0
68.0
68.0
60.0
67.0
63.0
71.0
62.0
74.0
59.0
67.0
62.0
66.0
65.0
63.0
63.0
60.0
68.0
62.0
70.0
60.0
66.0
61.0
71.0
63.0
70.0
67.0
69.0
62.0
71.0
58.0
71.0
68.0
67.0
61.0
68.0
56.0
71.0
63.0
71.0
60.0
71.0
59.0
75.0
56.0
65.0
63.0
67.0
58.0
65.0
65.0
73.0
60.0
65.0
70.0
68.0
65.0
80.0
69.0
82.0
87.0
79.0
75.0
66.0
78.0
67.0
75.0
80.0
76.0
72.0
79.0
71.0
70.0
76.0
77.0
75.0
64.0
63.0
55.0
68.0
57.0
65.0
70.0
76.0
78.0
77.0
62.0
68.0
61.0
71.0
70.0
66.0
79.0
78.0
60.0
50.0
67.0
95.0
68.0
61.0
72.0
63.0
75.0
75.0
75.0
59.0
71.0
57.0
73.0
58.0
71.0
57.0
68.0
65.0
76.0
65.0
64.0
63.0
66.0
62.0
74.0
59.0
69.0
59.0
64.0
64.0
71.0
65.0
69.0
67.0
68.0
58.0
68.0
61.0
68.0
57.0
60.0
77.0
88.0
92.0
76.0
82.0
82.0
68.0
68.0
70.0
62.0
72.0
62.0
73.0
61.0
72.0
63.0
65.0
66.0
68.0
65.0
68.0
65.0
74.0
62.0
68.0
61.0
67.0
61.0
62.0
68.0
66.0
71.0
59.0
68.0
71.0
58.0
63.0
71.0
57.0
58.0
52.0
70.0
56.0
70.0
65.0
77.0
78.0
74.0
64.0
65.0
59.0
69.0
61.0
66.0
60.0
77.0
63.0
72.0
56.0
72.0
60.0
77.0
59.0
70.0
56.0
69.0
58.0
73.0
63.0
70.0
57.0
67.0
65.0
61.0
62.0
65.0
67.0
73.0
63.0
69.0
68.0
67.0
62.0
65.0
68.0
68.0
63.0
67.0
62.0
96.0
60.0
82.0
67.0
65.0
52.0
68.0
68.0
65.0
63.0
72.0
56.0
68.0
60.0
67.0
64.0
60.0
65.0
69.0
63.0
65.0
67.0
62.0
71.0
66.0
72.0
65.0
64.0
60.0
65.0
66.0
66.0
59.0
70.0
64.0
67.0
60.0
67.0
62.0
66.0
58.0
70.0
64.0
69.0
63.0
69.0
61.0
70.0
63.0
79.0
59.0
66.0
56.0
68.0
63.0
64.0
57.0
62.0
66.0
59.0
71.0
61.0
66.0
66.0
71.0
71.0
66.0
68.0
74.0
67.0
64.0
71.0
67.0
74.0
66.0
70.0
66.0
74.0
59.0
74.0
67.0
70.0
68.0
76.0
63.0
77.0
59.0
74.0
66.0
67.0
59.0
65.0
61.0
69.0
58.0
142.0
112.0
60.0
174.0
60.0
60.0
99.0
51.0
1774.0
132.0
116.0
110.0
123.0
122.0
127.0
131.0
117.0
110.0
114.0
104.0
117.0
102.0
108.0
107.0
114.0
113.0
114.0
110.0
108.0
111.0
110.0
114.0
110.0
97.0
98.0
109.0
107.0
100.0
109.0
117.0
100.0
108.0
110.0
102.0
110.0
100.0
106.0
104.0
101.0
110.0
103.0
108.0
107.0
100.0
115.0
104.0
112.0
127.0
111.0
67.0
110.0
54.0
118.0
145.0
70.0
114.0
117.0
110.0
100.0
108.0
106.0
103.0
106.0
98.0
107.0
99.0
105.0
97.0
116.0
109.0
105.0
112.0
98.0
98.0
98.0
95.0
92.0
87.0
85.0
85.0
86.0
83.0
81.0
80.0
80.0
81.0
80.0
81.0
81.0
84.0
85.0
88.0
88.0
88.0
90.0
98.0
94.0
92.0
98.0
99.0
93.0
98.0
101.0
104.0
99.0
100.0
102.0
109.0
99.0
99.0
110.0
149.0
98.0
95.0
96.0
95.0
95.0
94.0
85.0
88.0
85.0
84.0
80.0
83.0
81.0
80.0
84.0
85.0
79.0
78.0
78.0
75.0
74.0
78.0
73.0
76.0
76.0
85.0
73.0
76.0
85.0
71.0
74.0
70.0
72.0
71.0
86.0
77.0
79.0
76.0
76.0
83.0
73.0
77.0
83.0
79.0
76.0
74.0
77.0
78.0
79.0
76.0
78.0
74.0
92.0
92.0
85.0
69.0
74.0
68.0
84.0
70.0
73.0
75.0
75.0
68.0
73.0
66.0
63.0
69.0
66.0
107.0
61.0
69.0
64.0
70.0
69.0
69.0
70.0
71.0
73.0
74.0
75.0
73.0
74.0
75.0
77.0
77.0
79.0
82.0
84.0
83.0
83.0
81.0
86.0
89.0
98.0
97.0
94.0
107.0
89.0
96.0
90.0
91.0
96.0
95.0
97.0
106.0
102.0
95.0
96.0
103.0
102.0
97.0
98.0
106.0
95.0
104.0
99.0
108.0
96.0
95.0
100.0
103.0
98.0
109.0
99.0
103.0
104.0
100.0
96.0
100.0
94.0
99.0
102.0
102.0
101.0
101.0
104.0
96.0
93.0
100.0
53.0
101.0
98.0
101.0
97.0
96.0
101.0
99.0
101.0
99.0
94.0
112.0
100.0
103.0
96.0
98.0
100.0
104.0
96.0
94.0
98.0
101.0
101.0
102.0
99.0
97.0
92.0
95.0
97.0
94.0
93.0
105.0
96.0
97.0
101.0
97.0
99.0
104.0
97.0
98.0
99.0
94.0
94.0
55.0
97.0
97.0
100.0
103.0
98.0
100.0
96.0
103.0
99.0
102.0
97.0
99.0
98.0
92.0
85.0
91.0
88.0
91.0
81.0
81.0
77.0
74.0
76.0
74.0
75.0
75.0
79.0
72.0
74.0
78.0
79.0
76.0
72.0
72.0
75.0
71.0
72.0
111.0
69.0
69.0
75.0
75.0
69.0
69.0
76.0
71.0
76.0
71.0
67.0
68.0
64.0
68.0
63.0
65.0
64.0
65.0
67.0
66.0
66.0
65.0
63.0
64.0
66.0
64.0
66.0
66.0
64.0
65.0
69.0
63.0
65.0
64.0
70.0
63.0
65.0
62.0
66.0
54.0
51.0
47.0
58.0
50.0
55.0
55.0
45.0
51.0
54.0
60.0
65.0
60.0
68.0
62.0
63.0
62.0
60.0
63.0
63.0
96.0
62.0
60.0
64.0
62.0
58.0
63.0
62.0
66.0
61.0
63.0
63.0
66.0
64.0
64.0
63.0
62.0
63.0
68.0
65.0
67.0
67.0
65.0
68.0
68.0
70.0
74.0
72.0
75.0
76.0
75.0
83.0
75.0
81.0
79.0
81.0
82.0
75.0
77.0
75.0
75.0
75.0
74.0
73.0
72.0
74.0
68.0
72.0
70.0
70.0
67.0
67.0
67.0
67.0
67.0
69.0
67.0
69.0
72.0
66.0
69.0
67.0
69.0
62.0
71.0
67.0
53.0
47.0
79.0
77.0
78.0
77.0
77.0
76.0
81.0
80.0
80.0
83.0
86.0
82.0
83.0
88.0
88.0
90.0
93.0
88.0
91.0
92.0
95.0
93.0
103.0
102.0
90.0
96.0
91.0
101.0
102.0
99.0
101.0
96.0
96.0
105.0
97.0
94.0
106.0
105.0
126.0
102.0
113.0
115.0
100.0
97.0
100.0
100.0
104.0
98.0
108.0
101.0
97.0
102.0
106.0
102.0
99.0
106.0
99.0
107.0
105.0
103.0
99.0
107.0
94.0
109.0
99.0
95.0
104.0
99.0
105.0
102.0
100.0
103.0
110.0
100.0
97.0
93.0
92.0
89.0
89.0
91.0
87.0
86.0
85.0
78.0
83.0
80.0
86.0
80.0
78.0
77.0
79.0
73.0
73.0
73.0
75.0
72.0
73.0
70.0
71.0
70.0
73.0
71.0
72.0
71.0
69.0
69.0
67.0
65.0
68.0
67.0
68.0
72.0
70.0
67.0
69.0
68.0
68.0
70.0
67.0
73.0
72.0
67.0
69.0
72.0
69.0
71.0
65.0
87.0
80.0
77.0
79.0
66.0
71.0
78.0
67.0
81.0
67.0
63.0
65.0
74.0
75.0
75.0
64.0
72.0
64.0
71.0
83.0
77.0
80.0
75.0
75.0
65.0
64.0
66.0
53.0
52.0
52.0
55.0
63.0
99.0
66.0
74.0
75.0
71.0
66.0
65.0
59.0
64.0
76.0
67.0
59.0
91.0
88.0
83.0
80.0
76.0
69.0
73.0
83.0
75.0
73.0
70.0
77.0
73.0
75.0
63.0
73.0
73.0
72.0
74.0
71.0
81.0
70.0
67.0
76.0
70.0
66.0
68.0
72.0
73.0
69.0
60.0
71.0
71.0
61.0
70.0
67.0
69.0
68.0
74.0
104.0
70.0
71.0
70.0
73.0
64.0
68.0
71.0
69.0
72.0
69.0
70.0
74.0
68.0
72.0
73.0
69.0
75.0
68.0
68.0
68.0
69.0
76.0
72.0
73.0
71.0
67.0
70.0
74.0
62.0
72.0
66.0
73.0
67.0
69.0
70.0
68.0
61.0
73.0
69.0
78.0
67.0
73.0
66.0
68.0
71.0
75.0
81.0
76.0
87.0
88.0
104.0
94.0
96.0
96.0
92.0
82.0
76.0
85.0
85.0
86.0
94.0
93.0
93.0
100.0
97.0
95.0
96.0
101.0
96.0
106.0
93.0
104.0
103.0
105.0
103.0
103.0
110.0
110.0
118.0
118.0
118.0
116.0
117.0
110.0
108.0
107.0
106.0
110.0
101.0
105.0
101.0
107.0
109.0
100.0
97.0
110.0
107.0
100.0
108.0
106.0
111.0
107.0
108.0
109.0
112.0
107.0
105.0
106.0
92.0
96.0
103.0
104.0
102.0
112.0
101.0
108.0
104.0
97.0
105.0
98.0
104.0
107.0
112.0
105.0
105.0
109.0
107.0
103.0
110.0
106.0
108.0
101.0
112.0
96.0
114.0
104.0
100.0
91.0
102.0
89.0
91.0
89.0
87.0
88.0
91.0
81.0
82.0
76.0
81.0
76.0
77.0
77.0
76.0
81.0
77.0
67.0
77.0
72.0
73.0
70.0
71.0
67.0
68.0
73.0
65.0
66.0
65.0
75.0
53.0
57.0
46.0
52.0
49.0
60.0
72.0
67.0
67.0
53.0
72.0
61.0
90.0
86.0
67.0
90.0
77.0
71.0
71.0
65.0
53.0
69.0
69.0
67.0
69.0
66.0
65.0
68.0
60.0
69.0
74.0
69.0
65.0
76.0
65.0
86.0
72.0
72.0
79.0
71.0
80.0
78.0
88.0
80.0
86.0
85.0
93.0
97.0
94.0
97.0
94.0
97.0
104.0
106.0
104.0
113.0
133.0
140.0
140.0
148.0
184.0
115.0
134.0
124.0
123.0
121.0
120.0
107.0
120.0
117.0
123.0
121.0
119.0
122.0
178.0
119.0
116.0
119.0
119.0
115.0
114.0
116.0
123.0
121.0
131.0
117.0
100.0
129.0
116.0
130.0
127.0
115.0
110.0
111.0
115.0
126.0
110.0
109.0
119.0
130.0
129.0
120.0
118.0
117.0
117.0
117.0
119.0
122.0
116.0
106.0
115.0
161.0
111.0
128.0
122.0
126.0
109.0
118.0
124.0
137.0
128.0
121.0
125.0
138.0
121.0
193.0
110.0
127.0
117.0
129.0
132.0
117.0
118.0
124.0
117.0
121.0
132.0
119.0
127.0
115.0
119.0
110.0
101.0
115.0
106.0
122.0
128.0
119.0
118.0
126.0
108.0
118.0
113.0
120.0
128.0
119.0
132.0
129.0
113.0
119.0
123.0
116.0
125.0
121.0
127.0
115.0
131.0
125.0
107.0
130.0
112.0
124.0
108.0
111.0
118.0
124.0
119.0
111.0
130.0
119.0
122.0
121.0
124.0
133.0
128.0
123.0
123.0
111.0
125.0
126.0
121.0
132.0
117.0
123.0
107.0
116.0
145.0
117.0
138.0
136.0
136.0
109.0
116.0
129.0
120.0
110.0
123.0
117.0
109.0
104.0
109.0
105.0
123.0
126.0
134.0
131.0
119.0
119.0
114.0
121.0
113.0
125.0
115.0
128.0
133.0
119.0
127.0
111.0
117.0
130.0
129.0
115.0
109.0
103.0
100.0
112.0
120.0
113.0
132.0
107.0
124.0
124.0
121.0
130.0
111.0
119.0
126.0
115.0
125.0
118.0
118.0
128.0
113.0
112.0
123.0
116.0
125.0
126.0
115.0
122.0
130.0
128.0
120.0
125.0
109.0
110.0
125.0
133.0
127.0
118.0
110.0
119.0
116.0
111.0
118.0
128.0
119.0
124.0
119.0
118.0
113.0
114.0
129.0
121.0
124.0
130.0
124.0
124.0
112.0
130.0
113.0
119.0
115.0
107.0
123.0
110.0
116.0
126.0
119.0
116.0
120.0
138.0
158.0
150.0
145.0
134.0
121.0
121.0
114.0
126.0
128.0
133.0
104.0
130.0
124.0
131.0
114.0
127.0
134.0
131.0
121.0
123.0
118.0
122.0
119.0
121.0
128.0
115.0
112.0
123.0
142.0
133.0
115.0
126.0
120.0
121.0
123.0
116.0
115.0
127.0
116.0
121.0
122.0
123.0
124.0
128.0
119.0
127.0
126.0
125.0
118.0
129.0
124.0
112.0
115.0
131.0
136.0
126.0
134.0
121.0
121.0
125.0
116.0
119.0
123.0
122.0
119.0
127.0
111.0
122.0
126.0
114.0
120.0
118.0
118.0
122.0
120.0
130.0
127.0
121.0
114.0
110.0
123.0
122.0
115.0
106.0
111.0
112.0
121.0
125.0
112.0
129.0
123.0
115.0
127.0
126.0
114.0
120.0
117.0
111.0
133.0
115.0
110.0
118.0
97.0
100.0
89.0
87.0
90.0
87.0
85.0
88.0
85.0
81.0
86.0
86.0
86.0
77.0
81.0
84.0
82.0
81.0
81.0
76.0
84.0
73.0
85.0
86.0
87.0
84.0
86.0
84.0
84.0
111.0
92.0
96.0
98.0
82.0
85.0
77.0
84.0
75.0
70.0
79.0
75.0
73.0
77.0
77.0
75.0
71.0
75.0
74.0
76.0
70.0
74.0
72.0
70.0
76.0
68.0
73.0
68.0
78.0
78.0
78.0
72.0
75.0
73.0
66.0
68.0
68.0
72.0
65.0
74.0
63.0
53.0
51.0
46.0
53.0
55.0
57.0
65.0
73.0
68.0
64.0
69.0
72.0
65.0
69.0
69.0
71.0
73.0
73.0
72.0
73.0
72.0
75.0
73.0
105.0
70.0
68.0
75.0
74.0
73.0
71.0
78.0
71.0
69.0
73.0
65.0
71.0
71.0
71.0
70.0
77.0
74.0
79.0
76.0
74.0
80.0
83.0
90.0
88.0
84.0
89.0
98.0
93.0
98.0
99.0
104.0
102.0
132.0
145.0
137.0
147.0
121.0
116.0
121.0
119.0
110.0
128.0
121.0
115.0
126.0
106.0
104.0
100.0
112.0
119.0
130.0
119.0
127.0
118.0
114.0
113.0
123.0
120.0
115.0
125.0
134.0
137.0
127.0
129.0
125.0
103.0
124.0
118.0
121.0
131.0
122.0
126.0
120.0
132.0
113.0
119.0
111.0
115.0
105.0
99.0
108.0
129.0
118.0
125.0
106.0
120.0
128.0
122.0
126.0
118.0
124.0
113.0
112.0
116.0
109.0
120.0
119.0
117.0
109.0
121.0
109.0
115.0
126.0
124.0
134.0
112.0
127.0
139.0
125.0
126.0
103.0
105.0
107.0
113.0
134.0
131.0
123.0
123.0
103.0
99.0
104.0
102.0
93.0
97.0
132.0
89.0
87.0
88.0
85.0
79.0
90.0
79.0
90.0
80.0
85.0
77.0
90.0
82.0
80.0
80.0
81.0
82.0
81.0
81.0
84.0
78.0
76.0
76.0
76.0
73.0
77.0
73.0
68.0
86.0
92.0
95.0
84.0
97.0
75.0
77.0
67.0
82.0
72.0
76.0
76.0
76.0
76.0
69.0
71.0
71.0
73.0
81.0
72.0
74.0
79.0
74.0
69.0
81.0
65.0
75.0
71.0
69.0
84.0
51.0
50.0
58.0
49.0
72.0
67.0
73.0
67.0
73.0
67.0
77.0
74.0
75.0
78.0
74.0
63.0
68.0
74.0
71.0
75.0
75.0
77.0
81.0
83.0
85.0
81.0
93.0
89.0
95.0
82.0
95.0
93.0
103.0
100.0
100.0
108.0
113.0
102.0
99.0
121.0
113.0
112.0
109.0
110.0
103.0
102.0
121.0
116.0
109.0
110.0
116.0
115.0
116.0
113.0
111.0
116.0
106.0
108.0
109.0
122.0
113.0
124.0
111.0
117.0
102.0
111.0
123.0
116.0
120.0
123.0
131.0
134.0
117.0
121.0
118.0
122.0
126.0
115.0
107.0
108.0
109.0
117.0
120.0
112.0
106.0
116.0
127.0
117.0
111.0
99.0
92.0
107.0
122.0
119.0
120.0
114.0
117.0
134.0
117.0
120.0
128.0
125.0
122.0
119.0
127.0
116.0
104.0
117.0
119.0
115.0
123.0
109.0
118.0
111.0
111.0
109.0
112.0
120.0
117.0
117.0
110.0
115.0
127.0
104.0
102.0
112.0
106.0
107.0
97.0
103.0
93.0
98.0
97.0
92.0
89.0
84.0
89.0
84.0
96.0
71.0
67.0
80.0
75.0
79.0
83.0
80.0
81.0
74.0
79.0
70.0
77.0
68.0
65.0
86.0
113.0
76.0
85.0
69.0
80.0
74.0
81.0
79.0
76.0
76.0
74.0
80.0
76.0
75.0
70.0
72.0
71.0
75.0
72.0
72.0
75.0
65.0
75.0
61.0
58.0
51.0
55.0
63.0
74.0
66.0
72.0
66.0
77.0
69.0
67.0
70.0
70.0
69.0
72.0
64.0
79.0
94.0
88.0
79.0
92.0
73.0
72.0
77.0
76.0
74.0
81.0
73.0
67.0
74.0
75.0
119.0
76.0
75.0
71.0
74.0
80.0
79.0
71.0
78.0
69.0
75.0
73.0
72.0
75.0
73.0
77.0
62.0
62.0
70.0
75.0
72.0
68.0
76.0
82.0
85.0
78.0
87.0
90.0
96.0
94.0
97.0
87.0
111.0
105.0
97.0
108.0
101.0
104.0
95.0
96.0
98.0
98.0
117.0
111.0
113.0
104.0
109.0
111.0
117.0
116.0
123.0
102.0
121.0
122.0
125.0
115.0
116.0
114.0
128.0
113.0
116.0
122.0
125.0
114.0
121.0
123.0
116.0
112.0
119.0
120.0
123.0
114.0
121.0
120.0
126.0
132.0
121.0
117.0
123.0
120.0
132.0
123.0
128.0
119.0
119.0
105.0
116.0
102.0
104.0
119.0
125.0
119.0
120.0
113.0
134.0
147.0
149.0
67.0
138.0
139.0
219.0
83.0
76.0
78.0
154.0
124.0
2243.0
129.0
139.0
131.0
137.0
144.0
128.0
136.0
135.0
130.0
126.0
136.0
133.0
114.0
117.0
117.0
121.0
126.0
138.0
124.0
123.0
121.0
107.0
122.0
131.0
140.0
125.0
103.0
99.0
99.0
107.0
101.0
110.0
98.0
104.0
102.0
101.0
100.0
94.0
101.0
112.0
97.0
105.0
100.0
100.0
108.0
113.0
102.0
108.0
108.0
103.0
107.0
99.0
102.0
101.0
96.0
105.0
100.0
90.0
100.0
100.0
99.0
92.0
105.0
99.0
98.0
96.0
98.0
92.0
100.0
92.0
97.0
98.0
95.0
98.0
108.0
101.0
101.0
104.0
111.0
96.0
115.0
113.0
109.0
102.0
100.0
99.0
104.0
110.0
104.0
109.0
101.0
95.0
110.0
113.0
111.0
101.0
103.0
103.0
99.0
109.0
105.0
104.0
111.0
99.0
104.0
107.0
98.0
100.0
102.0
104.0
97.0
117.0
97.0
102.0
98.0
103.0
94.0
99.0
108.0
96.0
97.0
99.0
103.0
107.0
108.0
103.0
99.0
99.0
98.0
100.0
106.0
95.0
98.0
104.0
96.0
100.0
113.0
91.0
104.0
96.0
93.0
96.0
107.0
111.0
97.0
92.0
97.0
98.0
102.0
95.0
99.0
99.0
95.0
95.0
98.0
109.0
98.0
104.0
103.0
96.0
99.0
107.0
98.0
93.0
62.0
104.0
101.0
105.0
99.0
101.0
98.0
96.0
107.0
105.0
98.0
109.0
100.0
99.0
100.0
100.0
102.0
99.0
107.0
101.0
96.0
93.0
97.0
93.0
94.0
94.0
98.0
93.0
121.0
90.0
101.0
93.0
104.0
54.0
102.0
96.0
97.0
97.0
98.0
96.0
96.0
103.0
92.0
91.0
103.0
94.0
98.0
100.0
92.0
96.0
95.0
94.0
94.0
85.0
86.0
88.0
83.0
83.0
78.0
82.0
77.0
83.0
76.0
78.0
76.0
81.0
76.0
79.0
79.0
79.0
76.0
116.0
74.0
73.0
75.0
73.0
77.0
75.0
75.0
74.0
74.0
76.0
72.0
72.0
71.0
72.0
73.0
68.0
71.0
69.0
70.0
67.0
69.0
65.0
70.0
67.0
69.0
67.0
69.0
65.0
68.0
67.0
69.0
66.0
68.0
65.0
66.0
64.0
65.0
65.0
66.0
64.0
65.0
66.0
67.0
63.0
66.0
65.0
68.0
66.0
73.0
70.0
70.0
114.0
75.0
68.0
69.0
74.0
66.0
71.0
67.0
69.0
68.0
71.0
68.0
76.0
70.0
69.0
69.0
69.0
70.0
68.0
67.0
69.0
69.0
70.0
76.0
76.0
78.0
77.0
82.0
79.0
82.0
86.0
86.0
87.0
86.0
91.0
92.0
98.0
92.0
95.0
96.0
101.0
100.0
96.0
99.0
104.0
94.0
98.0
99.0
106.0
102.0
111.0
104.0
111.0
103.0
112.0
98.0
108.0
120.0
124.0
115.0
114.0
108.0
105.0
94.0
105.0
96.0
101.0
101.0
111.0
111.0
106.0
105.0
103.0
97.0
98.0
104.0
103.0
104.0
99.0
96.0
105.0
101.0
106.0
105.0
106.0
103.0
99.0
101.0
100.0
97.0
102.0
92.0
103.0
103.0
107.0
122.0
103.0
109.0
106.0
105.0
106.0
99.0
99.0
101.0
99.0
101.0
104.0
96.0
102.0
98.0
103.0
99.0
99.0
104.0
104.0
109.0
101.0
97.0
118.0
109.0
107.0
104.0
96.0
107.0
99.0
99.0
98.0
100.0
102.0
93.0
99.0
95.0
94.0
99.0
94.0
92.0
91.0
90.0
86.0
92.0
87.0
82.0
83.0
78.0
80.0
80.0
76.0
117.0
75.0
69.0
74.0
71.0
73.0
72.0
73.0
71.0
72.0
67.0
69.0
69.0
68.0
74.0
69.0
69.0
68.0
69.0
65.0
70.0
65.0
68.0
64.0
68.0
65.0
71.0
74.0
69.0
69.0
75.0
76.0
71.0
76.0
71.0
72.0
71.0
72.0
69.0
74.0
68.0
73.0
105.0
69.0
70.0
64.0
66.0
68.0
66.0
66.0
67.0
67.0
69.0
65.0
70.0
66.0
67.0
68.0
64.0
66.0
65.0
65.0
70.0
65.0
65.0
65.0
67.0
63.0
63.0
66.0
64.0
63.0
63.0
64.0
64.0
64.0
65.0
66.0
64.0
66.0
62.0
63.0
64.0
63.0
62.0
62.0
61.0
65.0
64.0
65.0
63.0
63.0
61.0
68.0
65.0
66.0
75.0
82.0
83.0
80.0
90.0
77.0
89.0
87.0
85.0
102.0
93.0
93.0
103.0
100.0
98.0
95.0
97.0
110.0
104.0
102.0
120.0
109.0
114.0
98.0
115.0
120.0
115.0
127.0
104.0
122.0
121.0
120.0
113.0
116.0
113.0
118.0
111.0
120.0
122.0
106.0
123.0
127.0
120.0
137.0
131.0
117.0
116.0
130.0
128.0
117.0
115.0
122.0
124.0
114.0
123.0
126.0
119.0
119.0
122.0
124.0
116.0
116.0
112.0
126.0
130.0
124.0
121.0
125.0
109.0
113.0
113.0
116.0
112.0
118.0
108.0
119.0
115.0
106.0
102.0
98.0
100.0
94.0
91.0
92.0
92.0
92.0
100.0
84.0
90.0
86.0
89.0
77.0
74.0
94.0
85.0
81.0
87.0
76.0
87.0
76.0
85.0
81.0
82.0
81.0
78.0
80.0
82.0
117.0
80.0
75.0
82.0
78.0
77.0
73.0
72.0
80.0
66.0
77.0
80.0
79.0
76.0
67.0
76.0
65.0
72.0
69.0
74.0
66.0
69.0
76.0
65.0
68.0
64.0
53.0
53.0
55.0
53.0
47.0
64.0
64.0
60.0
72.0
85.0
87.0
86.0
73.0
92.0
78.0
72.0
71.0
104.0
66.0
77.0
65.0
81.0
71.0
72.0
64.0
72.0
66.0
69.0
70.0
71.0
72.0
72.0
68.0
72.0
75.0
66.0
68.0
70.0
73.0
65.0
70.0
70.0
74.0
72.0
67.0
65.0
75.0
74.0
74.0
76.0
74.0
82.0
70.0
76.0
69.0
83.0
87.0
87.0
99.0
89.0
100.0
94.0
96.0
120.0
120.0
107.0
109.0
112.0
118.0
117.0
116.0
130.0
132.0
123.0
76.0
143.0
71.0
97.0
115.0
114.0
185.0
128.0
117.0
117.0
123.0
140.0
137.0
120.0
111.0
58.0
115.0
57.0
116.0
104.0
96.0
56.0
117.0
106.0
108.0
105.0
112.0
109.0
111.0
97.0
3246.0
109.0
115.0
119.0
129.0
66.0
128.0
76.0
102.0
99.0
116.0
84.0
96.0
97.0
93.0
94.0
93.0
97.0
89.0
91.0
88.0
89.0
101.0
90.0
89.0
92.0
94.0
89.0
88.0
87.0
90.0
90.0
90.0
88.0
90.0
87.0
93.0
85.0
88.0
86.0
84.0
85.0
88.0
81.0
82.0
83.0
81.0
88.0
86.0
82.0
86.0
86.0
86.0
84.0
83.0
82.0
87.0
82.0
88.0
86.0
90.0
92.0
81.0
90.0
88.0
90.0
88.0
92.0
86.0
87.0
86.0
88.0
83.0
90.0
83.0
87.0
89.0
82.0
88.0
85.0
85.0
86.0
91.0
89.0
86.0
88.0
87.0
89.0
88.0
90.0
87.0
89.0
92.0
90.0
89.0
89.0
92.0
92.0
88.0
90.0
91.0
92.0
92.0
87.0
91.0
90.0
90.0
97.0
92.0
95.0
90.0
93.0
99.0
94.0
90.0
88.0
96.0
95.0
94.0
96.0
92.0
96.0
91.0
89.0
94.0
91.0
91.0
92.0
89.0
88.0
89.0
88.0
91.0
90.0
87.0
91.0
87.0
90.0
93.0
92.0
88.0
85.0
90.0
93.0
91.0
90.0
94.0
90.0
93.0
91.0
91.0
91.0
94.0
91.0
92.0
91.0
92.0
90.0
94.0
87.0
96.0
89.0
93.0
91.0
94.0
94.0
95.0
85.0
94.0
94.0
89.0
93.0
90.0
95.0
90.0
92.0
95.0
94.0
93.0
86.0
103.0
89.0
89.0
89.0
91.0
83.0
91.0
90.0
89.0
86.0
90.0
86.0
88.0
89.0
92.0
89.0
90.0
88.0
83.0
92.0
88.0
88.0
88.0
86.0
87.0
86.0
85.0
87.0
83.0
86.0
83.0
87.0
83.0
85.0
86.0
87.0
84.0
85.0
88.0
93.0
89.0
89.0
92.0
88.0
87.0
91.0
87.0
89.0
89.0
90.0
92.0
90.0
90.0
88.0
87.0
84.0
84.0
87.0
88.0
92.0
91.0
89.0
90.0
93.0
89.0
92.0
95.0
88.0
89.0
86.0
88.0
91.0
90.0
89.0
90.0
87.0
91.0
92.0
90.0
91.0
90.0
87.0
92.0
87.0
95.0
88.0
88.0
90.0
87.0
91.0
90.0
90.0
89.0
88.0
89.0
89.0
87.0
84.0
86.0
87.0
85.0
83.0
87.0
88.0
85.0
92.0
91.0
89.0
94.0
91.0
94.0
93.0
90.0
92.0
90.0
89.0
88.0
89.0
92.0
88.0
91.0
89.0
85.0
90.0
88.0
90.0
91.0
88.0
91.0
86.0
92.0
84.0
92.0
88.0
86.0
88.0
88.0
88.0
92.0
90.0
87.0
89.0
86.0
91.0
87.0
90.0
91.0
88.0
88.0
89.0
91.0
86.0
87.0
89.0
88.0
87.0
88.0
92.0
88.0
91.0
89.0
89.0
91.0
85.0
90.0
88.0
86.0
79.0
78.0
75.0
78.0
77.0
72.0
77.0
71.0
70.0
72.0
68.0
66.0
68.0
69.0
65.0
66.0
66.0
67.0
64.0
68.0
63.0
53.0
46.0
59.0
69.0
62.0
89.0
60.0
70.0
67.0
68.0
65.0
62.0
60.0
68.0
64.0
78.0
74.0
68.0
73.0
63.0
59.0
69.0
68.0
64.0
65.0
107.0
72.0
72.0
86.0
87.0
86.0
69.0
85.0
77.0
73.0
61.0
59.0
71.0
73.0
67.0
67.0
68.0
74.0
58.0
65.0
63.0
69.0
63.0
63.0
68.0
65.0
63.0
62.0
65.0
65.0
70.0
68.0
64.0
63.0
65.0
66.0
66.0
63.0
65.0
59.0
70.0
60.0
72.0
73.0
68.0
62.0
72.0
61.0
74.0
67.0
69.0
63.0
74.0
60.0
74.0
71.0
61.0
63.0
65.0
58.0
70.0
65.0
74.0
65.0
70.0
67.0
72.0
63.0
65.0
64.0
77.0
72.0
70.0
64.0
66.0
73.0
66.0
67.0
66.0
66.0
70.0
66.0
62.0
62.0
71.0
71.0
59.0
54.0
115.0
65.0
54.0
65.0
61.0
71.0
69.0
73.0
63.0
68.0
73.0
67.0
64.0
64.0
60.0
69.0
63.0
70.0
57.0
68.0
69.0
68.0
58.0
71.0
67.0
67.0
64.0
67.0
53.0
72.0
61.0
64.0
63.0
71.0
64.0
69.0
61.0
65.0
64.0
70.0
59.0
69.0
63.0
82.0
89.0
78.0
83.0
77.0
81.0
66.0
60.0
64.0
64.0
59.0
73.0
65.0
70.0
60.0
70.0
61.0
70.0
62.0
70.0
58.0
68.0
64.0
68.0
59.0
72.0
55.0
75.0
58.0
69.0
68.0
71.0
71.0
71.0
82.0
72.0
75.0
76.0
74.0
77.0
76.0
87.0
75.0
80.0
76.0
77.0
82.0
77.0
81.0
77.0
80.0
83.0
94.0
82.0
95.0
90.0
89.0
91.0
98.0
86.0
95.0
94.0
95.0
101.0
101.0
96.0
98.0
100.0
97.0
88.0
96.0
93.0
93.0
94.0
97.0
91.0
94.0
99.0
104.0
101.0
101.0
100.0
109.0
98.0
95.0
106.0
103.0
109.0
110.0
110.0
107.0
108.0
104.0
105.0
108.0
109.0
107.0
102.0
104.0
96.0
103.0
105.0
97.0
94.0
96.0
105.0
91.0
100.0
98.0
91.0
96.0
89.0
82.0
75.0
85.0
87.0
77.0
76.0
69.0
82.0
124.0
71.0
84.0
73.0
69.0
61.0
66.0
59.0
70.0
57.0
69.0
56.0
73.0
55.0
73.0
66.0
68.0
64.0
66.0
60.0
67.0
61.0
69.0
63.0
61.0
65.0
71.0
62.0
76.0
69.0
68.0
61.0
65.0
63.0
71.0
73.0
65.0
61.0
69.0
54.0
67.0
60.0
67.0
68.0
71.0
61.0
72.0
61.0
65.0
62.0
66.0
58.0
66.0
68.0
63.0
64.0
62.0
63.0
61.0
66.0
62.0
70.0
66.0
70.0
53.0
71.0
67.0
74.0
64.0
78.0
57.0
73.0
67.0
71.0
109.0
70.0
75.0
59.0
75.0
53.0
70.0
57.0
68.0
64.0
67.0
59.0
59.0
65.0
69.0
70.0
66.0
66.0
68.0
63.0
68.0
62.0
69.0
71.0
78.0
69.0
83.0
83.0
76.0
76.0
68.0
76.0
82.0
85.0
86.0
82.0
97.0
90.0
89.0
88.0
89.0
87.0
96.0
91.0
86.0
92.0
96.0
93.0
96.0
100.0
102.0
88.0
114.0
110.0
106.0
110.0
109.0
100.0
105.0
108.0
107.0
100.0
100.0
102.0
111.0
101.0
99.0
103.0
109.0
112.0
104.0
96.0
93.0
87.0
89.0
91.0
89.0
94.0
99.0
98.0
95.0
103.0
103.0
97.0
105.0
97.0
103.0
103.0
111.0
105.0
106.0
112.0
114.0
109.0
106.0
104.0
104.0
103.0
113.0
117.0
114.0
105.0
109.0
118.0
114.0
102.0
106.0
97.0
106.0
112.0
109.0
120.0
117.0
117.0
136.0
122.0
128.0
120.0
122.0
117.0
123.0
120.0
123.0
125.0
120.0
109.0
114.0
117.0
103.0
107.0
109.0
102.0
104.0
111.0
110.0
102.0
97.0
106.0
106.0
89.0
86.0
89.0
92.0
77.0
125.0
82.0
79.0
82.0
83.0
76.0
77.0
80.0
79.0
58.0
55.0
48.0
56.0
50.0
51.0
74.0
64.0
76.0
60.0
75.0
65.0
77.0
62.0
78.0
60.0
81.0
63.0
86.0
87.0
88.0
87.0
94.0
78.0
79.0
66.0
76.0
78.0
75.0
76.0
66.0
73.0
61.0
72.0
77.0
83.0
91.0
85.0
85.0
82.0
83.0
76.0
70.0
72.0
74.0
72.0
63.0
59.0
64.0
74.0
69.0
57.0
67.0
78.0
104.0
79.0
71.0
72.0
76.0
83.0
78.0
79.0
77.0
80.0
102.0
75.0
77.0
86.0
87.0
89.0
85.0
79.0
87.0
87.0
90.0
94.0
94.0
92.0
93.0
98.0
87.0
97.0
92.0
95.0
92.0
96.0
107.0
115.0
146.0
117.0
139.0
105.0
108.0
108.0
96.0
109.0
99.0
100.0
98.0
98.0
102.0
103.0
115.0
101.0
103.0
111.0
108.0
108.0
108.0
103.0
104.0
105.0
105.0
110.0
107.0
105.0
106.0
101.0
105.0
113.0
106.0
115.0
115.0
108.0
119.0
115.0
111.0
127.0
111.0
143.0
141.0
113.0
134.0
133.0
115.0
116.0
119.0
111.0
115.0
111.0
116.0
119.0
137.0
143.0
138.0
135.0
125.0
114.0
120.0
122.0
121.0
123.0
109.0
112.0
114.0
116.0
109.0
111.0
109.0
109.0
118.0
108.0
103.0
117.0
117.0
122.0
113.0
115.0
111.0
110.0
126.0
122.0
124.0
109.0
116.0
120.0
115.0
132.0
121.0
113.0
122.0
105.0
121.0
109.0
125.0
132.0
140.0
147.0
149.0
142.0
112.0
108.0
118.0
116.0
110.0
113.0
106.0
107.0
117.0
125.0
118.0
111.0
116.0
106.0
112.0
116.0
106.0
113.0
107.0
110.0
123.0
114.0
110.0
115.0
115.0
121.0
117.0
110.0
122.0
116.0
124.0
122.0
109.0
117.0
108.0
111.0
124.0
123.0
124.0
130.0
128.0
113.0
129.0
115.0
112.0
124.0
117.0
121.0
120.0
132.0
122.0
122.0
121.0
106.0
115.0
116.0
101.0
116.0
115.0
125.0
120.0
115.0
108.0
109.0
106.0
101.0
97.0
100.0
102.0
104.0
111.0
111.0
105.0
102.0
107.0
114.0
105.0
101.0
127.0
109.0
108.0
104.0
107.0
103.0
118.0
113.0
140.0
131.0
154.0
128.0
110.0
111.0
120.0
126.0
116.0
112.0
120.0
114.0
131.0
122.0
104.0
99.0
99.0
109.0
105.0
104.0
99.0
107.0
115.0
110.0
106.0
102.0
104.0
107.0
111.0
103.0
114.0
115.0
104.0
110.0
104.0
107.0
114.0
96.0
118.0
115.0
108.0
106.0
113.0
116.0
118.0
111.0
120.0
105.0
109.0
111.0
107.0
110.0
127.0
104.0
105.0
117.0
109.0
115.0
126.0
131.0
128.0
118.0
118.0
119.0
116.0
115.0
127.0
120.0
113.0
117.0
118.0
111.0
116.0
119.0
120.0
112.0
120.0
130.0
117.0
122.0
115.0
125.0
118.0
117.0
115.0
111.0
118.0
113.0
107.0
100.0
94.0
89.0
79.0
79.0
79.0
83.0
80.0
74.0
73.0
76.0
74.0
74.0
80.0
74.0
69.0
68.0
74.0
74.0
58.0
61.0
54.0
86.0
52.0
68.0
59.0
65.0
74.0
70.0
64.0
69.0
67.0
70.0
66.0
65.0
59.0
71.0
66.0
66.0
86.0
83.0
86.0
67.0
86.0
74.0
69.0
80.0
66.0
74.0
62.0
72.0
66.0
78.0
62.0
68.0
79.0
67.0
70.0
70.0
70.0
62.0
74.0
69.0
67.0
65.0
69.0
64.0
73.0
64.0
69.0
65.0
70.0
63.0
66.0
69.0
73.0
105.0
60.0
69.0
63.0
69.0
65.0
75.0
68.0
72.0
62.0
62.0
54.0
71.0
63.0
73.0
60.0
68.0
67.0
68.0
70.0
70.0
66.0
71.0
65.0
72.0
64.0
72.0
73.0
64.0
66.0
66.0
62.0
69.0
70.0
64.0
66.0
68.0
66.0
54.0
64.0
66.0
72.0
74.0
76.0
73.0
79.0
74.0
86.0
87.0
79.0
87.0
77.0
87.0
87.0
88.0
89.0
95.0
94.0
91.0
94.0
92.0
99.0
99.0
93.0
98.0
101.0
109.0
103.0
103.0
108.0
108.0
114.0
123.0
124.0
117.0
122.0
117.0
114.0
112.0
116.0
117.0
117.0
112.0
119.0
121.0
118.0
117.0
106.0
114.0
114.0
113.0
120.0
111.0
115.0
126.0
106.0
119.0
116.0
110.0
112.0
123.0
115.0
109.0
108.0
59.0
112.0
109.0
110.0
108.0
105.0
110.0
111.0
109.0
116.0
119.0
123.0
130.0
114.0
137.0
133.0
119.0
119.0
105.0
113.0
123.0
123.0
131.0
113.0
101.0
109.0
90.0
98.0
90.0
94.0
99.0
91.0
83.0
84.0
83.0
85.0
76.0
75.0
79.0
78.0
82.0
77.0
74.0
104.0
70.0
74.0
62.0
60.0
82.0
51.0
52.0
59.0
62.0
68.0
61.0
69.0
67.0
69.0
63.0
83.0
88.0
83.0
69.0
88.0
76.0
71.0
70.0
71.0
66.0
66.0
60.0
69.0
71.0
70.0
66.0
71.0
59.0
66.0
58.0
72.0
67.0
65.0
62.0
76.0
64.0
66.0
64.0
69.0
68.0
68.0
68.0
75.0
64.0
72.0
63.0
74.0
65.0
103.0
64.0
62.0
66.0
68.0
69.0
65.0
67.0
66.0
58.0
70.0
62.0
72.0
56.0
56.0
44.0
66.0
58.0
68.0
54.0
57.0
62.0
65.0
69.0
65.0
72.0
70.0
72.0
63.0
73.0
59.0
59.0
48.0
62.0
59.0
71.0
67.0
68.0
65.0
74.0
48.0
60.0
56.0
52.0
70.0
61.0
73.0
63.0
71.0
65.0
73.0
66.0
68.0
48.0
67.0
42.0
64.0
66.0
73.0
64.0
71.0
64.0
69.0
68.0
73.0
64.0
73.0
60.0
62.0
51.0
63.0
60.0
71.0
68.0
69.0
74.0
67.0
68.0
75.0
63.0
70.0
72.0
67.0
58.0
79.0
62.0
78.0
61.0
72.0
65.0
76.0
72.0
76.0
71.0
68.0
64.0
71.0
69.0
67.0
68.0
64.0
74.0
65.0
62.0
72.0
72.0
70.0
71.0
67.0
72.0
65.0
72.0
66.0
76.0
63.0
79.0
72.0
83.0
78.0
69.0
73.0
70.0
67.0
72.0
74.0
69.0
67.0
65.0
71.0
69.0
64.0
69.0
46.0
49.0
68.0
54.0
82.0
68.0
76.0
67.0
70.0
72.0
66.0
72.0
69.0
77.0
88.0
79.0
66.0
72.0
60.0
77.0
70.0
72.0
73.0
69.0
70.0
62.0
69.0
73.0
67.0
68.0
67.0
70.0
73.0
66.0
67.0
67.0
72.0
60.0
58.0
56.0
61.0
60.0
71.0
68.0
76.0
66.0
69.0
65.0
70.0
66.0
73.0
49.0
64.0
49.0
68.0
63.0
68.0
67.0
70.0
66.0
77.0
66.0
69.0
64.0
77.0
48.0
62.0
56.0
63.0
63.0
63.0
68.0
60.0
61.0
57.0
73.0
66.0
60.0
47.0
73.0
65.0
75.0
63.0
74.0
64.0
75.0
67.0
72.0
70.0
66.0
65.0
73.0
68.0
59.0
62.0
75.0
59.0
74.0
47.0
64.0
54.0
65.0
98.0
73.0
63.0
73.0
85.0
92.0
85.0
81.0
88.0
72.0
72.0
75.0
75.0
69.0
69.0
67.0
69.0
67.0
70.0
70.0
64.0
67.0
61.0
73.0
65.0
67.0
65.0
71.0
71.0
73.0
73.0
67.0
70.0
64.0
75.0
60.0
72.0
68.0
76.0
64.0
73.0
60.0
72.0
66.0
70.0
61.0
74.0
86.0
69.0
71.0
55.0
61.0
71.0
62.0
65.0
113.0
71.0
69.0
82.0
66.0
63.0
71.0
74.0
64.0
70.0
66.0
70.0
71.0
70.0
64.0
68.0
72.0
66.0
65.0
74.0
71.0
68.0
75.0
63.0
75.0
72.0
70.0
69.0
71.0
67.0
70.0
65.0
74.0
63.0
72.0
63.0
76.0
66.0
67.0
67.0
71.0
66.0
67.0
66.0
96.0
90.0
78.0
75.0
87.0
69.0
76.0
71.0
75.0
71.0
74.0
65.0
69.0
67.0
69.0
64.0
72.0
61.0
69.0
62.0
74.0
62.0
72.0
69.0
67.0
66.0
69.0
63.0
71.0
67.0
66.0
66.0
68.0
64.0
64.0
69.0
67.0
64.0
71.0
63.0
70.0
64.0
65.0
65.0
68.0
68.0
71.0
73.0
68.0
71.0
77.0
84.0
71.0
85.0
83.0
74.0
90.0
86.0
88.0
85.0
90.0
89.0
95.0
92.0
92.0
96.0
95.0
108.0
104.0
103.0
106.0
114.0
107.0
112.0
107.0
112.0
115.0
113.0
109.0
115.0
124.0
112.0
110.0
110.0
109.0
116.0
117.0
117.0
120.0
124.0
115.0
117.0
119.0
102.0
121.0
113.0
112.0
120.0
116.0
125.0
118.0
109.0
116.0
118.0
113.0
115.0
122.0
112.0
121.0
121.0
112.0
112.0
115.0
124.0
135.0
142.0
143.0
134.0
129.0
130.0
119.0
119.0
120.0
119.0
128.0
123.0
117.0
121.0
113.0
119.0
121.0
119.0
107.0
120.0
116.0
120.0
141.0
148.0
134.0
124.0
120.0
103.0
103.0
115.0
109.0
121.0
117.0
117.0
119.0
105.0
119.0
128.0
133.0
131.0
150.0
125.0
119.0
112.0
124.0
114.0
122.0
118.0
122.0
131.0
113.0
122.0
114.0
102.0
106.0
104.0
111.0
118.0
124.0
113.0
114.0
119.0
109.0
106.0
111.0
109.0
180.0
115.0
110.0
121.0
117.0
121.0
122.0
110.0
168.0
104.0
118.0
115.0
104.0
113.0
119.0
114.0
100.0
116.0
108.0
116.0
113.0
112.0
105.0
109.0
118.0
122.0
122.0
132.0
113.0
111.0
120.0
105.0
111.0
120.0
114.0
104.0
118.0
110.0
115.0
116.0
119.0
109.0
111.0
123.0
115.0
110.0
112.0
112.0
121.0
114.0
128.0
118.0
113.0
112.0
106.0
109.0
119.0
103.0
101.0
101.0
111.0
122.0
135.0
129.0
132.0
116.0
136.0
132.0
113.0
105.0
122.0
106.0
121.0
117.0
116.0
124.0
113.0
116.0
117.0
112.0
113.0
125.0
118.0
111.0
103.0
97.0
111.0
133.0
150.0
150.0
150.0
127.0
112.0
116.0
111.0
124.0
114.0
124.0
125.0
125.0
107.0
108.0
121.0
114.0
119.0
120.0
114.0
112.0
116.0
135.0
129.0
116.0
130.0
115.0
112.0
121.0
107.0
128.0
128.0
123.0
107.0
116.0
121.0
117.0
111.0
100.0
118.0
106.0
118.0
107.0
111.0
116.0
123.0
125.0
134.0
122.0
127.0
109.0
117.0
124.0
123.0
122.0
118.0
119.0
120.0
111.0
113.0
122.0
109.0
120.0
106.0
113.0
115.0
123.0
119.0
115.0
111.0
122.0
127.0
115.0
110.0
113.0
117.0
122.0
112.0
126.0
123.0
121.0
115.0
137.0
120.0
130.0
135.0
117.0
127.0
140.0
144.0
128.0
117.0
124.0
111.0
111.0
118.0
114.0
112.0
109.0
112.0
108.0
115.0
111.0
113.0
115.0
117.0
121.0
123.0
114.0
108.0
112.0
123.0
117.0
125.0
117.0
119.0
115.0
110.0
102.0
117.0
115.0
121.0
114.0
132.0
120.0
121.0
120.0
128.0
130.0
130.0
134.0
118.0
116.0
120.0
121.0
121.0
101.0
115.0
116.0
122.0
116.0
117.0
125.0
115.0
107.0
124.0
108.0
117.0
112.0
121.0
124.0
122.0
110.0
112.0
108.0
113.0
115.0
114.0
110.0
121.0
114.0
127.0
137.0
116.0
122.0
118.0
119.0
110.0
124.0
123.0
114.0
106.0
115.0
123.0
123.0
112.0
117.0
120.0
126.0
108.0
107.0
120.0
129.0
119.0
124.0
119.0
117.0
125.0
113.0
122.0
131.0
118.0
110.0
105.0
113.0
127.0
107.0
111.0
115.0
112.0
121.0
116.0
116.0
116.0
120.0
119.0
115.0
114.0
113.0
113.0
104.0
94.0
112.0
115.0
121.0
115.0
109.0
124.0
112.0
120.0
112.0
129.0
119.0
115.0
112.0
119.0
120.0
114.0
124.0
110.0
123.0
122.0
133.0
127.0
126.0
123.0
117.0
126.0
114.0
113.0
119.0
120.0
106.0
114.0
120.0
129.0
121.0
135.0
124.0
134.0
112.0
124.0
111.0
112.0
115.0
114.0
106.0
121.0
108.0
119.0
104.0
123.0
113.0
117.0
120.0
122.0
119.0
114.0
125.0
112.0
113.0
109.0
121.0
119.0
114.0
106.0
119.0
125.0
115.0
117.0
115.0
120.0
118.0
126.0
109.0
121.0
117.0
121.0
112.0
110.0
119.0
116.0
110.0
117.0
118.0
122.0
121.0
117.0
116.0
111.0
109.0
135.0
129.0
127.0
122.0
110.0
126.0
115.0
116.0
108.0
111.0
104.0
123.0
126.0
108.0
121.0
121.0
118.0
112.0
112.0
118.0
114.0
120.0
119.0
126.0
104.0
124.0
111.0
120.0
129.0
123.0
119.0
117.0
114.0
119.0
119.0
112.0
114.0
113.0
101.0
116.0
117.0
113.0
119.0
118.0
119.0
114.0
117.0
112.0
115.0
117.0
141.0
126.0
116.0
114.0
122.0
115.0
112.0
126.0
123.0
131.0
111.0
114.0
108.0
104.0
101.0
114.0
105.0
106.0
115.0
113.0
101.0
110.0
123.0
112.0
126.0
118.0
119.0
111.0
117.0
115.0
114.0
112.0
114.0
108.0
120.0
126.0
108.0
114.0
119.0
131.0
125.0
110.0
116.0
119.0
111.0
117.0
114.0
124.0
122.0
126.0
133.0
124.0
119.0
116.0
117.0
107.0
118.0
133.0
117.0
120.0
106.0
128.0
120.0
127.0
119.0
116.0
129.0
120.0
122.0
122.0
112.0
120.0
117.0
114.0
111.0
116.0
117.0
131.0
117.0
123.0
128.0
117.0
112.0
112.0
115.0
188.0
123.0
127.0
133.0
117.0
120.0
108.0
126.0
137.0
115.0
117.0
124.0
194.0
112.0
127.0
132.0
115.0
134.0
125.0
121.0
127.0
112.0
109.0
120.0
109.0
122.0
110.0
114.0
119.0
122.0
114.0
111.0
118.0
121.0
115.0
116.0
117.0
112.0
114.0
117.0
123.0
156.0
151.0
149.0
146.0
151.0
150.0
153.0
146.0
193.0
178.0
165.0
153.0
121.0
136.0
126.0
134.0
127.0
146.0
141.0
144.0
136.0
135.0
141.0
135.0
143.0
139.0
140.0
141.0
147.0
139.0
219.0
134.0
141.0
136.0
145.0
132.0
128.0
140.0
139.0
146.0
141.0
136.0
145.0
220.0
135.0
132.0
126.0
126.0
133.0
130.0
144.0
137.0
135.0
140.0
131.0
135.0
138.0
144.0
142.0
136.0
129.0
121.0
132.0
137.0
135.0
131.0
137.0
153.0
140.0
135.0
128.0
125.0
131.0
128.0
145.0
124.0
134.0
135.0
131.0
128.0
145.0
141.0
121.0
127.0
135.0
134.0
134.0
136.0
128.0
122.0
124.0
113.0
108.0
104.0
98.0
102.0
99.0
99.0
101.0
98.0
97.0
93.0
89.0
94.0
93.0
90.0
86.0
93.0
139.0
86.0
85.0
89.0
85.0
82.0
85.0
77.0
98.0
98.0
96.0
90.0
99.0
88.0
83.0
87.0
88.0
82.0
81.0
75.0
55.0
53.0
54.0
56.0
54.0
58.0
55.0
63.0
70.0
78.0
79.0
84.0
74.0
80.0
76.0
80.0
82.0
71.0
77.0
83.0
80.0
76.0
75.0
81.0
80.0
80.0
79.0
79.0
82.0
81.0
75.0
79.0
77.0
78.0
79.0
81.0
76.0
76.0
79.0
74.0
80.0
82.0
75.0
78.0
79.0
83.0
80.0
80.0
69.0
83.0
70.0
78.0
72.0
79.0
81.0
77.0
118.0
78.0
85.0
74.0
79.0
75.0
73.0
83.0
81.0
81.0
76.0
71.0
82.0
81.0
58.0
82.0
75.0
87.0
90.0
77.0
85.0
96.0
90.0
97.0
85.0
99.0
97.0
96.0
105.0
110.0
119.0
114.0
112.0
109.0
121.0
121.0
123.0
119.0
121.0
134.0
128.0
135.0
130.0
129.0
135.0
122.0
131.0
137.0
138.0
140.0
130.0
128.0
134.0
129.0
123.0
151.0
133.0
137.0
138.0
134.0
126.0
126.0
131.0
130.0
126.0
126.0
135.0
132.0
133.0
136.0
137.0
133.0
124.0
125.0
133.0
133.0
126.0
116.0
136.0
128.0
135.0
121.0
118.0
139.0
123.0
124.0
131.0
124.0
129.0
134.0
132.0
126.0
128.0
132.0
120.0
118.0
127.0
117.0
113.0
108.0
99.0
106.0
99.0
103.0
95.0
92.0
95.0
146.0
94.0
88.0
90.0
93.0
92.0
90.0
83.0
78.0
90.0
84.0
88.0
84.0
83.0
87.0
81.0
86.0
73.0
86.0
81.0
81.0
67.0
53.0
52.0
56.0
52.0
53.0
78.0
78.0
86.0
84.0
77.0
79.0
78.0
77.0
79.0
81.0
79.0
73.0
81.0
81.0
83.0
80.0
81.0
77.0
77.0
79.0
81.0
77.0
80.0
78.0
75.0
83.0
80.0
80.0
78.0
77.0
79.0
71.0
76.0
84.0
75.0
84.0
76.0
80.0
79.0
81.0
118.0
82.0
76.0
80.0
70.0
81.0
81.0
76.0
77.0
78.0
79.0
75.0
80.0
78.0
76.0
81.0
72.0
82.0
78.0
75.0
82.0
80.0
78.0
78.0
81.0
83.0
82.0
76.0
83.0
77.0
82.0
121.0
73.0
81.0
83.0
75.0
80.0
71.0
80.0
76.0
78.0
124.0
73.0
76.0
82.0
74.0
79.0
82.0
77.0
75.0
78.0
77.0
81.0
85.0
81.0
80.0
83.0
75.0
77.0
78.0
75.0
82.0
74.0
78.0
77.0
82.0
80.0
73.0
77.0
74.0
76.0
78.0
78.0
77.0
75.0
82.0
79.0
78.0
78.0
71.0
75.0
79.0
77.0
78.0
78.0
66.0
79.0
75.0
74.0
76.0
79.0
80.0
81.0
72.0
78.0
71.0
80.0
86.0
76.0
81.0
76.0
85.0
80.0
74.0
85.0
83.0
87.0
85.0
84.0
94.0
97.0
92.0
109.0
101.0
105.0
105.0
112.0
116.0
109.0
117.0
112.0
123.0
118.0
121.0
114.0
111.0
135.0
123.0
130.0
110.0
121.0
110.0
124.0
120.0
116.0
116.0
123.0
121.0
130.0
125.0
107.0
119.0
116.0
116.0
111.0
115.0
105.0
108.0
107.0
103.0
104.0
88.0
95.0
94.0
93.0
139.0
96.0
100.0
84.0
87.0
92.0
86.0
87.0
87.0
88.0
89.0
85.0
77.0
82.0
84.0
86.0
84.0
80.0
83.0
82.0
80.0
85.0
74.0
79.0
85.0
66.0
56.0
62.0
82.0
87.0
91.0
96.0
83.0
93.0
83.0
83.0
85.0
87.0
82.0
88.0
76.0
75.0
79.0
85.0
76.0
75.0
81.0
79.0
78.0
76.0
73.0
82.0
83.0
77.0
84.0
78.0
80.0
69.0
78.0
81.0
78.0
85.0
78.0
80.0
131.0
80.0
76.0
83.0
80.0
77.0
79.0
73.0
74.0
78.0
76.0
75.0
79.0
78.0
78.0
80.0
80.0
79.0
73.0
73.0
84.0
83.0
91.0
80.0
75.0
87.0
88.0
85.0
95.0
106.0
52.0
101.0
100.0
49.0
101.0
102.0
116.0
112.0
115.0
130.0
123.0
80.0
50.0
49.0
132.0
79.0
89.0
84.0
98.0
89.0
1635.0
83.0
83.0
80.0
90.0
79.0
88.0
86.0
86.0
87.0
87.0
88.0
91.0
88.0
90.0
90.0
94.0
85.0
89.0
90.0
89.0
90.0
96.0
92.0
97.0
90.0
95.0
93.0
94.0
91.0
98.0
89.0
93.0
99.0
94.0
100.0
93.0
100.0
100.0
96.0
93.0
103.0
103.0
105.0
96.0
122.0
112.0
108.0
100.0
101.0
54.0
96.0
91.0
100.0
91.0
104.0
98.0
92.0
96.0
93.0
92.0
153.0
95.0
95.0
95.0
93.0
98.0
97.0
93.0
140.0
90.0
89.0
85.0
89.0
101.0
84.0
82.0
83.0
77.0
74.0
75.0
79.0
75.0
76.0
74.0
69.0
70.0
68.0
69.0
63.0
66.0
62.0
66.0
63.0
69.0
62.0
62.0
62.0
43.0
53.0
49.0
53.0
49.0
50.0
54.0
47.0
58.0
64.0
94.0
67.0
63.0
65.0
67.0
62.0
68.0
61.0
59.0
56.0
54.0
58.0
50.0
62.0
51.0
56.0
56.0
50.0
56.0
59.0
62.0
54.0
58.0
59.0
53.0
60.0
48.0
60.0
47.0
56.0
63.0
53.0
61.0
58.0
61.0
54.0
65.0
53.0
58.0
61.0
64.0
63.0
65.0
66.0
68.0
65.0
67.0
66.0
70.0
68.0
71.0
69.0
72.0
73.0
71.0
69.0
74.0
77.0
74.0
74.0
76.0
77.0
74.0
78.0
75.0
78.0
80.0
78.0
74.0
70.0
71.0
66.0
68.0
64.0
64.0
65.0
67.0
63.0
65.0
64.0
66.0
60.0
64.0
61.0
63.0
63.0
64.0
64.0
61.0
62.0
50.0
51.0
57.0
59.0
60.0
55.0
60.0
55.0
60.0
58.0
56.0
60.0
52.0
58.0
51.0
68.0
57.0
69.0
67.0
64.0
86.0
76.0
63.0
71.0
69.0
75.0
80.0
69.0
78.0
72.0
71.0
70.0
75.0
79.0
72.0
76.0
78.0
79.0
80.0
79.0
83.0
86.0
82.0
86.0
91.0
90.0
103.0
85.0
90.0
78.0
93.0
93.0
91.0
93.0
94.0
97.0
135.0
135.0
127.0
121.0
94.0
119.0
98.0
105.0
100.0
104.0
106.0
104.0
92.0
105.0
102.0
95.0
102.0
102.0
109.0
104.0
102.0
101.0
96.0
95.0
96.0
109.0
108.0
103.0
99.0
101.0
90.0
96.0
79.0
74.0
86.0
83.0
85.0
81.0
82.0
82.0
76.0
75.0
76.0
72.0
75.0
71.0
79.0
76.0
76.0
115.0
76.0
74.0
54.0
51.0
54.0
70.0
67.0
65.0
61.0
72.0
59.0
72.0
78.0
88.0
89.0
72.0
85.0
75.0
71.0
62.0
75.0
63.0
72.0
65.0
71.0
62.0
70.0
57.0
72.0
68.0
69.0
61.0
67.0
61.0
69.0
56.0
66.0
64.0
75.0
64.0
65.0
65.0
67.0
60.0
72.0
60.0
63.0
66.0
73.0
60.0
68.0
59.0
65.0
65.0
63.0
67.0
73.0
67.0
68.0
61.0
68.0
60.0
68.0
62.0
63.0
70.0
64.0
68.0
68.0
59.0
60.0
63.0
67.0
61.0
65.0
65.0
72.0
70.0
63.0
65.0
80.0
64.0
70.0
61.0
70.0
62.0
68.0
60.0
62.0
70.0
65.0
62.0
64.0
51.0
61.0
72.0
62.0
70.0
65.0
70.0
61.0
69.0
63.0
69.0
58.0
69.0
57.0
72.0
62.0
66.0
65.0
75.0
57.0
70.0
95.0
68.0
67.0
68.0
67.0
77.0
65.0
105.0
69.0
67.0
68.0
66.0
79.0
58.0
107.0
71.0
55.0
64.0
65.0
65.0
73.0
69.0
63.0
68.0
61.0
73.0
66.0
63.0
60.0
68.0
63.0
62.0
66.0
67.0
68.0
65.0
66.0
59.0
70.0
54.0
70.0
59.0
68.0
56.0
73.0
59.0
76.0
56.0
70.0
58.0
70.0
56.0
72.0
60.0
60.0
66.0
67.0
64.0
65.0
61.0
57.0
67.0
66.0
65.0
64.0
68.0
60.0
68.0
60.0
70.0
65.0
69.0
55.0
72.0
59.0
71.0
63.0
70.0
56.0
69.0
67.0
65.0
68.0
73.0
57.0
73.0
67.0
67.0
61.0
67.0
102.0
54.0
75.0
59.0
68.0
65.0
74.0
56.0
68.0
60.0
63.0
63.0
62.0
71.0
67.0
62.0
62.0
67.0
60.0
69.0
58.0
67.0
67.0
76.0
71.0
74.0
78.0
83.0
68.0
83.0
78.0
80.0
72.0
84.0
85.0
77.0
80.0
83.0
82.0
82.0
78.0
88.0
91.0
82.0
82.0
90.0
85.0
96.0
94.0
94.0
95.0
95.0
92.0
97.0
102.0
94.0
86.0
102.0
108.0
97.0
96.0
98.0
98.0
98.0
102.0
101.0
102.0
108.0
101.0
93.0
101.0
116.0
103.0
110.0
110.0
106.0
100.0
110.0
106.0
123.0
110.0
113.0
107.0
105.0
107.0
113.0
98.0
108.0
100.0
90.0
90.0
92.0
83.0
94.0
79.0
76.0
68.0
73.0
71.0
66.0
116.0
74.0
72.0
78.0
63.0
50.0
66.0
47.0
53.0
56.0
64.0
63.0
58.0
70.0
57.0
69.0
64.0
70.0
67.0
71.0
54.0
69.0
52.0
67.0
67.0
75.0
68.0
77.0
81.0
79.0
82.0
85.0
95.0
113.0
110.0
92.0
109.0
92.0
89.0
87.0
82.0
97.0
92.0
98.0
93.0
101.0
98.0
91.0
88.0
102.0
91.0
96.0
92.0
76.0
79.0
83.0
88.0
90.0
87.0
84.0
90.0
86.0
95.0
95.0
93.0
97.0
95.0
99.0
98.0
96.0
103.0
110.0
112.0
112.0
105.0
112.0
102.0
110.0
116.0
109.0
134.0
139.0
139.0
129.0
119.0
120.0
99.0
108.0
111.0
106.0
122.0
105.0
99.0
115.0
114.0
121.0
123.0
115.0
124.0
111.0
119.0
112.0
117.0
115.0
119.0
110.0
123.0
118.0
116.0
113.0
116.0
113.0
111.0
111.0
116.0
111.0
119.0
113.0
116.0
109.0
146.0
138.0
146.0
121.0
102.0
116.0
102.0
109.0
107.0
115.0
118.0
109.0
121.0
121.0
113.0
114.0
126.0
124.0
107.0
120.0
123.0
105.0
109.0
104.0
99.0
104.0
113.0
130.0
119.0
120.0
107.0
114.0
181.0
114.0
122.0
124.0
122.0
114.0
114.0
113.0
188.0
107.0
108.0
115.0
105.0
111.0
109.0
118.0
109.0
114.0
115.0
109.0
122.0
122.0
120.0
119.0
107.0
117.0
112.0
105.0
114.0
113.0
115.0
106.0
107.0
110.0
109.0
108.0
116.0
107.0
108.0
105.0
135.0
114.0
195.0
109.0
112.0
92.0
117.0
101.0
98.0
107.0
114.0
113.0
107.0
115.0
112.0
111.0
115.0
114.0
137.0
136.0
121.0
113.0
112.0
123.0
114.0
112.0
113.0
113.0
114.0
110.0
107.0
121.0
115.0
113.0
111.0
118.0
106.0
109.0
121.0
114.0
111.0
111.0
120.0
108.0
116.0
107.0
118.0
113.0
122.0
110.0
110.0
122.0
112.0
108.0
108.0
118.0
120.0
116.0
178.0
119.0
115.0
101.0
120.0
111.0
109.0
109.0
103.0
113.0
117.0
111.0
109.0
115.0
104.0
118.0
118.0
108.0
111.0
105.0
105.0
116.0
120.0
108.0
110.0
114.0
112.0
106.0
94.0
95.0
106.0
93.0
78.0
81.0
82.0
78.0
129.0
89.0
90.0
78.0
81.0
76.0
74.0
69.0
70.0
73.0
77.0
72.0
65.0
51.0
50.0
47.0
61.0
46.0
55.0
63.0
51.0
60.0
65.0
69.0
67.0
71.0
63.0
68.0
63.0
71.0
67.0
70.0
66.0
72.0
57.0
68.0
80.0
92.0
92.0
72.0
91.0
82.0
74.0
72.0
75.0
79.0
90.0
86.0
85.0
90.0
80.0
84.0
88.0
90.0
97.0
91.0
95.0
97.0
97.0
94.0
111.0
110.0
106.0
106.0
103.0
101.0
106.0
107.0
107.0
114.0
96.0
107.0
113.0
96.0
102.0
102.0
105.0
103.0
100.0
94.0
95.0
89.0
82.0
85.0
86.0
116.0
65.0
74.0
76.0
81.0
85.0
76.0
70.0
82.0
78.0
68.0
69.0
51.0
56.0
54.0
69.0
71.0
74.0
71.0
77.0
70.0
87.0
78.0
75.0
76.0
74.0
86.0
77.0
84.0
85.0
83.0
87.0
90.0
85.0
105.0
124.0
118.0
128.0
109.0
106.0
106.0
99.0
100.0
102.0
104.0
94.0
108.0
104.0
100.0
97.0
97.0
111.0
107.0
110.0
92.0
120.0
109.0
107.0
116.0
111.0
117.0
117.0
115.0
120.0
114.0
114.0
120.0
125.0
113.0
127.0
113.0
120.0
121.0
123.0
118.0
119.0
129.0
78.0
77.0
75.0
80.0
76.0
83.0
80.0
87.0
74.0
85.0
76.0
82.0
46.0
57.0
47.0
52.0
56.0
46.0
76.0
63.0
69.0
66.0
82.0
74.0
52.0
51.0
81.0
87.0
82.0
81.0
74.0
78.0
61.0
69.0
60.0
72.0
75.0
283.0
78.0
80.0
77.0
70.0
67.0
70.0
78.0
83.0
79.0
77.0
74.0
65.0
71.0
72.0
81.0
79.0
52.0
74.0
2287.0
69.0
71.0
70.0
68.0
70.0
69.0
63.0
69.0
72.0
70.0
68.0
69.0
68.0
63.0
46.0
55.0
65.0
63.0
78.0
68.0
72.0
70.0
63.0
67.0
73.0
69.0
66.0
72.0
74.0
66.0
47.0
60.0
62.0
61.0
79.0
66.0
73.0
67.0
67.0
63.0
71.0
71.0
68.0
67.0
69.0
66.0
70.0
70.0
65.0
78.0
64.0
71.0
70.0
69.0
66.0
101.0
64.0
68.0
70.0
71.0
64.0
65.0
63.0
68.0
72.0
64.0
67.0
70.0
59.0
69.0
67.0
70.0
72.0
69.0
67.0
66.0
72.0
62.0
68.0
62.0
70.0
69.0
74.0
63.0
71.0
68.0
70.0
61.0
68.0
56.0
71.0
71.0
68.0
67.0
74.0
67.0
74.0
64.0
66.0
64.0
81.0
58.0
62.0
51.0
75.0
69.0
71.0
59.0
65.0
55.0
60.0
70.0
70.0
68.0
70.0
68.0
67.0
69.0
58.0
54.0
62.0
74.0
73.0
70.0
73.0
67.0
75.0
61.0
70.0
63.0
69.0
67.0
66.0
61.0
75.0
64.0
68.0
71.0
76.0
72.0
67.0
63.0
77.0
62.0
72.0
54.0
75.0
100.0
61.0
74.0
61.0
67.0
68.0
62.0
65.0
67.0
73.0
73.0
64.0
72.0
64.0
66.0
62.0
74.0
63.0
71.0
94.0
79.0
77.0
75.0
79.0
69.0
75.0
77.0
67.0
68.0
66.0
74.0
58.0
68.0
65.0
69.0
65.0
69.0
63.0
68.0
67.0
72.0
61.0
73.0
68.0
67.0
61.0
69.0
65.0
75.0
62.0
71.0
68.0
73.0
60.0
75.0
61.0
77.0
61.0
70.0
57.0
69.0
64.0
65.0
64.0
77.0
59.0
74.0
61.0
71.0
69.0
72.0
62.0
76.0
70.0
69.0
60.0
70.0
69.0
74.0
61.0
68.0
63.0
78.0
67.0
73.0
65.0
68.0
71.0
67.0
71.0
66.0
69.0
65.0
74.0
65.0
66.0
69.0
73.0
65.0
71.0
62.0
75.0
65.0
77.0
65.0
78.0
61.0
73.0
70.0
65.0
63.0
76.0
62.0
76.0
62.0
74.0
69.0
74.0
69.0
65.0
66.0
70.0
73.0
64.0
69.0
65.0
68.0
66.0
72.0
67.0
62.0
52.0
68.0
70.0
64.0
58.0
67.0
70.0
64.0
53.0
67.0
69.0
58.0
71.0
72.0
73.0
64.0
86.0
63.0
55.0
65.0
71.0
70.0
70.0
70.0
62.0
70.0
72.0
73.0
70.0
70.0
57.0
65.0
51.0
55.0
74.0
77.0
75.0
68.0
78.0
75.0
72.0
82.0
79.0
79.0
83.0
80.0
92.0
84.0
82.0
114.0
52.0
55.0
167.0
106.0
51.0
56.0
56.0
51.0
109.0
1685.0
119.0
119.0
140.0
75.0
140.0
138.0
97.0
98.0
97.0
99.0
96.0
96.0
98.0
94.0
98.0
98.0
105.0
99.0
97.0
101.0
92.0
98.0
108.0
101.0
94.0
105.0
102.0
103.0
107.0
103.0
87.0
105.0
108.0
107.0
108.0
101.0
99.0
99.0
104.0
106.0
103.0
104.0
110.0
110.0
112.0
114.0
138.0
108.0
122.0
110.0
104.0
98.0
93.0
93.0
98.0
96.0
96.0
88.0
87.0
84.0
87.0
331.0
75.0
73.0
72.0
67.0
70.0
71.0
69.0
67.0
68.0
99.0
63.0
66.0
63.0
68.0
61.0
65.0
47.0
50.0
50.0
52.0
54.0
45.0
55.0
52.0
50.0
60.0
59.0
56.0
67.0
67.0
68.0
63.0
63.0
54.0
62.0
58.0
65.0
62.0
69.0
64.0
68.0
70.0
71.0
67.0
71.0
68.0
72.0
107.0
74.0
77.0
72.0
79.0
79.0
82.0
86.0
90.0
96.0
89.0
89.0
91.0
95.0
91.0
89.0
90.0
92.0
92.0
92.0
96.0
90.0
99.0
96.0
98.0
90.0
102.0
100.0
100.0
95.0
92.0
87.0
87.0
85.0
78.0
80.0
79.0
77.0
75.0
69.0
78.0
76.0
71.0
79.0
70.0
66.0
64.0
76.0
72.0
74.0
64.0
69.0
64.0
100.0
68.0
62.0
50.0
50.0
52.0
51.0
56.0
54.0
62.0
63.0
69.0
56.0
55.0
63.0
61.0
64.0
56.0
66.0
62.0
66.0
56.0
63.0
42.0
64.0
49.0
66.0
65.0
69.0
69.0
70.0
71.0
73.0
77.0
111.0
102.0
85.0
117.0
83.0
87.0
83.0
89.0
87.0
92.0
90.0
85.0
91.0
93.0
88.0
91.0
95.0
95.0
91.0
91.0
95.0
97.0
100.0
102.0
93.0
94.0
94.0
97.0
103.0
95.0
102.0
102.0
93.0
100.0
96.0
96.0
95.0
93.0
93.0
92.0
89.0
91.0
88.0
85.0
79.0
80.0
80.0
75.0
77.0
75.0
103.0
72.0
74.0
72.0
69.0
105.0
70.0
76.0
75.0
73.0
88.0
77.0
72.0
68.0
82.0
77.0
73.0
83.0
66.0
62.0
62.0
77.0
67.0
87.0
76.0
73.0
71.0
80.0
69.0
76.0
73.0
72.0
74.0
74.0
77.0
73.0
84.0
78.0
81.0
82.0
85.0
84.0
82.0
86.0
86.0
87.0
86.0
87.0
85.0
92.0
91.0
88.0
96.0
90.0
86.0
86.0
91.0
87.0
94.0
90.0
91.0
87.0
87.0
84.0
84.0
79.0
76.0
76.0
79.0
76.0
71.0
72.0
73.0
70.0
69.0
68.0
66.0
69.0
67.0
64.0
66.0
66.0
68.0
64.0
67.0
64.0
65.0
64.0
67.0
62.0
64.0
59.0
52.0
48.0
51.0
65.0
41.0
57.0
62.0
59.0
74.0
60.0
81.0
87.0
62.0
59.0
60.0
53.0
60.0
53.0
61.0
58.0
55.0
60.0
53.0
64.0
60.0
62.0
96.0
61.0
56.0
65.0
55.0
61.0
59.0
60.0
90.0
62.0
62.0
60.0
61.0
55.0
62.0
62.0
57.0
48.0
66.0
63.0
68.0
66.0
66.0
64.0
68.0
68.0
70.0
72.0
71.0
70.0
75.0
72.0
74.0
77.0
79.0
81.0
80.0
77.0
81.0
80.0
82.0
86.0
89.0
87.0
89.0
88.0
91.0
92.0
91.0
98.0
94.0
92.0
96.0
46.0
91.0
85.0
88.0
86.0
85.0
75.0
81.0
77.0
71.0
72.0
68.0
73.0
77.0
67.0
66.0
83.0
71.0
67.0
79.0
65.0
66.0
65.0
68.0
64.0
63.0
64.0
101.0
101.0
96.0
113.0
105.0
122.0
105.0
94.0
109.0
111.0
109.0
107.0
109.0
55.0
104.0
116.0
113.0
113.0
103.0
117.0
2215.0
103.0
109.0
101.0
106.0
97.0
116.0
109.0
96.0
172.0
99.0
100.0
102.0
90.0
113.0
103.0
96.0
91.0
99.0
100.0
93.0
101.0
100.0
97.0
118.0
94.0
99.0
107.0
104.0
119.0
111.0
104.0
60.0
111.0
104.0
94.0
100.0
93.0
90.0
101.0
91.0
94.0
90.0
96.0
96.0
100.0
92.0
90.0
89.0
101.0
98.0
96.0
96.0
94.0
96.0
97.0
97.0
103.0
96.0
93.0
93.0
105.0
94.0
102.0
99.0
100.0
97.0
96.0
102.0
102.0
99.0
107.0
99.0
106.0
103.0
97.0
101.0
98.0
99.0
94.0
100.0
96.0
103.0
98.0
99.0
105.0
122.0
101.0
105.0
120.0
107.0
100.0
98.0
98.0
96.0
98.0
94.0
101.0
95.0
100.0
100.0
98.0
95.0
105.0
94.0
98.0
60.0
105.0
96.0
101.0
97.0
100.0
99.0
91.0
93.0
93.0
96.0
95.0
99.0
94.0
96.0
92.0
97.0
88.0
92.0
89.0
92.0
86.0
89.0
87.0
85.0
82.0
80.0
79.0
76.0
82.0
77.0
75.0
74.0
74.0
70.0
68.0
73.0
68.0
81.0
71.0
102.0
78.0
63.0
67.0
62.0
69.0
64.0
63.0
63.0
68.0
66.0
69.0
67.0
67.0
67.0
73.0
68.0
72.0
82.0
93.0
85.0
72.0
81.0
81.0
84.0
82.0
82.0
91.0
89.0
81.0
80.0
82.0
92.0
93.0
83.0
80.0
83.0
79.0
95.0
98.0
106.0
89.0
86.0
95.0
90.0
98.0
90.0
113.0
102.0
96.0
125.0
95.0
101.0
109.0
103.0
94.0
112.0
98.0
92.0
94.0
94.0
98.0
112.0
118.0
120.0
102.0
104.0
98.0
94.0
111.0
104.0
102.0
104.0
92.0
94.0
99.0
100.0
98.0
95.0
90.0
98.0
92.0
95.0
152.0
92.0
95.0
98.0
95.0
96.0
94.0
96.0
98.0
94.0
95.0
98.0
97.0
98.0
97.0
100.0
95.0
96.0
94.0
95.0
101.0
102.0
102.0
94.0
95.0
97.0
92.0
96.0
98.0
97.0
97.0
103.0
100.0
98.0
98.0
107.0
96.0
101.0
96.0
104.0
93.0
100.0
98.0
101.0
99.0
95.0
92.0
94.0
90.0
95.0
96.0
94.0
95.0
95.0
96.0
93.0
97.0
93.0
88.0
88.0
92.0
86.0
82.0
78.0
76.0
77.0
78.0
74.0
73.0
69.0
72.0
69.0
72.0
67.0
72.0
66.0
68.0
104.0
62.0
64.0
61.0
66.0
63.0
64.0
60.0
46.0
48.0
55.0
56.0
45.0
49.0
52.0
49.0
52.0
56.0
54.0
53.0
51.0
59.0
59.0
55.0
64.0
51.0
64.0
56.0
61.0
63.0
57.0
60.0
62.0
62.0
54.0
61.0
56.0
61.0
62.0
59.0
62.0
57.0
62.0
57.0
64.0
57.0
60.0
62.0
57.0
61.0
58.0
62.0
53.0
66.0
54.0
65.0
55.0
55.0
62.0
61.0
60.0
51.0
65.0
54.0
62.0
62.0
58.0
60.0
57.0
63.0
59.0
63.0
53.0
60.0
57.0
56.0
63.0
62.0
62.0
51.0
62.0
52.0
58.0
59.0
57.0
62.0
57.0
66.0
58.0
62.0
57.0
63.0
60.0
62.0
58.0
59.0
58.0
56.0
64.0
55.0
63.0
57.0
57.0
60.0
61.0
63.0
55.0
67.0
62.0
71.0
59.0
69.0
62.0
67.0
63.0
67.0
60.0
64.0
68.0
63.0
64.0
72.0
66.0
64.0
67.0
80.0
67.0
64.0
64.0
66.0
69.0
64.0
49.0
74.0
73.0
107.0
66.0
69.0
67.0
71.0
99.0
69.0
63.0
55.0
70.0
59.0
60.0
48.0
63.0
59.0
65.0
63.0
67.0
66.0
73.0
65.0
63.0
62.0
66.0
65.0
66.0
62.0
64.0
63.0
72.0
80.0
76.0
69.0
71.0
71.0
76.0
69.0
76.0
75.0
78.0
87.0
80.0
85.0
113.0
111.0
113.0
108.0
96.0
92.0
90.0
98.0
107.0
100.0
99.0
100.0
116.0
113.0
112.0
120.0
105.0
117.0
110.0
119.0
113.0
116.0
115.0
113.0
105.0
108.0
93.0
96.0
84.0
96.0
81.0
80.0
90.0
88.0
76.0
90.0
84.0
83.0
77.0
65.0
75.0
75.0
115.0
80.0
73.0
76.0
70.0
70.0
71.0
76.0
79.0
79.0
81.0
75.0
74.0
69.0
74.0
76.0
76.0
74.0
75.0
77.0
72.0
74.0
67.0
70.0
63.0
52.0
51.0
73.0
66.0
73.0
65.0
73.0
64.0
72.0
63.0
69.0
64.0
73.0
71.0
71.0
67.0
71.0
64.0
87.0
91.0
87.0
79.0
80.0
74.0
72.0
67.0
71.0
68.0
77.0
72.0
69.0
69.0
70.0
65.0
76.0
65.0
72.0
67.0
67.0
72.0
67.0
67.0
66.0
70.0
68.0
70.0
63.0
69.0
66.0
70.0
65.0
71.0
68.0
68.0
67.0
72.0
62.0
70.0
64.0
72.0
65.0
71.0
64.0
72.0
65.0
73.0
69.0
68.0
66.0
73.0
63.0
77.0
65.0
71.0
71.0
63.0
68.0
66.0
68.0
65.0
65.0
64.0
68.0
73.0
104.0
64.0
70.0
68.0
74.0
68.0
76.0
71.0
65.0
70.0
65.0
74.0
67.0
81.0
69.0
72.0
74.0
78.0
85.0
81.0
82.0
89.0
84.0
92.0
92.0
90.0
100.0
92.0
96.0
101.0
64.0
102.0
81.0
74.0
58.0
119.0
63.0
92.0
92.0
2293.0
96.0
106.0
98.0
100.0
110.0
103.0
110.0
109.0
108.0
117.0
116.0
112.0
110.0
105.0
106.0
115.0
102.0
107.0
131.0
116.0
124.0
117.0
134.0
117.0
118.0
119.0
123.0
113.0
118.0
112.0
126.0
118.0
105.0
97.0
100.0
96.0
83.0
81.0
78.0
80.0
81.0
78.0
77.0
75.0
75.0
76.0
80.0
86.0
78.0
83.0
87.0
81.0
95.0
88.0
85.0
90.0
97.0
89.0
100.0
89.0
92.0
91.0
92.0
81.0
84.0
89.0
87.0
95.0
90.0
92.0
98.0
88.0
93.0
86.0
90.0
83.0
80.0
95.0
81.0
84.0
87.0
92.0
78.0
79.0
86.0
96.0
103.0
97.0
93.0
82.0
85.0
91.0
79.0
97.0
77.0
73.0
74.0
82.0
67.0
73.0
70.0
72.0
75.0
69.0
61.0
56.0
53.0
53.0
55.0
71.0
62.0
70.0
63.0
69.0
63.0
70.0
59.0
70.0
61.0
58.0
54.0
67.0
63.0
73.0
68.0
54.0
53.0
59.0
69.0
57.0
69.0
66.0
70.0
59.0
69.0
56.0
70.0
63.0
67.0
60.0
66.0
59.0
68.0
62.0
64.0
60.0
60.0
71.0
54.0
71.0
63.0
75.0
57.0
68.0
64.0
59.0
74.0
75.0
55.0
74.0
57.0
58.0
70.0
70.0
67.0
74.0
62.0
70.0
58.0
75.0
59.0
101.0
68.0
68.0
71.0
70.0
69.0
66.0
67.0
60.0
68.0
66.0
72.0
60.0
68.0
69.0
71.0
67.0
69.0
57.0
53.0
64.0
49.0
59.0
68.0
76.0
73.0
73.0
82.0
76.0
76.0
73.0
76.0
75.0
75.0
86.0
90.0
90.0
92.0
84.0
89.0
78.0
79.0
78.0
70.0
86.0
84.0
82.0
82.0
75.0
77.0
75.0
68.0
60.0
74.0
58.0
71.0
61.0
62.0
52.0
78.0
60.0
69.0
58.0
73.0
63.0
69.0
62.0
68.0
68.0
69.0
71.0
70.0
106.0
55.0
65.0
72.0
68.0
57.0
67.0
56.0
61.0
68.0
64.0
54.0
67.0
62.0
60.0
60.0
56.0
72.0
59.0
65.0
65.0
72.0
61.0
62.0
62.0
68.0
60.0
66.0
61.0
64.0
57.0
67.0
62.0
64.0
69.0
71.0
66.0
77.0
72.0
75.0
71.0
72.0
72.0
84.0
83.0
82.0
77.0
76.0
85.0
93.0
81.0
81.0
98.0
87.0
85.0
72.0
80.0
84.0
75.0
81.0
83.0
89.0
90.0
92.0
87.0
99.0
90.0
89.0
91.0
87.0
87.0
112.0
103.0
108.0
110.0
97.0
88.0
92.0
87.0
91.0
98.0
90.0
96.0
93.0
89.0
94.0
102.0
98.0
94.0
105.0
110.0
106.0
99.0
103.0
91.0
94.0
100.0
102.0
95.0
104.0
109.0
107.0
93.0
107.0
99.0
93.0
89.0
80.0
81.0
99.0
86.0
95.0
89.0
105.0
99.0
92.0
99.0
102.0
93.0
96.0
100.0
100.0
100.0
102.0
104.0
97.0
99.0
96.0
104.0
102.0
98.0
104.0
102.0
104.0
102.0
104.0
107.0
106.0
103.0
104.0
99.0
93.0
105.0
95.0
104.0
100.0
100.0
103.0
100.0
105.0
103.0
101.0
106.0
114.0
115.0
107.0
111.0
100.0
103.0
98.0
109.0
93.0
91.0
98.0
91.0
100.0
99.0
98.0
98.0
92.0
99.0
91.0
105.0
89.0
91.0
96.0
91.0
88.0
94.0
89.0
93.0
98.0
89.0
93.0
85.0
89.0
74.0
77.0
87.0
90.0
81.0
82.0
81.0
78.0
81.0
77.0
71.0
78.0
72.0
79.0
68.0
70.0
52.0
57.0
58.0
55.0
52.0
67.0
77.0
73.0
72.0
72.0
74.0
70.0
68.0
61.0
73.0
66.0
65.0
49.0
51.0
56.0
54.0
55.0
68.0
60.0
75.0
64.0
70.0
62.0
71.0
68.0
67.0
67.0
67.0
62.0
53.0
61.0
45.0
69.0
66.0
67.0
59.0
77.0
67.0
69.0
66.0
67.0
67.0
63.0
62.0
68.0
61.0
65.0
55.0
74.0
65.0
64.0
58.0
69.0
58.0
70.0
63.0
70.0
58.0
70.0
65.0
69.0
64.0
64.0
57.0
97.0
77.0
77.0
62.0
73.0
68.0
62.0
71.0
68.0
60.0
71.0
70.0
62.0
65.0
69.0
58.0
50.0
54.0
74.0
77.0
66.0
60.0
75.0
63.0
86.0
77.0
74.0
68.0
65.0
69.0
67.0
69.0
67.0
69.0
60.0
65.0
66.0
71.0
59.0
71.0
65.0
58.0
72.0
67.0
66.0
70.0
66.0
56.0
53.0
64.0
71.0
66.0
75.0
72.0
71.0
67.0
70.0
71.0
64.0
74.0
64.0
62.0
50.0
57.0
57.0
54.0
75.0
62.0
101.0
62.0
67.0
66.0
67.0
63.0
68.0
71.0
68.0
73.0
68.0
74.0
74.0
76.0
73.0
75.0
81.0
77.0
74.0
78.0
75.0
80.0
75.0
83.0
79.0
77.0
81.0
72.0
84.0
75.0
82.0
84.0
77.0
83.0
96.0
84.0
86.0
89.0
115.0
117.0
98.0
113.0
103.0
96.0
96.0
101.0
97.0
96.0
109.0
97.0
99.0
102.0
102.0
97.0
93.0
90.0
96.0
102.0
106.0
105.0
97.0
109.0
98.0
98.0
96.0
111.0
97.0
108.0
107.0
113.0
112.0
107.0
103.0
99.0
105.0
99.0
108.0
105.0
99.0
100.0
105.0
99.0
107.0
101.0
113.0
110.0
107.0
97.0
103.0
103.0
102.0
107.0
112.0
112.0
117.0
107.0
105.0
97.0
113.0
100.0
101.0
97.0
87.0
101.0
100.0
96.0
94.0
94.0
99.0
88.0
107.0
105.0
110.0
104.0
104.0
109.0
102.0
111.0
97.0
103.0
105.0
103.0
105.0
110.0
97.0
104.0
112.0
116.0
107.0
116.0
127.0
118.0
119.0
109.0
78.0
105.0
78.0
83.0
91.0
83.0
75.0
81.0
72.0
72.0
72.0
66.0
80.0
71.0
71.0
52.0
50.0
47.0
49.0
57.0
47.0
61.0
72.0
72.0
66.0
69.0
64.0
71.0
62.0
65.0
63.0
66.0
69.0
67.0
67.0
69.0
104.0
73.0
62.0
73.0
77.0
65.0
67.0
61.0
63.0
72.0
61.0
66.0
67.0
65.0
65.0
71.0
60.0
98.0
78.0
66.0
71.0
63.0
74.0
63.0
76.0
60.0
70.0
59.0
68.0
58.0
72.0
65.0
76.0
61.0
74.0
56.0
68.0
62.0
73.0
58.0
77.0
61.0
78.0
60.0
72.0
67.0
70.0
58.0
73.0
61.0
76.0
79.0
67.0
79.0
79.0
78.0
80.0
79.0
82.0
74.0
73.0
76.0
76.0
76.0
85.0
81.0
89.0
83.0
85.0
84.0
88.0
100.0
100.0
98.0
104.0
93.0
90.0
92.0
95.0
97.0
91.0
89.0
101.0
100.0
98.0
120.0
128.0
115.0
114.0
109.0
112.0
102.0
103.0
102.0
101.0
101.0
98.0
102.0
102.0
116.0
106.0
108.0
110.0
115.0
113.0
113.0
89.0
96.0
93.0
92.0
91.0
82.0
91.0
87.0
91.0
90.0
94.0
103.0
88.0
93.0
111.0
106.0
94.0
101.0
97.0
94.0
107.0
93.0
99.0
95.0
93.0
102.0
93.0
86.0
90.0
97.0
92.0
82.0
86.0
89.0
85.0
81.0
92.0
97.0
90.0
92.0
89.0
96.0
96.0
99.0
94.0
98.0
99.0
99.0
119.0
100.0
123.0
108.0
94.0
100.0
108.0
100.0
102.0
111.0
101.0
102.0
97.0
93.0
120.0
102.0
104.0
96.0
101.0
112.0
119.0
108.0
107.0
116.0
103.0
93.0
90.0
90.0
89.0
102.0
100.0
102.0
103.0
93.0
108.0
98.0
108.0
105.0
106.0
114.0
108.0
109.0
116.0
118.0
124.0
127.0
123.0
119.0
131.0
109.0
107.0
106.0
104.0
109.0
111.0
117.0
111.0
111.0
112.0
110.0
124.0
124.0
123.0
124.0
125.0
116.0
118.0
108.0
108.0
101.0
127.0
108.0
121.0
117.0
127.0
121.0
117.0
132.0
129.0
116.0
124.0
113.0
116.0
113.0
112.0
119.0
122.0
117.0
118.0
114.0
124.0
116.0
124.0
117.0
124.0
120.0
119.0
125.0
110.0
105.0
125.0
118.0
118.0
110.0
113.0
115.0
108.0
121.0
123.0
110.0
105.0
120.0
117.0
111.0
119.0
114.0
120.0
120.0
105.0
114.0
111.0
134.0
113.0
118.0
113.0
107.0
116.0
107.0
118.0
114.0
115.0
121.0
123.0
117.0
119.0
122.0
118.0
119.0
137.0
131.0
129.0
116.0
118.0
128.0
123.0
128.0
128.0
121.0
121.0
123.0
113.0
112.0
117.0
117.0
115.0
114.0
105.0
97.0
99.0
105.0
115.0
114.0
113.0
102.0
102.0
108.0
109.0
113.0
122.0
129.0
129.0
119.0
118.0
122.0
116.0
113.0
109.0
116.0
113.0
115.0
121.0
119.0
115.0
120.0
109.0
93.0
112.0
127.0
112.0
125.0
129.0
110.0
110.0
109.0
120.0
109.0
107.0
107.0
112.0
114.0
120.0
107.0
113.0
124.0
112.0
115.0
110.0
114.0
116.0
110.0
102.0
113.0
100.0
97.0
101.0
93.0
96.0
103.0
117.0
104.0
99.0
100.0
106.0
106.0
99.0
109.0
106.0
115.0
107.0
102.0
109.0
112.0
110.0
118.0
109.0
96.0
100.0
108.0
101.0
101.0
116.0
113.0
119.0
110.0
105.0
107.0
118.0
111.0
110.0
115.0
119.0
108.0
110.0
115.0
122.0
123.0
121.0
113.0
112.0
124.0
135.0
128.0
136.0
131.0
128.0
107.0
116.0
122.0
115.0
116.0
118.0
112.0
115.0
123.0
119.0
125.0
119.0
119.0
111.0
121.0
115.0
118.0
116.0
121.0
120.0
105.0
111.0
112.0
95.0
104.0
101.0
108.0
102.0
105.0
107.0
107.0
110.0
106.0
80.0
86.0
89.0
91.0
97.0
91.0
97.0
95.0
111.0
104.0
107.0
95.0
109.0
102.0
105.0
108.0
110.0
116.0
115.0
119.0
110.0
110.0
104.0
108.0
126.0
119.0
131.0
131.0
120.0
108.0
105.0
121.0
118.0
118.0
114.0
118.0
120.0
109.0
106.0
111.0
119.0
121.0
122.0
112.0
124.0
135.0
126.0
119.0
108.0
117.0
119.0
116.0
120.0
104.0
105.0
116.0
109.0
103.0
82.0
81.0
82.0
82.0
83.0
78.0
74.0
77.0
76.0
80.0
77.0
79.0
78.0
70.0
76.0
75.0
72.0
76.0
53.0
53.0
53.0
52.0
55.0
49.0
58.0
64.0
57.0
78.0
63.0
73.0
70.0
67.0
69.0
68.0
77.0
87.0
83.0
59.0
74.0
88.0
89.0
84.0
69.0
89.0
84.0
74.0
73.0
64.0
69.0
69.0
80.0
75.0
80.0
76.0
70.0
73.0
75.0
75.0
71.0
84.0
71.0
76.0
77.0
66.0
65.0
68.0
73.0
73.0
77.0
74.0
76.0
70.0
82.0
85.0
86.0
85.0
77.0
83.0
84.0
85.0
89.0
83.0
91.0
90.0
99.0
88.0
89.0
102.0
100.0
90.0
111.0
106.0
114.0
105.0
107.0
109.0
119.0
114.0
116.0
136.0
152.0
144.0
138.0
129.0
129.0
118.0
127.0
113.0
118.0
128.0
131.0
117.0
115.0
122.0
114.0
125.0
124.0
117.0
124.0
117.0
124.0
120.0
116.0
107.0
104.0
106.0
108.0
96.0
97.0
92.0
90.0
92.0
91.0
84.0
84.0
85.0
79.0
78.0
71.0
76.0
74.0
76.0
85.0
70.0
77.0
87.0
83.0
84.0
93.0
103.0
92.0
84.0
93.0
80.0
86.0
68.0
76.0
79.0
82.0
75.0
77.0
78.0
74.0
76.0
72.0
71.0
65.0
70.0
97.0
57.0
46.0
52.0
64.0
69.0
62.0
69.0
65.0
68.0
66.0
105.0
59.0
75.0
62.0
69.0
76.0
71.0
69.0
68.0
65.0
70.0
65.0
71.0
65.0
60.0
56.0
72.0
66.0
89.0
93.0
83.0
72.0
83.0
68.0
73.0
64.0
66.0
65.0
65.0
70.0
69.0
65.0
63.0
70.0
72.0
71.0
76.0
63.0
70.0
64.0
72.0
64.0
76.0
61.0
74.0
65.0
76.0
61.0
71.0
73.0
77.0
73.0
73.0
73.0
78.0
77.0
76.0
82.0
83.0
74.0
81.0
84.0
85.0
81.0
90.0
96.0
92.0
98.0
94.0
93.0
90.0
95.0
102.0
107.0
101.0
104.0
93.0
106.0
94.0
103.0
115.0
113.0
106.0
98.0
112.0
109.0
121.0
129.0
128.0
100.0
113.0
111.0
115.0
114.0
110.0
101.0
114.0
115.0
115.0
103.0
116.0
119.0
114.0
111.0
105.0
116.0
108.0
120.0
115.0
112.0
115.0
104.0
111.0
114.0
115.0
121.0
115.0
105.0
117.0
112.0
112.0
116.0
109.0
120.0
115.0
111.0
111.0
110.0
113.0
116.0
122.0
113.0
102.0
113.0
115.0
120.0
104.0
125.0
112.0
114.0
109.0
115.0
129.0
106.0
110.0
112.0
105.0
95.0
95.0
91.0
81.0
87.0
90.0
82.0
85.0
79.0
88.0
77.0
82.0
82.0
74.0
84.0
83.0
77.0
84.0
76.0
117.0
73.0
79.0
69.0
75.0
69.0
68.0
64.0
59.0
73.0
58.0
62.0
61.0
70.0
69.0
71.0
69.0
71.0
70.0
72.0
66.0
68.0
70.0
63.0
72.0
64.0
64.0
74.0
69.0
66.0
77.0
58.0
74.0
63.0
77.0
61.0
72.0
68.0
85.0
85.0
80.0
78.0
92.0
74.0
72.0
73.0
69.0
71.0
95.0
61.0
54.0
73.0
75.0
72.0
69.0
71.0
61.0
69.0
66.0
73.0
62.0
73.0
61.0
66.0
60.0
66.0
69.0
69.0
64.0
72.0
64.0
74.0
65.0
75.0
63.0
76.0
71.0
73.0
74.0
76.0
77.0
76.0
88.0
81.0
79.0
91.0
85.0
113.0
111.0
87.0
100.0
82.0
85.0
91.0
95.0
92.0
96.0
95.0
85.0
97.0
104.0
104.0
104.0
111.0
109.0
105.0
116.0
119.0
117.0
118.0
120.0
134.0
113.0
102.0
111.0
114.0
121.0
122.0
120.0
123.0
106.0
110.0
114.0
130.0
112.0
115.0
112.0
117.0
113.0
114.0
114.0
117.0
118.0
115.0
113.0
127.0
115.0
117.0
111.0
126.0
117.0
125.0
140.0
119.0
105.0
114.0
117.0
110.0
120.0
128.0
113.0
122.0
133.0
121.0
117.0
109.0
110.0
97.0
97.0
92.0
72.0
86.0
79.0
83.0
78.0
68.0
73.0
74.0
82.0
75.0
84.0
81.0
85.0
84.0
76.0
75.0
74.0
73.0
77.0
51.0
66.0
51.0
60.0
68.0
73.0
72.0
97.0
62.0
68.0
73.0
71.0
71.0
58.0
73.0
73.0
73.0
66.0
74.0
60.0
69.0
65.0
74.0
64.0
76.0
59.0
70.0
64.0
73.0
61.0
74.0
62.0
72.0
79.0
69.0
68.0
72.0
63.0
72.0
71.0
75.0
69.0
69.0
82.0
85.0
85.0
74.0
83.0
79.0
66.0
75.0
73.0
72.0
72.0
71.0
61.0
74.0
69.0
103.0
75.0
70.0
70.0
65.0
72.0
69.0
70.0
72.0
68.0
70.0
68.0
60.0
59.0
70.0
69.0
76.0
78.0
74.0
71.0
75.0
79.0
74.0
81.0
77.0
88.0
82.0
83.0
89.0
78.0
88.0
98.0
93.0
97.0
88.0
90.0
101.0
95.0
90.0
115.0
103.0
98.0
105.0
104.0
99.0
125.0
110.0
103.0
109.0
110.0
116.0
111.0
108.0
125.0
116.0
119.0
121.0
118.0
117.0
117.0
114.0
119.0
115.0
123.0
105.0
114.0
110.0
115.0
114.0
109.0
116.0
114.0
99.0
125.0
106.0
118.0
113.0
125.0
129.0
118.0
113.0
121.0
132.0
124.0
137.0
108.0
117.0
109.0
129.0
116.0
106.0
118.0
125.0
138.0
130.0
131.0
132.0
129.0
97.0
108.0
114.0
107.0
124.0
100.0
115.0
112.0
117.0
118.0
118.0
111.0
122.0
123.0
101.0
110.0
110.0
122.0
122.0
119.0
110.0
104.0
118.0
120.0
118.0
118.0
115.0
119.0
121.0
120.0
104.0
132.0
132.0
134.0
133.0
132.0
98.0
100.0
108.0
101.0
106.0
103.0
96.0
102.0
97.0
104.0
100.0
102.0
112.0
108.0
95.0
107.0
116.0
102.0
99.0
103.0
97.0
102.0
99.0
106.0
102.0
106.0
97.0
101.0
97.0
104.0
96.0
100.0
99.0
97.0
101.0
105.0
104.0
101.0
99.0
99.0
97.0
98.0
95.0
92.0
101.0
99.0
104.0
95.0
103.0
105.0
111.0
106.0
108.0
102.0
95.0
99.0
107.0
93.0
104.0
102.0
99.0
104.0
93.0
109.0
101.0
110.0
104.0
99.0
94.0
102.0
104.0
99.0
99.0
104.0
102.0
102.0
103.0
100.0
107.0
99.0
101.0
94.0
98.0
94.0
97.0
112.0
92.0
101.0
102.0
105.0
98.0
100.0
100.0
92.0
104.0
100.0
98.0
107.0
110.0
94.0
102.0
99.0
94.0
93.0
95.0
105.0
103.0
101.0
96.0
101.0
92.0
102.0
106.0
92.0
99.0
95.0
95.0
105.0
98.0
116.0
98.0
106.0
104.0
99.0
99.0
104.0
101.0
103.0
103.0
102.0
100.0
103.0
92.0
100.0
101.0
103.0
98.0
104.0
100.0
107.0
100.0
102.0
94.0
102.0
96.0
99.0
98.0
99.0
104.0
101.0
97.0
102.0
104.0
99.0
104.0
95.0
98.0
94.0
102.0
99.0
98.0
102.0
96.0
101.0
99.0
99.0
99.0
100.0
98.0
105.0
98.0
102.0
100.0
97.0
104.0
110.0
102.0
95.0
98.0
98.0
101.0
96.0
103.0
94.0
99.0
94.0
101.0
103.0
100.0
100.0
107.0
102.0
87.0
95.0
106.0
101.0
97.0
101.0
103.0
100.0
96.0
92.0
97.0
90.0
103.0
96.0
105.0
105.0
101.0
95.0
103.0
100.0
92.0
95.0
97.0
99.0
91.0
103.0
99.0
94.0
98.0
103.0
98.0
98.0
102.0
100.0
105.0
100.0
105.0
95.0
101.0
98.0
96.0
101.0
101.0
104.0
96.0
96.0
105.0
51.0
97.0
103.0
103.0
105.0
101.0
104.0
98.0
101.0
109.0
105.0
97.0
99.0
98.0
96.0
101.0
97.0
114.0
101.0
100.0
101.0
95.0
93.0
96.0
104.0
97.0
107.0
100.0
101.0
98.0
109.0
108.0
101.0
104.0
103.0
100.0
108.0
108.0
108.0
98.0
105.0
109.0
106.0
105.0
105.0
107.0
104.0
109.0
106.0
103.0
119.0
107.0
104.0
102.0
102.0
100.0
104.0
102.0
101.0
110.0
102.0
100.0
100.0
96.0
102.0
98.0
94.0
95.0
95.0
95.0
89.0
108.0
92.0
102.0
98.0
94.0
98.0
97.0
104.0
102.0
97.0
98.0
98.0
91.0
101.0
98.0
97.0
99.0
96.0
94.0
92.0
110.0
103.0
109.0
105.0
111.0
96.0
113.0
95.0
97.0
95.0
100.0
93.0
97.0
99.0
89.0
94.0
90.0
92.0
88.0
95.0
91.0
98.0
97.0
95.0
131.0
115.0
95.0
103.0
95.0
106.0
100.0
102.0
99.0
103.0
98.0
95.0
100.0
96.0
95.0
97.0
98.0
106.0
105.0
104.0
101.0
105.0
91.0
103.0
92.0
93.0
92.0
97.0
103.0
93.0
99.0
98.0
99.0
92.0
101.0
96.0
101.0
96.0
92.0
93.0
100.0
91.0
90.0
91.0
89.0
85.0
83.0
83.0
97.0
97.0
102.0
88.0
80.0
78.0
79.0
75.0
79.0
77.0
77.0
76.0
68.0
72.0
73.0
72.0
76.0
73.0
75.0
75.0
79.0
81.0
83.0
86.0
79.0
87.0
81.0
85.0
134.0
87.0
89.0
92.0
90.0
81.0
79.0
82.0
79.0
78.0
82.0
76.0
80.0
74.0
75.0
74.0
71.0
72.0
71.0
71.0
73.0
73.0
70.0
72.0
66.0
68.0
70.0
68.0
67.0
67.0
70.0
77.0
73.0
70.0
76.0
69.0
81.0
75.0
78.0
79.0
72.0
83.0
90.0
89.0
86.0
87.0
85.0
75.0
74.0
114.0
71.0
79.0
76.0
70.0
76.0
71.0
86.0
83.0
79.0
84.0
88.0
78.0
84.0
91.0
84.0
83.0
82.0
87.0
90.0
91.0
94.0
94.0
97.0
91.0
103.0
101.0
102.0
104.0
105.0
105.0
129.0
135.0
109.0
125.0
122.0
140.0
142.0
142.0
133.0
120.0
136.0
123.0
114.0
112.0
120.0
117.0
107.0
98.0
100.0
97.0
101.0
115.0
102.0
111.0
120.0
120.0
126.0
118.0
114.0
119.0
122.0
130.0
121.0
122.0
120.0
118.0
112.0
114.0
113.0
121.0
127.0
115.0
122.0
118.0
120.0
123.0
109.0
106.0
123.0
108.0
108.0
134.0
120.0
122.0
114.0
109.0
116.0
107.0
109.0
118.0
103.0
104.0
107.0
96.0
89.0
100.0
94.0
89.0
88.0
94.0
87.0
86.0
87.0
89.0
93.0
145.0
105.0
110.0
112.0
104.0
109.0
98.0
98.0
94.0
82.0
79.0
90.0
81.0
81.0
82.0
89.0
85.0
94.0
73.0
84.0
87.0
88.0
82.0
84.0
87.0
81.0
80.0
80.0
71.0
78.0
70.0
74.0
80.0
77.0
73.0
68.0
92.0
84.0
76.0
67.0
93.0
86.0
84.0
72.0
75.0
82.0
117.0
70.0
72.0
75.0
80.0
72.0
89.0
85.0
99.0
102.0
100.0
101.0
101.0
108.0
98.0
102.0
102.0
108.0
113.0
110.0
126.0
119.0
118.0
125.0
134.0
126.0
129.0
148.0
143.0
160.0
137.0
142.0
129.0
131.0
132.0
142.0
142.0
137.0
121.0
132.0
135.0
130.0
122.0
131.0
123.0
136.0
136.0
133.0
128.0
138.0
130.0
125.0
134.0
125.0
125.0
126.0
131.0
127.0
120.0
130.0
125.0
129.0
141.0
141.0
142.0
140.0
137.0
117.0
127.0
101.0
132.0
119.0
122.0
146.0
153.0
147.0
125.0
121.0
136.0
120.0
110.0
132.0
131.0
131.0
122.0
107.0
114.0
112.0
106.0
98.0
110.0
81.0
87.0
88.0
97.0
91.0
88.0
88.0
91.0
80.0
88.0
95.0
81.0
98.0
82.0
87.0
121.0
73.0
78.0
85.0
69.0
85.0
77.0
77.0
124.0
76.0
76.0
77.0
76.0
78.0
80.0
72.0
55.0
47.0
48.0
58.0
48.0
59.0
49.0
67.0
77.0
70.0
80.0
79.0
60.0
84.0
65.0
74.0
77.0
79.0
77.0
94.0
91.0
74.0
86.0
87.0
75.0
83.0
80.0
79.0
87.0
77.0
84.0
83.0
86.0
88.0
90.0
98.0
97.0
97.0
102.0
113.0
103.0
101.0
103.0
109.0
110.0
111.0
112.0
115.0
126.0
130.0
134.0
134.0
127.0
123.0
133.0
144.0
137.0
132.0
137.0
145.0
148.0
153.0
144.0
129.0
121.0
133.0
165.0
144.0
151.0
82.0
120.0
76.0
129.0
120.0
115.0
117.0
100.0
69.0
111.0
64.0
62.0
116.0
178.0
2686.0
101.0
110.0
100.0
104.0
105.0
95.0
104.0
93.0
97.0
100.0
92.0
99.0
101.0
100.0
99.0
104.0
104.0
96.0
100.0
98.0
108.0
116.0
93.0
95.0
100.0
97.0
100.0
99.0
106.0
109.0
105.0
103.0
99.0
101.0
104.0
106.0
100.0
100.0
115.0
107.0
112.0
111.0
117.0
123.0
105.0
117.0
110.0
105.0
101.0
100.0
107.0
102.0
111.0
91.0
93.0
88.0
93.0
89.0
91.0
92.0
95.0
93.0
104.0
95.0
95.0
94.0
98.0
94.0
97.0
89.0
81.0
79.0
74.0
76.0
82.0
82.0
83.0
81.0
81.0
80.0
81.0
83.0
84.0
90.0
142.0
102.0
88.0
92.0
92.0
90.0
92.0
100.0
107.0
95.0
103.0
113.0
107.0
111.0
112.0
112.0
182.0
124.0
125.0
111.0
105.0
107.0
97.0
99.0
100.0
109.0
124.0
106.0
103.0
101.0
92.0
90.0
77.0
75.0
77.0
78.0
73.0
77.0
83.0
74.0
76.0
70.0
78.0
81.0
76.0
75.0
72.0
80.0
74.0
73.0
74.0
90.0
90.0
91.0
97.0
95.0
90.0
82.0
88.0
89.0
92.0
94.0
87.0
94.0
85.0
90.0
92.0
95.0
95.0
98.0
117.0
114.0
117.0
112.0
103.0
103.0
102.0
113.0
125.0
118.0
117.0
113.0
115.0
103.0
118.0
107.0
117.0
115.0
95.0
107.0
111.0
121.0
127.0
129.0
115.0
121.0
112.0
114.0
113.0
123.0
121.0
108.0
97.0
100.0
106.0
102.0
100.0
109.0
102.0
106.0
105.0
103.0
92.0
94.0
93.0
91.0
86.0
77.0
74.0
81.0
84.0
72.0
75.0
80.0
74.0
73.0
74.0
68.0
63.0
69.0
94.0
71.0
60.0
52.0
72.0
66.0
67.0
61.0
68.0
74.0
64.0
81.0
76.0
78.0
77.0
79.0
77.0
69.0
69.0
63.0
70.0
63.0
67.0
64.0
66.0
65.0
63.0
65.0
69.0
66.0
66.0
63.0
74.0
69.0
73.0
63.0
67.0
54.0
74.0
64.0
70.0
66.0
65.0
65.0
69.0
89.0
87.0
68.0
78.0
88.0
69.0
100.0
56.0
66.0
73.0
70.0
75.0
62.0
62.0
71.0
65.0
69.0
65.0
69.0
69.0
67.0
65.0
60.0
61.0
64.0
64.0
67.0
63.0
68.0
62.0
54.0
61.0
79.0
71.0
74.0
74.0
76.0
73.0
84.0
82.0
76.0
77.0
76.0
83.0
84.0
86.0
93.0
101.0
120.0
116.0
110.0
107.0
103.0
104.0
100.0
103.0
97.0
107.0
105.0
105.0
105.0
111.0
121.0
117.0
114.0
119.0
116.0
125.0
128.0
125.0
132.0
137.0
123.0
113.0
114.0
115.0
109.0
116.0
103.0
108.0
112.0
113.0
117.0
113.0
111.0
136.0
119.0
123.0
117.0
115.0
120.0
112.0
114.0
106.0
107.0
106.0
114.0
109.0
112.0
115.0
108.0
117.0
119.0
124.0
119.0
100.0
106.0
97.0
85.0
92.0
84.0
91.0
85.0
82.0
79.0
78.0
81.0
73.0
73.0
68.0
79.0
70.0
67.0
75.0
71.0
61.0
68.0
65.0
74.0
62.0
65.0
59.0
80.0
85.0
70.0
63.0
70.0
75.0
64.0
116.0
74.0
86.0
75.0
53.0
72.0
66.0
66.0
66.0
74.0
62.0
63.0
71.0
75.0
73.0
69.0
67.0
70.0
66.0
72.0
61.0
81.0
58.0
74.0
69.0
66.0
45.0
70.0
62.0
70.0
67.0
69.0
64.0
69.0
70.0
64.0
87.0
87.0
84.0
73.0
131.0
75.0
84.0
73.0
74.0
72.0
77.0
67.0
71.0
67.0
69.0
67.0
81.0
72.0
73.0
74.0
77.0
86.0
84.0
74.0
79.0
73.0
81.0
70.0
75.0
72.0
82.0
80.0
78.0
74.0
80.0
77.0
79.0
80.0
85.0
81.0
84.0
101.0
94.0
89.0
92.0
126.0
124.0
118.0
121.0
114.0
93.0
118.0
114.0
116.0
115.0
99.0
104.0
102.0
110.0
106.0
104.0
109.0
112.0
130.0
131.0
134.0
121.0
125.0
114.0
106.0
105.0
114.0
108.0
114.0
125.0
115.0
121.0
116.0
113.0
120.0
112.0
106.0
125.0
114.0
111.0
62.0
109.0
111.0
113.0
121.0
114.0
118.0
115.0
125.0
125.0
106.0
120.0
123.0
112.0
114.0
117.0
112.0
117.0
108.0
122.0
116.0
114.0
114.0
113.0
110.0
117.0
103.0
106.0
108.0
100.0
97.0
93.0
97.0
80.0
88.0
86.0
84.0
90.0
94.0
90.0
86.0
78.0
67.0
78.0
75.0
81.0
84.0
81.0
81.0
87.0
82.0
90.0
85.0
97.0
92.0
91.0
78.0
80.0
81.0
84.0
86.0
86.0
70.0
77.0
74.0
73.0
71.0
71.0
73.0
76.0
71.0
72.0
69.0
73.0
70.0
73.0
76.0
65.0
68.0
67.0
69.0
61.0
74.0
69.0
68.0
57.0
51.0
46.0
56.0
58.0
49.0
64.0
68.0
63.0
65.0
56.0
64.0
58.0
64.0
75.0
77.0
69.0
70.0
64.0
67.0
67.0
68.0
80.0
70.0
77.0
77.0
85.0
83.0
71.0
85.0
80.0
82.0
78.0
82.0
90.0
79.0
84.0
86.0
81.0
87.0
94.0
100.0
100.0
101.0
100.0
96.0
102.0
123.0
120.0
120.0
130.0
125.0
124.0
113.0
101.0
110.0
104.0
118.0
112.0
119.0
117.0
123.0
112.0
107.0
104.0
93.0
89.0
94.0
100.0
99.0
88.0
92.0
91.0
94.0
88.0
89.0
95.0
82.0
86.0
89.0
90.0
89.0
92.0
84.0
91.0
84.0
104.0
92.0
106.0
95.0
105.0
98.0
97.0
103.0
98.0
106.0
96.0
109.0
104.0
100.0
98.0
109.0
90.0
115.0
105.0
98.0
93.0
98.0
110.0
108.0
99.0
109.0
107.0
107.0
113.0
99.0
100.0
123.0
108.0
106.0
129.0
117.0
126.0
126.0
114.0
107.0
118.0
113.0
105.0
103.0
116.0
117.0
122.0
117.0
116.0
113.0
105.0
107.0
107.0
104.0
108.0
114.0
110.0
109.0
115.0
116.0
118.0
111.0
111.0
128.0
121.0
102.0
117.0
106.0
125.0
112.0
117.0
124.0
111.0
123.0
121.0
113.0
122.0
134.0
136.0
115.0
125.0
126.0
113.0
112.0
115.0
108.0
114.0
125.0
112.0
111.0
108.0
116.0
121.0
110.0
101.0
125.0
112.0
112.0
119.0
108.0
107.0
109.0
118.0
117.0
112.0
110.0
114.0
125.0
123.0
123.0
144.0
147.0
149.0
152.0
119.0
111.0
118.0
107.0
105.0
106.0
99.0
109.0
108.0
113.0
102.0
101.0
89.0
98.0
95.0
94.0
91.0
99.0
94.0
93.0
93.0
100.0
91.0
102.0
99.0
99.0
101.0
104.0
100.0
96.0
101.0
105.0
100.0
101.0
98.0
96.0
100.0
95.0
102.0
100.0
102.0
93.0
100.0
98.0
97.0
101.0
96.0
93.0
97.0
101.0
97.0
93.0
93.0
96.0
96.0
95.0
90.0
86.0
87.0
81.0
121.0
78.0
78.0
77.0
76.0
74.0
71.0
72.0
73.0
74.0
70.0
69.0
69.0
68.0
70.0
69.0
69.0
66.0
67.0
69.0
67.0
70.0
68.0
73.0
69.0
71.0
73.0
69.0
69.0
67.0
106.0
69.0
63.0
66.0
71.0
65.0
70.0
60.0
58.0
46.0
60.0
69.0
76.0
66.0
71.0
70.0
69.0
73.0
70.0
68.0
70.0
74.0
65.0
71.0
69.0
70.0
71.0
74.0
65.0
69.0
72.0
65.0
64.0
72.0
67.0
74.0
75.0
74.0
77.0
74.0
79.0
71.0
66.0
64.0
70.0
62.0
69.0
65.0
72.0
69.0
71.0
65.0
65.0
64.0
72.0
65.0
65.0
66.0
84.0
72.0
68.0
74.0
68.0
68.0
64.0
69.0
69.0
66.0
68.0
69.0
65.0
58.0
59.0
70.0
69.0
72.0
75.0
70.0
66.0
70.0
73.0
78.0
71.0
76.0
76.0
83.0
83.0
81.0
86.0
81.0
88.0
101.0
96.0
101.0
95.0
96.0
107.0
96.0
115.0
111.0
108.0
111.0
112.0
108.0
116.0
114.0
111.0
119.0
117.0
114.0
106.0
106.0
115.0
107.0
116.0
105.0
115.0
106.0
109.0
104.0
108.0
117.0
105.0
101.0
127.0
120.0
113.0
110.0
100.0
110.0
114.0
129.0
130.0
122.0
122.0
120.0
111.0
115.0
109.0
112.0
120.0
106.0
92.0
93.0
92.0
88.0
79.0
89.0
83.0
81.0
75.0
80.0
82.0
79.0
102.0
97.0
92.0
95.0
93.0
90.0
87.0
126.0
82.0
77.0
80.0
78.0
77.0
78.0
76.0
76.0
79.0
83.0
85.0
86.0
80.0
73.0
72.0
78.0
76.0
81.0
74.0
73.0
71.0
70.0
76.0
77.0
77.0
71.0
78.0
69.0
75.0
63.0
47.0
48.0
57.0
61.0
78.0
68.0
72.0
75.0
73.0
116.0
79.0
83.0
77.0
86.0
79.0
76.0
81.0
83.0
88.0
88.0
94.0
93.0
106.0
117.0
111.0
106.0
109.0
102.0
112.0
114.0
113.0
113.0
112.0
125.0
124.0
102.0
109.0
120.0
120.0
138.0
141.0
152.0
132.0
109.0
125.0
127.0
146.0
148.0
158.0
160.0
93.0
98.0
106.0
107.0
98.0
95.0
97.0
112.0
112.0
110.0
108.0
105.0
103.0
106.0
104.0
97.0
100.0
106.0
107.0
109.0
111.0
103.0
109.0
107.0
105.0
101.0
96.0
101.0
92.0
99.0
109.0
111.0
105.0
107.0
102.0
106.0
102.0
94.0
102.0
97.0
92.0
90.0
103.0
99.0
109.0
103.0
106.0
104.0
106.0
106.0
105.0
96.0
101.0
96.0
104.0
98.0
108.0
95.0
101.0
100.0
102.0
103.0
100.0
103.0
98.0
100.0
95.0
95.0
94.0
98.0
88.0
86.0
86.0
84.0
86.0
83.0
78.0
76.0
77.0
77.0
77.0
78.0
83.0
80.0
77.0
79.0
80.0
79.0
75.0
79.0
73.0
76.0
81.0
68.0
72.0
68.0
107.0
69.0
68.0
69.0
64.0
74.0
74.0
75.0
71.0
75.0
71.0
68.0
78.0
70.0
74.0
72.0
69.0
67.0
69.0
70.0
71.0
43.0
58.0
46.0
52.0
58.0
56.0
65.0
72.0
73.0
73.0
76.0
68.0
73.0
70.0
71.0
72.0
73.0
55.0
48.0
69.0
73.0
70.0
75.0
73.0
90.0
87.0
116.0
65.0
88.0
73.0
85.0
71.0
71.0
72.0
69.0
74.0
69.0
74.0
65.0
78.0
76.0
78.0
81.0
77.0
85.0
72.0
79.0
82.0
80.0
96.0
80.0
95.0
94.0
93.0
96.0
94.0
102.0
104.0
100.0
96.0
100.0
106.0
123.0
114.0
100.0
137.0
152.0
149.0
138.0
118.0
123.0
110.0
119.0
112.0
117.0
116.0
111.0
108.0
111.0
111.0
123.0
125.0
109.0
115.0
102.0
125.0
121.0
117.0
120.0
115.0
132.0
112.0
121.0
107.0
108.0
131.0
131.0
138.0
123.0
118.0
126.0
125.0
116.0
128.0
120.0
117.0
112.0
124.0
104.0
125.0
121.0
119.0
114.0
115.0
119.0
117.0
127.0
121.0
102.0
113.0
110.0
107.0
112.0
116.0
116.0
118.0
105.0
120.0
111.0
112.0
109.0
109.0
127.0
107.0
128.0
103.0
112.0
107.0
106.0
105.0
116.0
124.0
105.0
110.0
113.0
105.0
114.0
106.0
122.0
109.0
119.0
138.0
143.0
131.0
140.0
126.0
114.0
117.0
122.0
119.0
113.0
122.0
113.0
109.0
124.0
109.0
123.0
124.0
104.0
111.0
131.0
124.0
109.0
114.0
123.0
115.0
112.0
131.0
127.0
114.0
121.0
103.0
127.0
126.0
128.0
110.0
118.0
106.0
117.0
126.0
120.0
114.0
133.0
126.0
133.0
134.0
131.0
122.0
131.0
112.0
116.0
114.0
114.0
119.0
114.0
121.0
106.0
114.0
106.0
115.0
115.0
119.0
106.0
107.0
109.0
118.0
108.0
98.0
116.0
117.0
112.0
117.0
118.0
109.0
106.0
111.0
112.0
115.0
130.0
125.0
126.0
121.0
114.0
106.0
119.0
137.0
125.0
119.0
141.0
130.0
102.0
105.0
127.0
124.0
112.0
113.0
109.0
110.0
108.0
107.0
115.0
107.0
104.0
110.0
111.0
108.0
119.0
107.0
107.0
110.0
110.0
105.0
120.0
119.0
125.0
112.0
102.0
112.0
123.0
110.0
119.0
110.0
106.0
102.0
98.0
96.0
105.0
98.0
103.0
123.0
137.0
127.0
117.0
130.0
132.0
126.0
119.0
125.0
124.0
113.0
110.0
137.0
129.0
120.0
123.0
127.0
112.0
115.0
105.0
108.0
109.0
112.0
111.0
105.0
107.0
108.0
109.0
112.0
107.0
115.0
106.0
110.0
129.0
105.0
107.0
104.0
120.0
115.0
104.0
114.0
104.0
124.0
114.0
112.0
124.0
122.0
120.0
130.0
117.0
106.0
111.0
116.0
122.0
101.0
115.0
113.0
117.0
124.0
108.0
107.0
113.0
124.0
124.0
107.0
108.0
109.0
115.0
109.0
98.0
96.0
95.0
92.0
87.0
88.0
91.0
82.0
138.0
81.0
81.0
78.0
86.0
85.0
86.0
78.0
74.0
79.0
84.0
83.0
76.0
80.0
88.0
85.0
73.0
71.0
66.0
74.0
70.0
84.0
73.0
77.0
72.0
77.0
71.0
71.0
71.0
71.0
75.0
45.0
54.0
51.0
51.0
59.0
119.0
70.0
65.0
60.0
85.0
77.0
76.0
75.0
76.0
72.0
73.0
72.0
70.0
76.0
66.0
65.0
72.0
71.0
73.0
78.0
75.0
67.0
75.0
70.0
73.0
69.0
73.0
70.0
78.0
74.0
75.0
71.0
74.0
71.0
72.0
70.0
67.0
75.0
68.0
71.0
67.0
76.0
65.0
72.0
69.0
69.0
68.0
71.0
69.0
75.0
69.0
63.0
75.0
74.0
77.0
72.0
76.0
75.0
74.0
74.0
71.0
76.0
75.0
80.0
81.0
84.0
93.0
90.0
89.0
94.0
101.0
94.0
100.0
109.0
99.0
99.0
107.0
108.0
122.0
115.0
115.0
120.0
111.0
108.0
123.0
111.0
114.0
116.0
104.0
111.0
113.0
107.0
104.0
107.0
120.0
109.0
105.0
111.0
101.0
105.0
98.0
101.0
100.0
95.0
101.0
114.0
111.0
106.0
102.0
108.0
129.0
118.0
127.0
105.0
116.0
118.0
106.0
95.0
98.0
96.0
91.0
97.0
86.0
84.0
85.0
96.0
83.0
85.0
83.0
89.0
83.0
128.0
87.0
78.0
75.0
72.0
68.0
77.0
78.0
80.0
79.0
80.0
66.0
75.0
69.0
68.0
77.0
76.0
78.0
72.0
77.0
85.0
83.0
83.0
86.0
114.0
78.0
70.0
76.0
70.0
84.0
70.0
73.0
77.0
75.0
77.0
68.0
73.0
62.0
72.0
69.0
66.0
41.0
54.0
52.0
62.0
73.0
76.0
73.0
80.0
68.0
79.0
75.0
81.0
79.0
81.0
82.0
81.0
89.0
92.0
97.0
99.0
106.0
115.0
133.0
133.0
140.0
121.0
108.0
98.0
95.0
99.0
109.0
105.0
110.0
110.0
106.0
107.0
115.0
109.0
106.0
109.0
120.0
120.0
112.0
114.0
120.0
116.0
107.0
108.0
110.0
121.0
128.0
123.0
121.0
114.0
117.0
117.0
112.0
106.0
108.0
117.0
118.0
100.0
117.0
110.0
110.0
120.0
123.0
118.0
124.0
112.0
108.0
119.0
126.0
120.0
124.0
104.0
101.0
112.0
128.0
114.0
109.0
120.0
118.0
111.0
113.0
115.0
108.0
115.0
117.0
111.0
123.0
120.0
102.0
108.0
103.0
96.0
92.0
82.0
81.0
89.0
80.0
85.0
86.0
84.0
86.0
94.0
81.0
91.0
70.0
82.0
77.0
78.0
81.0
88.0
76.0
77.0
72.0
82.0
76.0
75.0
83.0
80.0
112.0
78.0
63.0
67.0
71.0
64.0
62.0
71.0
68.0
70.0
48.0
58.0
53.0
57.0
61.0
52.0
65.0
67.0
72.0
67.0
72.0
68.0
73.0
69.0
75.0
67.0
76.0
68.0
67.0
73.0
63.0
64.0
69.0
68.0
68.0
78.0
70.0
70.0
68.0
83.0
89.0
83.0
77.0
89.0
82.0
75.0
73.0
106.0
72.0
69.0
74.0
65.0
77.0
69.0
80.0
78.0
66.0
68.0
73.0
70.0
77.0
65.0
70.0
77.0
68.0
71.0
67.0
69.0
72.0
75.0
67.0
68.0
75.0
71.0
68.0
67.0
69.0
64.0
75.0
63.0
64.0
65.0
72.0
71.0
68.0
68.0
69.0
69.0
78.0
66.0
70.0
62.0
70.0
64.0
71.0
69.0
88.0
90.0
72.0
91.0
70.0
73.0
76.0
77.0
74.0
67.0
75.0
69.0
72.0
66.0
76.0
73.0
72.0
74.0
71.0
73.0
71.0
75.0
75.0
72.0
73.0
79.0
80.0
62.0
113.0
59.0
54.0
180.0
104.0
51.0
105.0
110.0
112.0
2806.0
127.0
131.0
119.0
113.0
116.0
108.0
108.0
98.0
95.0
104.0
106.0
101.0
108.0
102.0
99.0
109.0
104.0
122.0
111.0
103.0
102.0
104.0
98.0
98.0
95.0
106.0
104.0
111.0
101.0
102.0
99.0
113.0
113.0
104.0
99.0
81.0
78.0
82.0
83.0
88.0
89.0
91.0
80.0
86.0
86.0
85.0
92.0
87.0
90.0
89.0
92.0
91.0
86.0
94.0
95.0
89.0
98.0
94.0
94.0
98.0
94.0
97.0
96.0
96.0
96.0
103.0
110.0
96.0
106.0
93.0
100.0
101.0
103.0
96.0
93.0
98.0
96.0
93.0
103.0
97.0
93.0
92.0
94.0
97.0
95.0
84.0
83.0
81.0
80.0
75.0
80.0
78.0
73.0
72.0
70.0
74.0
69.0
110.0
68.0
66.0
70.0
70.0
70.0
68.0
75.0
64.0
67.0
64.0
67.0
64.0
68.0
63.0
67.0
63.0
50.0
61.0
55.0
48.0
88.0
61.0
59.0
74.0
82.0
66.0
69.0
67.0
73.0
58.0
77.0
74.0
77.0
73.0
76.0
69.0
77.0
66.0
75.0
60.0
70.0
68.0
74.0
66.0
79.0
71.0
66.0
72.0
66.0
81.0
61.0
73.0
59.0
70.0
65.0
77.0
65.0
75.0
66.0
78.0
65.0
69.0
64.0
77.0
65.0
70.0
64.0
70.0
64.0
72.0
65.0
73.0
66.0
72.0
73.0
64.0
61.0
61.0
69.0
74.0
74.0
76.0
67.0
68.0
74.0
65.0
77.0
46.0
63.0
48.0
62.0
69.0
96.0
112.0
52.0
167.0
104.0
108.0
62.0
498.0
121.0
125.0
107.0
115.0
73.0
146.0
73.0
67.0
68.0
57.0
62.0
158.0
141.0
140.0
57.0
131.0
131.0
137.0
135.0
144.0
137.0
133.0
148.0
57.0
53.0
154.0
60.0
135.0
148.0
139.0
135.0
152.0
58.0
146.0
59.0
142.0
120.0
112.0
123.0
109.0
122.0
60.0
120.0
867.0
132.0
131.0
137.0
122.0
98.0
95.0
95.0
91.0
94.0
96.0
92.0
98.0
99.0
95.0
97.0
92.0
89.0
91.0
95.0
96.0
92.0
91.0
97.0
100.0
103.0
97.0
96.0
100.0
99.0
132.0
101.0
100.0
99.0
102.0
103.0
101.0
105.0
99.0
96.0
95.0
106.0
103.0
100.0
98.0
99.0
100.0
96.0
104.0
102.0
102.0
102.0
100.0
99.0
99.0
101.0
96.0
98.0
99.0
101.0
97.0
93.0
102.0
98.0
98.0
92.0
94.0
97.0
110.0
104.0
99.0
100.0
97.0
95.0
91.0
94.0
89.0
85.0
91.0
85.0
86.0
120.0
75.0
73.0
72.0
77.0
77.0
68.0
65.0
75.0
70.0
86.0
