0,-1,-1,1,1,0,-2,-1,-1,0.831055,-0.163574,0.428223,-81.625,-12.9375,-24.875,0.168202,-1.39382,-0.453382
0,-2,0,-4,-4,0,-3,-1,-2,0.831055,-0.163574,0.428223,-81.625,-12.9375,-24.875,0.168202,-1.39382,-0.453382
1,-2,0,-2,-1,-3,0,-2,-2,0.831055,-0.163574,0.428223,-81.625,-12.9375,-24.875,0.168202,-1.39382,-0.453382
1,-1,-3,-2,-1,-2,0,-1,1,0.831055,-0.163574,0.428223,-81.625,-12.9375,-24.875,0.168202,-1.39382,-0.453382
1,0,2,0,-1,0,-1,-2,-2,0.831055,-0.163574,0.428223,-81.625,-12.9375,-24.875,0.168202,-1.39382,-0.453382
1,-3,-2,2,2,0,1,-2,-2,0.831055,-0.163574,0.428223,-81.625,-12.9375,-24.875,0.168202,-1.39382,-0.453382
4,0,-2,1,-3,0,-1,-1,0,0.831055,-0.163574,0.428223,-81.625,-12.9375,-24.875,0.168202,-1.39382,-0.453382
4,-2,-2,-6,-5,-1,-1,-1,-2,0.831055,-0.163574,0.428223,-81.625,-12.9375,-24.875,0.168202,-1.39382,-0.453382
13,-2,-1,-1,1,-1,-1,-1,-2,0.852539,-0.156738,0.430176,-76.125,-19.875,-26.125,0.167319,-1.39341,-0.480461
13,0,-3,-4,-6,-1,-1,0,-1,0.852539,-0.156738,0.430176,-76.125,-19.875,-26.125,0.167319,-1.39341,-0.480461
21,0,0,3,0,-1,0,0,-2,0.852539,-0.156738,0.430176,-76.125,-19.875,-26.125,0.167319,-1.39341,-0.480461
21,-1,-1,2,1,-1,1,-1,-4,0.852539,-0.156738,0.430176,-76.125,-19.875,-26.125,0.167319,-1.39341,-0.480461
28,-2,-1,-3,-4,-2,0,-2,0,0.864746,-0.143066,0.424805,-67.9375,-24.375,-26.125,0.172573,-1.39443,-0.510932
28,0,0,3,5,-2,-1,-1,-1,0.864746,-0.143066,0.424805,-67.9375,-24.375,-26.125,0.172573,-1.39443,-0.510932
41,-2,-1,-9,-4,-2,-2,1,-2,0.864746,-0.143066,0.424805,-67.9375,-24.375,-26.125,0.172573,-1.39443,-0.510932
41,1,2,1,-1,-2,-1,-1,-2,0.864746,-0.143066,0.424805,-67.9375,-24.375,-26.125,0.172573,-1.39443,-0.510932
53,-2,-1,-2,3,0,-2,0,-1,0.879883,-0.125,0.407715,-58.25,-27.0625,-25.625,0.184495,-1.39675,-0.544465
53,-1,-2,0,-2,0,-2,0,1,0.879883,-0.125,0.407715,-58.25,-27.0625,-25.625,0.184495,-1.39675,-0.544465
64,0,-3,-3,-2,-2,0,-2,1,0.879883,-0.125,0.407715,-58.25,-27.0625,-25.625,0.184495,-1.39675,-0.544465
64,-1,4,0,-2,0,0,-1,0,0.879883,-0.125,0.407715,-58.25,-27.0625,-25.625,0.184495,-1.39675,-0.544465
75,0,0,1,0,-2,-1,0,-1,0.933105,-0.0864258,0.365723,-49.625,-26.6875,-26,0.206219,-1.39988,-0.584811
75,0,-1,-2,-1,-3,-3,-1,-2,0.933105,-0.0864258,0.365723,-49.625,-26.6875,-26,0.206219,-1.39988,-0.584811
95,-1,-2,0,-1,0,-1,-2,-3,0.933105,-0.0864258,0.365723,-49.625,-26.6875,-26,0.206219,-1.39988,-0.584811
95,0,-2,-3,0,-3,-2,-2,-2,0.933105,-0.0864258,0.365723,-49.625,-26.6875,-26,0.206219,-1.39988,-0.584811
128,0,3,-1,-2,-1,0,-1,-1,0.972656,0,0.290527,-44.125,-19.125,-19.25,0.253416,-1.40447,-0.665204
128,-1,0,1,-2,-4,-1,-1,1,0.972656,0,0.290527,-44.125,-19.125,-19.25,0.253416,-1.40447,-0.665204
128,-1,-1,-1,-1,-1,-1,-1,-2,0.972656,0,0.290527,-44.125,-19.125,-19.25,0.253416,-1.40447,-0.665204
128,0,-1,-1,-3,-1,0,-1,0,0.972656,0,0.290527,-44.125,-19.125,-19.25,0.253416,-1.40447,-0.665204
132,-2,-1,-1,0,0,-1,-1,-1,0.972656,0,0.290527,-44.125,-19.125,-19.25,0.253416,-1.40447,-0.665204
132,1,-2,-1,-1,-1,-2,-1,-2,0.972656,0,0.290527,-44.125,-19.125,-19.25,0.253416,-1.40447,-0.665204
135,1,-1,1,-1,-2,-2,-2,-2,0.974609,0.0117188,0.266113,-43,-13.875,-13.5625,0.264462,-1.40512,-0.691599
135,-1,-2,3,0,2,-1,0,-2,0.974609,0.0117188,0.266113,-43,-13.875,-13.5625,0.264462,-1.40512,-0.691599
139,-2,1,-3,-1,-2,0,-2,-1,0.974609,0.0117188,0.266113,-43,-13.875,-13.5625,0.264462,-1.40512,-0.691599
139,-1,0,-1,-4,0,-1,1,-1,0.974609,0.0117188,0.266113,-43,-13.875,-13.5625,0.264462,-1.40512,-0.691599
148,-2,0,-1,-2,1,1,-1,-2,0.976074,0.0161133,0.248535,-40.125,-7.9375,-7.9375,0.26377,-1.40511,-0.705355
148,0,0,0,1,-1,0,-2,-1,0.976074,0.0161133,0.248535,-40.125,-7.9375,-7.9375,0.26377,-1.40511,-0.705355
154,2,0,2,-1,0,-3,1,1,0.976074,0.0161133,0.248535,-40.125,-7.9375,-7.9375,0.26377,-1.40511,-0.705355
154,-2,-4,-2,1,-1,0,-2,1,0.976074,0.0161133,0.248535,-40.125,-7.9375,-7.9375,0.26377,-1.40511,-0.705355
170,-1,-2,-2,-2,0,-1,2,-2,0.967773,0.0078125,0.234375,-34.3125,-1.9375,-3.4375,0.252013,-1.40408,-0.705869
170,-2,-1,-2,-1,-3,-1,-2,-1,0.967773,0.0078125,0.234375,-34.3125,-1.9375,-3.4375,0.252013,-1.40408,-0.705869
176,-1,-1,3,0,-3,0,-1,-2,0.967773,0.0078125,0.234375,-34.3125,-1.9375,-3.4375,0.252013,-1.40408,-0.705869
176,1,-3,-5,-3,-1,0,0,-1,0.967773,0.0078125,0.234375,-34.3125,-1.9375,-3.4375,0.252013,-1.40408,-0.705869
199,-1,18,0,-2,0,-2,-2,-1,0.954102,-0.00390625,0.221191,-26.625,3,1,0.231315,-1.40159,-0.694371
199,-1,3,-2,-3,-2,0,0,-1,0.954102,-0.00390625,0.221191,-26.625,3,1,0.231315,-1.40159,-0.694371
200,-3,-10,-3,-1,0,-2,-1,-1,0.954102,-0.00390625,0.221191,-26.625,3,1,0.231315,-1.40159,-0.694371
200,0,4,2,1,-1,-1,-2,-2,0.954102,-0.00390625,0.221191,-26.625,3,1,0.231315,-1.40159,-0.694371
214,-1,-7,-3,-1,-1,0,0,0,0.976562,-0.00341797,0.195801,-20.25,8.1875,4.8125,0.204296,-1.39879,-0.674323
214,0,0,-3,0,-1,0,-1,0,0.976562,-0.00341797,0.195801,-20.25,8.1875,4.8125,0.204296,-1.39879,-0.674323
221,-2,1,-1,0,-3,-1,-3,-1,0.976562,-0.00341797,0.195801,-20.25,8.1875,4.8125,0.204296,-1.39879,-0.674323
221,-1,-9,0,0,0,-2,-1,-2,0.976562,-0.00341797,0.195801,-20.25,8.1875,4.8125,0.204296,-1.39879,-0.674323
239,1,-3,0,0,-1,-1,-3,-1,1.00488,0.0234375,0.169434,-20.75,14.6875,8.25,0.174861,-1.3945,-0.651852
239,0,0,0,-1,-1,-1,0,0,1.00488,0.0234375,0.169434,-20.75,14.6875,8.25,0.174861,-1.3945,-0.651852
239,0,-5,-3,0,1,-1,0,-1,1.00488,0.0234375,0.169434,-20.75,14.6875,8.25,0.174861,-1.3945,-0.651852
239,-1,1,3,0,-1,-1,-1,-1,1.00488,0.0234375,0.169434,-20.75,14.6875,8.25,0.174861,-1.3945,-0.651852
259,1,-1,-1,1,-2,-2,-1,0,1.04346,0.0229492,0.162598,-27.3125,20.9375,11.25,0.137705,-1.38853,-0.623724
259,-2,-5,-2,0,0,-1,0,0,1.04346,0.0229492,0.162598,-27.3125,20.9375,11.25,0.137705,-1.38853,-0.623724
260,-1,1,-3,-3,0,-1,-2,-1,1.04346,0.0229492,0.162598,-27.3125,20.9375,11.25,0.137705,-1.38853,-0.623724
260,-2,2,0,-1,-1,-1,0,-2,1.04346,0.0229492,0.162598,-27.3125,20.9375,11.25,0.137705,-1.38853,-0.623724
273,0,-3,0,-1,-2,-1,-1,-1,1.06787,0.0180664,0.143555,-39.0625,26.0625,12.375,0.0961246,-1.38154,-0.595346
273,-1,-4,0,-2,-1,-2,-2,-2,1.06787,0.0180664,0.143555,-39.0625,26.0625,12.375,0.0961246,-1.38154,-0.595346
281,0,19,1,2,-3,-1,-2,-1,1.06787,0.0180664,0.143555,-39.0625,26.0625,12.375,0.0961246,-1.38154,-0.595346
281,-1,1,-2,-1,0,-2,0,0,1.06787,0.0180664,0.143555,-39.0625,26.0625,12.375,0.0961246,-1.38154,-0.595346
297,-1,-6,-3,0,-2,-1,0,-1,1.03662,0.000976562,0.170898,-49.25,29.375,13.0625,0.0510012,-1.37253,-0.566806
297,-2,-3,-4,-2,-1,-1,-1,-1,1.03662,0.000976562,0.170898,-49.25,29.375,13.0625,0.0510012,-1.37253,-0.566806
298,0,-2,-1,-2,-2,0,0,-1,1.03662,0.000976562,0.170898,-49.25,29.375,13.0625,0.0510012,-1.37253,-0.566806
298,-2,-3,-1,-3,-1,0,-1,-1,1.03662,0.000976562,0.170898,-49.25,29.375,13.0625,0.0510012,-1.37253,-0.566806
319,-1,0,-1,-1,-2,-1,-2,-1,0.980957,-0.059082,0.209961,-52.3125,29.1875,13.3125,0.00157514,-1.36239,-0.535261
319,-1,-2,-1,-1,1,-1,-1,-1,0.980957,-0.059082,0.209961,-52.3125,29.1875,13.3125,0.00157514,-1.36239,-0.535261
320,-1,-4,-2,-1,-2,-1,-1,1,0.980957,-0.059082,0.209961,-52.3125,29.1875,13.3125,0.00157514,-1.36239,-0.535261
320,1,1,-1,0,0,-1,-1,0,0.980957,-0.059082,0.209961,-52.3125,29.1875,13.3125,0.00157514,-1.36239,-0.535261
334,0,-4,-1,-1,-2,-1,0,-2,0.945312,-0.111816,0.229492,-48.3125,27.25,12.3125,-0.0456804,-1.35203,-0.504654
334,0,3,-1,-1,-1,0,0,-2,0.945312,-0.111816,0.229492,-48.3125,27.25,12.3125,-0.0456804,-1.35203,-0.504654
341,0,-5,-1,-1,1,-2,-1,0,0.945312,-0.111816,0.229492,-48.3125,27.25,12.3125,-0.0456804,-1.35203,-0.504654
341,-1,3,-1,0,0,0,-1,-1,0.945312,-0.111816,0.229492,-48.3125,27.25,12.3125,-0.0456804,-1.35203,-0.504654
357,-4,-5,-1,1,1,-1,-1,-1,0.946777,-0.121094,0.245605,-41,26.4375,11.25,-0.0856687,-1.34171,-0.478905
357,-1,3,1,-1,-1,-2,-2,0,0.946777,-0.121094,0.245605,-41,26.4375,11.25,-0.0856687,-1.34171,-0.478905
357,-1,-2,0,-3,0,-1,1,-2,0.946777,-0.121094,0.245605,-41,26.4375,11.25,-0.0856687,-1.34171,-0.478905
357,1,0,-1,-3,-2,1,0,-2,0.946777,-0.121094,0.245605,-41,26.4375,11.25,-0.0856687,-1.34171,-0.478905
380,1,2,-2,0,-1,-3,-2,0,0.940918,-0.112793,0.255859,-36.25,25.5,9.1875,-0.116843,-1.33159,-0.46027
380,-1,-3,3,2,-1,-2,-1,0,0.940918,-0.112793,0.255859,-36.25,25.5,9.1875,-0.116843,-1.33159,-0.46027
380,-1,-4,-1,0,-1,0,-2,-1,0.940918,-0.112793,0.255859,-36.25,25.5,9.1875,-0.116843,-1.33159,-0.46027
380,-2,0,-3,-1,-2,-1,-1,0,0.940918,-0.112793,0.255859,-36.25,25.5,9.1875,-0.116843,-1.33159,-0.46027
393,-2,-2,0,1,-1,0,-1,-1,0.885254,-0.132812,0.283691,-33.25,22.5625,9.8125,-0.147237,-1.32189,-0.441671
393,0,-1,-1,1,-1,-1,-1,-1,0.885254,-0.132812,0.283691,-33.25,22.5625,9.8125,-0.147237,-1.32189,-0.441671
401,1,2,1,-1,0,-1,1,-2,0.885254,-0.132812,0.283691,-33.25,22.5625,9.8125,-0.147237,-1.32189,-0.441671
401,0,-2,-1,-3,-2,0,1,-1,0.885254,-0.132812,0.283691,-33.25,22.5625,9.8125,-0.147237,-1.32189,-0.441671
416,-1,1,-1,-2,0,0,1,-1,0.830566,-0.168945,0.313477,-24,16.3125,10.75,-0.177543,-1.31277,-0.419674
416,-2,-3,-2,-3,-1,-1,0,-2,0.830566,-0.168945,0.313477,-24,16.3125,10.75,-0.177543,-1.31277,-0.419674
417,0,0,-2,-4,-4,-1,-1,-1,0.830566,-0.168945,0.313477,-24,16.3125,10.75,-0.177543,-1.31277,-0.419674
417,-1,-2,-1,1,-1,-1,-2,-1,0.830566,-0.168945,0.313477,-24,16.3125,10.75,-0.177543,-1.31277,-0.419674
439,-1,-2,-2,-5,-2,-1,-3,-1,0.851074,-0.205566,0.307617,-11.5,10.25,9.4375,-0.204397,-1.30587,-0.396886
439,0,1,-3,-1,0,-1,-1,-1,0.851074,-0.205566,0.307617,-11.5,10.25,9.4375,-0.204397,-1.30587,-0.396886
440,0,-2,0,-1,1,-2,0,0,0.851074,-0.205566,0.307617,-11.5,10.25,9.4375,-0.204397,-1.30587,-0.396886
440,-3,-2,0,1,-1,-1,0,-2,0.851074,-0.205566,0.307617,-11.5,10.25,9.4375,-0.204397,-1.30587,-0.396886
453,-1,1,-4,-4,-2,1,0,-1,0.910645,-0.180176,0.274414,-4.8125,8.375,5.625,-0.22153,-1.30138,-0.38173
453,-1,2,0,2,0,-1,-1,-1,0.910645,-0.180176,0.274414,-4.8125,8.375,5.625,-0.22153,-1.30138,-0.38173
461,-1,-1,-1,-1,-1,-2,1,-2,0.910645,-0.180176,0.274414,-4.8125,8.375,5.625,-0.22153,-1.30138,-0.38173
461,0,-1,-1,-1,-1,0,-2,1,0.910645,-0.180176,0.274414,-4.8125,8.375,5.625,-0.22153,-1.30138,-0.38173
477,0,-3,1,2,1,-1,1,-2,0.901367,-0.15918,0.269043,-5.3125,8.0625,3.875,-0.234242,-1.29739,-0.371135
477,-2,-1,-1,-2,-2,0,-2,-1,0.901367,-0.15918,0.269043,-5.3125,8.0625,3.875,-0.234242,-1.29739,-0.371135
478,-1,-2,-1,-2,-1,-1,-1,-3,0.901367,-0.15918,0.269043,-5.3125,8.0625,3.875,-0.234242,-1.29739,-0.371135
478,-1,2,-2,2,-1,0,0,-2,0.901367,-0.15918,0.269043,-5.3125,8.0625,3.875,-0.234242,-1.29739,-0.371135
500,-2,-2,-1,0,1,-1,1,-1,0.848145,-0.160156,0.287109,-8.125,5.0625,4.75,-0.248803,-1.29333,-0.359346
500,-1,-1,-1,-1,-3,-1,0,0,0.848145,-0.160156,0.287109,-8.125,5.0625,4.75,-0.248803,-1.29333,-0.359346
500,0,0,-2,-2,-3,0,-2,1,0.848145,-0.160156,0.287109,-8.125,5.0625,4.75,-0.248803,-1.29333,-0.359346
500,0,-3,-1,-2,-1,-1,0,0,0.848145,-0.160156,0.287109,-8.125,5.0625,4.75,-0.248803,-1.29333,-0.359346
515,-1,-1,-1,-2,0,0,-3,-2,0.856445,-0.19043,0.282715,-7.25,0.25,4.5625,-0.26644,-1.29102,-0.344465
515,-1,-1,-2,-1,0,-2,0,-2,0.856445,-0.19043,0.282715,-7.25,0.25,4.5625,-0.26644,-1.29102,-0.344465
522,-3,-3,-1,-1,1,-1,-3,0,0.856445,-0.19043,0.282715,-7.25,0.25,4.5625,-0.26644,-1.29102,-0.344465
522,0,-1,-1,-2,0,-1,0,-1,0.856445,-0.19043,0.282715,-7.25,0.25,4.5625,-0.26644,-1.29102,-0.344465
537,-2,-1,0,1,-2,0,-2,1,0.901855,-0.194824,0.258789,-6.125,-2.0625,1.8125,-0.28193,-1.29055,-0.331378
537,-1,-1,2,0,-3,-2,-1,-3,0.901855,-0.194824,0.258789,-6.125,-2.0625,1.8125,-0.28193,-1.29055,-0.331378
538,-2,-1,-5,-4,-3,0,0,-3,0.901855,-0.194824,0.258789,-6.125,-2.0625,1.8125,-0.28193,-1.29055,-0.331378
538,0,-1,-1,0,-2,1,-2,-1,0.901855,-0.194824,0.258789,-6.125,-2.0625,1.8125,-0.28193,-1.29055,-0.331378
559,1,1,-1,-1,-1,0,0,-1,0.893066,-0.20752,0.273438,-4,-3.3125,-0.25,-0.294476,-1.28998,-0.320395
559,-2,-1,-2,0,1,0,-3,-1,0.893066,-0.20752,0.273438,-4,-3.3125,-0.25,-0.294476,-1.28998,-0.320395
560,-1,-2,0,2,-1,-1,0,-2,0.893066,-0.20752,0.273438,-4,-3.3125,-0.25,-0.294476,-1.28998,-0.320395
560,-3,-2,2,0,0,-2,-1,-1,0.893066,-0.20752,0.273438,-4,-3.3125,-0.25,-0.294476,-1.28998,-0.320395
574,-1,-2,1,-1,0,-2,-1,-1,0.882324,-0.227051,0.296387,0.625,-7.625,-0.0625,-0.308163,-1.29027,-0.306928
574,0,-3,-2,-4,-3,-2,-3,-1,0.882324,-0.227051,0.296387,0.625,-7.625,-0.0625,-0.308163,-1.29027,-0.306928
581,-2,-1,0,0,-1,-1,-3,1,0.882324,-0.227051,0.296387,0.625,-7.625,-0.0625,-0.308163,-1.29027,-0.306928
581,0,-2,-3,0,-2,-1,0,-1,0.882324,-0.227051,0.296387,0.625,-7.625,-0.0625,-0.308163,-1.29027,-0.306928
597,-1,-1,-1,1,-1,-2,-2,0,0.924316,-0.247559,0.29834,5.3125,-13,-0.6875,-0.322971,-1.2925,-0.290606
597,0,-1,-3,-1,-1,-2,-1,0,0.924316,-0.247559,0.29834,5.3125,-13,-0.6875,-0.322971,-1.2925,-0.290606
598,-1,-1,0,0,-1,-2,1,-2,0.924316,-0.247559,0.29834,5.3125,-13,-0.6875,-0.322971,-1.2925,-0.290606
598,-1,-1,0,-1,0,-1,-1,-1,0.924316,-0.247559,0.29834,5.3125,-13,-0.6875,-0.322971,-1.2925,-0.290606
620,-1,-1,-1,-3,-1,-1,1,-1,0.975098,-0.258789,0.283203,6.4375,-16.6875,-3.5,-0.336874,-1.29668,-0.274977
620,-1,0,-1,-1,-1,0,0,-1,0.975098,-0.258789,0.283203,6.4375,-16.6875,-3.5,-0.336874,-1.29668,-0.274977
620,0,1,-1,-1,-2,1,-2,1,0.975098,-0.258789,0.283203,6.4375,-16.6875,-3.5,-0.336874,-1.29668,-0.274977
620,-1,1,-1,-1,0,0,-1,-1,0.975098,-0.258789,0.283203,6.4375,-16.6875,-3.5,-0.336874,-1.29668,-0.274977
642,-1,0,1,0,-2,-1,-3,-2,1.00293,-0.260742,0.273926,6,-19,-6.625,-0.349205,-1.30188,-0.260961
642,-1,-2,-2,0,-1,-1,-1,0,1.00293,-0.260742,0.273926,6,-19,-6.625,-0.349205,-1.30188,-0.260961
643,1,-2,1,3,0,1,-1,0,1.00293,-0.260742,0.273926,6,-19,-6.625,-0.349205,-1.30188,-0.260961
643,-1,-1,-6,-3,-2,0,-1,0,1.00293,-0.260742,0.273926,6,-19,-6.625,-0.349205,-1.30188,-0.260961
657,-2,-2,-1,0,-1,-1,0,0,0.983398,-0.255859,0.270508,6.9375,-21.625,-7.8125,-0.360539,-1.30815,-0.247808
657,0,0,-2,-2,0,1,-1,0,0.983398,-0.255859,0.270508,6.9375,-21.625,-7.8125,-0.360539,-1.30815,-0.247808
658,-1,-1,2,0,-2,-2,-1,0,0.983398,-0.255859,0.270508,6.9375,-21.625,-7.8125,-0.360539,-1.30815,-0.247808
658,-1,-2,0,0,-1,0,-2,0,0.983398,-0.255859,0.270508,6.9375,-21.625,-7.8125,-0.360539,-1.30815,-0.247808
679,0,0,0,1,-2,-2,0,-2,0.971191,-0.253906,0.252441,9.25,-23.75,-8.625,-0.371804,-1.31519,-0.233569
679,0,1,-3,-1,-2,-1,-2,0,0.971191,-0.253906,0.252441,9.25,-23.75,-8.625,-0.371804,-1.31519,-0.233569
680,-1,-1,0,-2,-1,-1,-1,-1,0.971191,-0.253906,0.252441,9.25,-23.75,-8.625,-0.371804,-1.31519,-0.233569
680,-1,-2,0,1,0,-2,0,-2,0.971191,-0.253906,0.252441,9.25,-23.75,-8.625,-0.371804,-1.31519,-0.233569
702,-2,-1,-1,-1,0,-1,0,-2,0.960449,-0.23584,0.224121,11.0625,-23.125,-9.375,-0.381274,-1.32267,-0.220712
702,-1,-2,1,1,-2,-1,1,-1,0.960449,-0.23584,0.224121,11.0625,-23.125,-9.375,-0.381274,-1.32267,-0.220712
702,-2,-1,-2,-1,1,0,1,-1,0.960449,-0.23584,0.224121,11.0625,-23.125,-9.375,-0.381274,-1.32267,-0.220712
702,1,-3,-3,-2,-1,-1,-2,-1,0.960449,-0.23584,0.224121,11.0625,-23.125,-9.375,-0.381274,-1.32267,-0.220712
716,-2,-2,-2,-2,-1,-2,-2,1,0.936035,-0.219238,0.200684,12.4375,-21.0625,-9.375,-0.388344,-1.32938,-0.209421
716,-1,-1,-1,1,-1,-1,-1,-1,0.936035,-0.219238,0.200684,12.4375,-21.0625,-9.375,-0.388344,-1.32938,-0.209421
717,0,1,-2,1,0,-1,-1,0,0.936035,-0.219238,0.200684,12.4375,-21.0625,-9.375,-0.388344,-1.32938,-0.209421
717,-1,-1,-1,-2,-1,-1,-2,-1,0.936035,-0.219238,0.200684,12.4375,-21.0625,-9.375,-0.388344,-1.32938,-0.209421
740,0,-3,0,-2,0,1,-2,-1,0.924805,-0.204102,0.188965,13.4375,-18.75,-7.5625,-0.396184,-1.33615,-0.197618
740,-1,-1,0,-1,-1,-1,-1,0,0.924805,-0.204102,0.188965,13.4375,-18.75,-7.5625,-0.396184,-1.33615,-0.197618
741,-3,-2,-3,-4,-3,0,0,-1,0.924805,-0.204102,0.188965,13.4375,-18.75,-7.5625,-0.396184,-1.33615,-0.197618
741,0,1,-1,0,0,0,0,-1,0.924805,-0.204102,0.188965,13.4375,-18.75,-7.5625,-0.396184,-1.33615,-0.197618
762,0,-1,-1,-2,-2,1,0,0,0.920898,-0.187012,0.167969,11.8125,-15,-5.4375,-0.404346,-1.34109,-0.185388
762,-1,-1,2,-1,-1,0,0,-1,0.920898,-0.187012,0.167969,11.8125,-15,-5.4375,-0.404346,-1.34109,-0.185388
763,1,-2,-2,-1,-1,-1,0,0,0.920898,-0.187012,0.167969,11.8125,-15,-5.4375,-0.404346,-1.34109,-0.185388
763,-1,-1,0,-2,0,-2,-2,0,0.920898,-0.187012,0.167969,11.8125,-15,-5.4375,-0.404346,-1.34109,-0.185388
777,1,0,0,-1,-1,-3,-2,0,0.913574,-0.182129,0.157715,7.6875,-10.375,-3.5,-0.414131,-1.34478,-0.173134
777,0,2,-2,-2,-1,-1,-2,-2,0.913574,-0.182129,0.157715,7.6875,-10.375,-3.5,-0.414131,-1.34478,-0.173134
778,0,-1,1,0,-2,-2,-1,-1,0.913574,-0.182129,0.157715,7.6875,-10.375,-3.5,-0.414131,-1.34478,-0.173134
778,-1,1,1,0,0,-1,-1,-1,0.913574,-0.182129,0.157715,7.6875,-10.375,-3.5,-0.414131,-1.34478,-0.173134
799,-1,-2,-1,1,-3,0,1,-2,0.919922,-0.1875,0.163086,3.8125,-6.1875,-1.375,-0.426162,-1.34652,-0.159958
799,0,-2,-1,-3,0,-1,-2,0,0.919922,-0.1875,0.163086,3.8125,-6.1875,-1.375,-0.426162,-1.34652,-0.159958
800,0,-3,-1,-3,0,-1,-2,-1,0.919922,-0.1875,0.163086,3.8125,-6.1875,-1.375,-0.426162,-1.34652,-0.159958
800,0,-1,-1,0,-2,-2,-2,0,0.919922,-0.1875,0.163086,3.8125,-6.1875,-1.375,-0.426162,-1.34652,-0.159958
822,1,1,-1,-1,-1,-2,0,0,0.944336,-0.217285,0.185059,2.0625,-2.75,0.4375,-0.44096,-1.34622,-0.144674
822,0,-2,-2,-1,0,-1,0,-2,0.944336,-0.217285,0.185059,2.0625,-2.75,0.4375,-0.44096,-1.34622,-0.144674
823,-1,1,-1,-2,-1,-1,-1,-1,0.944336,-0.217285,0.185059,2.0625,-2.75,0.4375,-0.44096,-1.34622,-0.144674
823,-1,0,1,1,0,0,-1,0,0.944336,-0.217285,0.185059,2.0625,-2.75,0.4375,-0.44096,-1.34622,-0.144674
837,-1,-1,-2,-2,-2,-1,-3,-2,0.971191,-0.244141,0.189453,2.25,0.4375,0.9375,-0.456459,-1.34486,-0.128902
837,0,-1,-2,-1,-2,-2,-1,-2,0.971191,-0.244141,0.189453,2.25,0.4375,0.9375,-0.456459,-1.34486,-0.128902
838,-1,0,0,-1,-1,-1,0,-2,0.971191,-0.244141,0.189453,2.25,0.4375,0.9375,-0.456459,-1.34486,-0.128902
838,-2,1,-1,-2,-1,-2,0,-1,0.971191,-0.244141,0.189453,2.25,0.4375,0.9375,-0.456459,-1.34486,-0.128902
860,0,-1,-1,-1,1,-1,0,-1,0.99707,-0.254395,0.19043,1.875,3.5,0.625,-0.46918,-1.34247,-0.115928
860,-2,-3,0,0,-1,0,-1,1,0.99707,-0.254395,0.19043,1.875,3.5,0.625,-0.46918,-1.34247,-0.115928
861,0,1,1,0,-2,-1,0,0,0.99707,-0.254395,0.19043,1.875,3.5,0.625,-0.46918,-1.34247,-0.115928
861,0,-2,-5,-2,-1,-2,0,-1,0.99707,-0.254395,0.19043,1.875,3.5,0.625,-0.46918,-1.34247,-0.115928
882,0,-1,0,1,-2,1,-1,-1,1.02197,-0.259277,0.206055,-0.25,5.6875,0.125,-0.480238,-1.33921,-0.105448
882,-1,-1,1,-3,-1,-1,1,-1,1.02197,-0.259277,0.206055,-0.25,5.6875,0.125,-0.480238,-1.33921,-0.105448
882,-1,-2,-1,-1,1,-2,-1,-1,1.02197,-0.259277,0.206055,-0.25,5.6875,0.125,-0.480238,-1.33921,-0.105448
882,0,-2,0,1,-2,-1,-1,-1,1.02197,-0.259277,0.206055,-0.25,5.6875,0.125,-0.480238,-1.33921,-0.105448
897,-1,0,-2,-1,-1,-1,-2,0,1.0332,-0.255371,0.200684,-4.25,7,-0.625,-0.490102,-1.33558,-0.0974149
897,-1,0,1,0,-1,0,-2,0,1.0332,-0.255371,0.200684,-4.25,7,-0.625,-0.490102,-1.33558,-0.0974149
897,-1,-2,-1,0,-1,-1,0,-2,1.0332,-0.255371,0.200684,-4.25,7,-0.625,-0.490102,-1.33558,-0.0974149
897,0,0,-1,0,-1,-2,-1,0,1.0332,-0.255371,0.200684,-4.25,7,-0.625,-0.490102,-1.33558,-0.0974149
920,0,-1,-1,-1,1,-1,-1,0,1.04053,-0.237793,0.199219,-7.375,8.3125,-0.1875,-0.498539,-1.33241,-0.0920909
920,0,1,-1,1,-2,-2,0,-2,1.04053,-0.237793,0.199219,-7.375,8.3125,-0.1875,-0.498539,-1.33241,-0.0920909
921,0,-1,-3,0,0,-1,-3,0,1.04053,-0.237793,0.199219,-7.375,8.3125,-0.1875,-0.498539,-1.33241,-0.0920909
921,0,-3,-1,-1,-1,-2,-2,-1,1.04053,-0.237793,0.199219,-7.375,8.3125,-0.1875,-0.498539,-1.33241,-0.0920909
941,1,-1,1,0,-1,-1,-2,0,1.02441,-0.224609,0.196777,-10.375,9.6875,0.125,-0.506177,-1.32862,-0.0885697
941,0,-2,-1,-2,0,-1,-1,-1,1.02441,-0.224609,0.196777,-10.375,9.6875,0.125,-0.506177,-1.32862,-0.0885697
943,1,-3,-1,-1,0,-2,-1,-2,1.02441,-0.224609,0.196777,-10.375,9.6875,0.125,-0.506177,-1.32862,-0.0885697
943,1,-1,-1,0,-3,-1,0,0,1.02441,-0.224609,0.196777,-10.375,9.6875,0.125,-0.506177,-1.32862,-0.0885697
958,-1,-1,0,-1,-1,-1,0,0,1.0083,-0.223145,0.19873,-12.125,11.3125,1.375,-0.514097,-1.32419,-0.0853436
958,-1,-2,-1,-1,-1,-2,0,-2,1.0083,-0.223145,0.19873,-12.125,11.3125,1.375,-0.514097,-1.32419,-0.0853436
958,0,0,-2,-2,-2,1,0,0,1.0083,-0.223145,0.19873,-12.125,11.3125,1.375,-0.514097,-1.32419,-0.0853436
958,-2,-1,0,-3,0,-2,-1,-2,1.0083,-0.223145,0.19873,-12.125,11.3125,1.375,-0.514097,-1.32419,-0.0853436
980,-2,1,-2,-2,-1,0,-2,-2,0.994141,-0.216797,0.195801,-10.1875,13.1875,3.1875,-0.521678,-1.31932,-0.0819071
980,-1,-1,0,1,-2,0,-1,-1,0.994141,-0.216797,0.195801,-10.1875,13.1875,3.1875,-0.521678,-1.31932,-0.0819071
981,-2,-1,-1,-1,-2,-1,0,-1,0.994141,-0.216797,0.195801,-10.1875,13.1875,3.1875,-0.521678,-1.31932,-0.0819071
981,-2,-3,-1,-4,-1,0,1,0,0.994141,-0.216797,0.195801,-10.1875,13.1875,3.1875,-0.521678,-1.31932,-0.0819071
1002,-1,-1,-3,-3,-1,-1,-1,-1,0.981934,-0.220215,0.199219,-7.1875,14.9375,4.375,-0.527885,-1.31314,-0.0784407
1002,-1,-1,-2,0,0,-2,-3,0,0.981934,-0.220215,0.199219,-7.1875,14.9375,4.375,-0.527885,-1.31314,-0.0784407
1003,-1,0,-1,-1,0,-1,-3,-1,0.981934,-0.220215,0.199219,-7.1875,14.9375,4.375,-0.527885,-1.31314,-0.0784407
1003,-1,-2,1,2,-2,1,-1,0,0.981934,-0.220215,0.199219,-7.1875,14.9375,4.375,-0.527885,-1.31314,-0.0784407
1017,-2,-3,1,0,-1,0,-1,1,0.968262,-0.224121,0.200195,-3.5625,16.1875,5.875,-0.533555,-1.30665,-0.0743898
1017,-2,0,-1,-2,-2,0,-1,-3,0.968262,-0.224121,0.200195,-3.5625,16.1875,5.875,-0.533555,-1.30665,-0.0743898
1017,-1,-2,-2,-2,1,-2,-3,-2,0.968262,-0.224121,0.200195,-3.5625,16.1875,5.875,-0.533555,-1.30665,-0.0743898
1017,-3,-1,-1,0,0,0,0,-1,0.968262,-0.224121,0.200195,-3.5625,16.1875,5.875,-0.533555,-1.30665,-0.0743898
1039,-1,0,-2,-1,-1,0,2,-2,0.969238,-0.220215,0.201172,2.125,17,7.5,-0.538193,-1.30014,-0.0696973
1039,-1,0,0,-1,-1,0,-1,0,0.969238,-0.220215,0.201172,2.125,17,7.5,-0.538193,-1.30014,-0.0696973
1040,1,1,0,0,-2,-1,0,1,0.969238,-0.220215,0.201172,2.125,17,7.5,-0.538193,-1.30014,-0.0696973
1040,-2,-1,0,-1,-1,-1,0,-1,0.969238,-0.220215,0.201172,2.125,17,7.5,-0.538193,-1.30014,-0.0696973
1079,0,-1,0,-1,0,0,-2,0,0.966797,-0.213867,0.211914,6.375,17.6875,8.5,-0.540282,-1.29272,-0.0654812
1079,-1,-1,-1,-1,-2,-1,-2,0,0.966797,-0.213867,0.211914,6.375,17.6875,8.5,-0.540282,-1.29272,-0.0654812
1079,0,0,-2,-3,-1,-1,0,-1,0.966797,-0.213867,0.211914,6.375,17.6875,8.5,-0.540282,-1.29272,-0.0654812
1079,0,0,-1,-1,0,-2,0,-2,0.966797,-0.213867,0.211914,6.375,17.6875,8.5,-0.540282,-1.29272,-0.0654812
1081,-2,-3,-3,1,-1,-2,-2,-1,0.991699,-0.229492,0.223633,7.5,17.5,8.25,-0.54239,-1.28537,-0.0610772
1081,-2,-1,-2,-1,-3,-2,-1,0,0.991699,-0.229492,0.223633,7.5,17.5,8.25,-0.54239,-1.28537,-0.0610772
1084,-1,-1,-1,0,-1,-1,-1,1,0.991699,-0.229492,0.223633,7.5,17.5,8.25,-0.54239,-1.28537,-0.0610772
1084,0,1,-2,0,-2,-1,-2,-1,0.991699,-0.229492,0.223633,7.5,17.5,8.25,-0.54239,-1.28537,-0.0610772
1099,-2,-1,0,-1,-1,-2,0,-1,1.02539,-0.237305,0.226074,6.875,16.875,7.125,-0.544252,-1.279,-0.0573276
1099,0,-1,-2,-1,2,0,1,-1,1.02539,-0.237305,0.226074,6.875,16.875,7.125,-0.544252,-1.279,-0.0573276
1107,-3,-3,-6,-3,-1,-1,-2,-2,1.02539,-0.237305,0.226074,6.875,16.875,7.125,-0.544252,-1.279,-0.0573276
1107,0,-2,0,-2,1,-2,-2,-2,1.02539,-0.237305,0.226074,6.875,16.875,7.125,-0.544252,-1.279,-0.0573276
1122,0,0,0,-1,1,0,0,0,1.03857,-0.226562,0.224609,4.9375,16.5,5.625,-0.544921,-1.27332,-0.0555003
1122,-1,-4,-1,-1,-4,-1,-2,-1,1.03857,-0.226562,0.224609,4.9375,16.5,5.625,-0.544921,-1.27332,-0.0555003
1123,-3,-2,0,1,-2,-1,-1,0,1.03857,-0.226562,0.224609,4.9375,16.5,5.625,-0.544921,-1.27332,-0.0555003
1123,0,-1,-1,-1,-1,0,1,-1,1.03857,-0.226562,0.224609,4.9375,16.5,5.625,-0.544921,-1.27332,-0.0555003
1145,-2,0,-2,-1,-1,-2,0,0,1.03467,-0.189453,0.210449,1.125,16.8125,4.3125,-0.543412,-1.26857,-0.0570449
1145,0,-1,-1,-1,-1,0,-1,-2,1.03467,-0.189453,0.210449,1.125,16.8125,4.3125,-0.543412,-1.26857,-0.0570449
1145,0,-1,-2,0,-3,0,-1,-2,1.03467,-0.189453,0.210449,1.125,16.8125,4.3125,-0.543412,-1.26857,-0.0570449
1145,-3,-2,-2,0,-1,1,-4,-1,1.03467,-0.189453,0.210449,1.125,16.8125,4.3125,-0.543412,-1.26857,-0.0570449
1168,0,-3,-1,-1,1,-1,-1,0,1.00684,-0.134766,0.194336,-7.3125,17.8125,4,-0.540808,-1.26411,-0.0624657
1168,-1,0,0,-1,2,-1,0,1,1.00684,-0.134766,0.194336,-7.3125,17.8125,4,-0.540808,-1.26411,-0.0624657
1168,-1,-1,1,-2,-2,-2,-1,-2,1.00684,-0.134766,0.194336,-7.3125,17.8125,4,-0.540808,-1.26411,-0.0624657
1168,0,0,-2,0,-1,-1,0,0,1.00684,-0.134766,0.194336,-7.3125,17.8125,4,-0.540808,-1.26411,-0.0624657
1182,-1,-1,-1,-2,0,-1,0,0,0.949219,-0.12207,0.194824,-16,19.125,4.8125,-0.540374,-1.25956,-0.0688698
1182,0,-1,-1,0,-2,-1,0,-2,0.949219,-0.12207,0.194824,-16,19.125,4.8125,-0.540374,-1.25956,-0.0688698
1183,-1,0,-2,0,1,0,-2,-1,0.949219,-0.12207,0.194824,-16,19.125,4.8125,-0.540374,-1.25956,-0.0688698
1183,-1,-1,-1,-2,-1,-1,-1,-2,0.949219,-0.12207,0.194824,-16,19.125,4.8125,-0.540374,-1.25956,-0.0688698
1204,-1,-2,0,0,-1,-1,0,0,0.905273,-0.142578,0.201172,-18.5625,19.5,6.0625,-0.543054,-1.25367,-0.0728936
1204,0,-1,-1,-3,-1,-1,-2,-1,0.905273,-0.142578,0.201172,-18.5625,19.5,6.0625,-0.543054,-1.25367,-0.0728936
1205,-1,-1,1,-2,-1,-1,1,0,0.905273,-0.142578,0.201172,-18.5625,19.5,6.0625,-0.543054,-1.25367,-0.0728936
1205,-2,-1,0,-1,-1,-1,-1,-1,0.905273,-0.142578,0.201172,-18.5625,19.5,6.0625,-0.543054,-1.25367,-0.0728936
1228,0,-3,-1,0,-1,0,-2,0,0.883789,-0.170898,0.216309,-11.875,19.125,7.3125,-0.546053,-1.24719,-0.0745232
1228,-1,-1,-2,-1,0,0,-2,-1,0.883789,-0.170898,0.216309,-11.875,19.125,7.3125,-0.546053,-1.24719,-0.0745232
1228,2,-2,-1,0,-2,1,-1,0,0.883789,-0.170898,0.216309,-11.875,19.125,7.3125,-0.546053,-1.24719,-0.0745232
1228,-3,1,-3,-1,-1,-2,-1,0,0.883789,-0.170898,0.216309,-11.875,19.125,7.3125,-0.546053,-1.24719,-0.0745232
1242,0,-1,-2,-1,-2,-1,-2,-1,0.876465,-0.182129,0.222656,-1.375,18.625,7.125,-0.545905,-1.24085,-0.0755112
1242,-1,-3,-2,-1,0,-2,0,-1,0.876465,-0.182129,0.222656,-1.375,18.625,7.125,-0.545905,-1.24085,-0.0755112
1243,-1,4,-2,1,0,-1,-1,-3,0.876465,-0.182129,0.222656,-1.375,18.625,7.125,-0.545905,-1.24085,-0.0755112
1243,-1,-4,-1,0,-1,0,0,0,0.876465,-0.182129,0.222656,-1.375,18.625,7.125,-0.545905,-1.24085,-0.0755112
1265,-1,-1,0,-1,0,-1,-1,-2,0.885254,-0.181641,0.222656,5.5625,17.25,6.0625,-0.543244,-1.23516,-0.0766483
1265,-2,-2,0,1,0,-2,-1,-1,0.885254,-0.181641,0.222656,5.5625,17.25,6.0625,-0.543244,-1.23516,-0.0766483
1266,-1,-1,1,-1,-1,-1,-2,1,0.885254,-0.181641,0.222656,5.5625,17.25,6.0625,-0.543244,-1.23516,-0.0766483
1266,1,1,-2,-1,-2,-1,-2,-2,0.885254,-0.181641,0.222656,5.5625,17.25,6.0625,-0.543244,-1.23516,-0.0766483
1288,-1,1,-3,-1,0,0,-1,-1,0.90332,-0.174805,0.231445,7,14.6875,3.9375,-0.538793,-1.23052,-0.0789267
1288,-1,1,-3,-1,-1,-1,-1,0,0.90332,-0.174805,0.231445,7,14.6875,3.9375,-0.538793,-1.23052,-0.0789267
1288,-2,0,-1,0,-2,-1,-1,0,0.90332,-0.174805,0.231445,7,14.6875,3.9375,-0.538793,-1.23052,-0.0789267
1288,-2,-1,-2,-2,-1,-2,-1,1,0.90332,-0.174805,0.231445,7,14.6875,3.9375,-0.538793,-1.23052,-0.0789267
1302,1,-1,-1,-1,-4,-3,-1,0,0.916504,-0.168945,0.23291,3.9375,11.9375,1.125,-0.534138,-1.2275,-0.0824038
1302,0,1,2,0,-2,-1,0,0,0.916504,-0.168945,0.23291,3.9375,11.9375,1.125,-0.534138,-1.2275,-0.0824038
1302,0,-2,-1,-2,-1,-2,-2,-1,0.916504,-0.168945,0.23291,3.9375,11.9375,1.125,-0.534138,-1.2275,-0.0824038
1302,-2,-1,-1,0,-1,-1,1,-1,0.916504,-0.168945,0.23291,3.9375,11.9375,1.125,-0.534138,-1.2275,-0.0824038
1325,1,1,0,-2,0,-1,-1,-3,0.924805,-0.174805,0.245605,-0.625,8.6875,-1.8125,-0.530679,-1.22604,-0.0866543
1325,-1,-3,1,0,-2,1,-1,-2,0.924805,-0.174805,0.245605,-0.625,8.6875,-1.8125,-0.530679,-1.22604,-0.0866543
1325,-1,-4,-1,-1,-2,-1,-1,1,0.924805,-0.174805,0.245605,-0.625,8.6875,-1.8125,-0.530679,-1.22604,-0.0866543
1325,-2,0,0,-1,0,1,-1,-2,0.924805,-0.174805,0.245605,-0.625,8.6875,-1.8125,-0.530679,-1.22604,-0.0866543
1347,-2,-2,-4,-2,1,-1,0,0,0.935059,-0.177246,0.245117,-3.375,5.1875,-5.3125,-0.526734,-1.22615,-0.0922971
1347,-3,0,-2,-1,-1,-1,-2,-1,0.935059,-0.177246,0.245117,-3.375,5.1875,-5.3125,-0.526734,-1.22615,-0.0922971
1348,1,-2,-1,1,-1,-2,0,-1,0.935059,-0.177246,0.245117,-3.375,5.1875,-5.3125,-0.526734,-1.22615,-0.0922971
1348,-2,-1,-1,-1,-2,-2,-1,-2,0.935059,-0.177246,0.245117,-3.375,5.1875,-5.3125,-0.526734,-1.22615,-0.0922971
1362,-2,-2,-1,-1,-1,-1,-1,-2,0.949219,-0.152344,0.23877,-5.0625,2.5,-7.875,-0.521871,-1.22814,-0.0994929
1362,0,-2,0,0,-1,-2,0,-1,0.949219,-0.152344,0.23877,-5.0625,2.5,-7.875,-0.521871,-1.22814,-0.0994929
1363,-1,-2,-1,-1,-1,0,0,-1,0.949219,-0.152344,0.23877,-5.0625,2.5,-7.875,-0.521871,-1.22814,-0.0994929
1363,2,-2,-1,-2,-1,-1,-3,-1,0.949219,-0.152344,0.23877,-5.0625,2.5,-7.875,-0.521871,-1.22814,-0.0994929
1385,-2,-1,0,-1,-3,1,-1,0,0.936035,-0.125,0.237305,-4.375,0.4375,-9.25,-0.514433,-1.23091,-0.108806
1385,0,0,-1,0,-1,-2,-3,0,0.936035,-0.125,0.237305,-4.375,0.4375,-9.25,-0.514433,-1.23091,-0.108806
1385,-2,2,-2,0,-2,0,0,0,0.936035,-0.125,0.237305,-4.375,0.4375,-9.25,-0.514433,-1.23091,-0.108806
1385,-3,-3,0,-1,-2,-2,1,0,0.936035,-0.125,0.237305,-4.375,0.4375,-9.25,-0.514433,-1.23091,-0.108806
1416,-3,-2,0,0,-2,0,0,-2,0.935059,-0.0976562,0.217285,-4.9375,-0.9375,-10.125,-0.506379,-1.23497,-0.119049
1416,-1,1,0,0,0,-1,-1,-1,0.935059,-0.0976562,0.217285,-4.9375,-0.9375,-10.125,-0.506379,-1.23497,-0.119049
1416,0,-1,-4,-4,-1,-2,0,-1,0.935059,-0.0976562,0.217285,-4.9375,-0.9375,-10.125,-0.506379,-1.23497,-0.119049
1416,-1,-1,2,-2,0,-1,0,-1,0.935059,-0.0976562,0.217285,-4.9375,-0.9375,-10.125,-0.506379,-1.23497,-0.119049
1421,0,0,1,-2,0,-2,-1,0,0.936035,-0.0976562,0.22168,-5.875,-1.875,-11,-0.498084,-1.23918,-0.129751
1421,-2,-3,0,-1,-3,1,-2,0,0.936035,-0.0976562,0.22168,-5.875,-1.875,-11,-0.498084,-1.23918,-0.129751
1423,1,1,-1,0,-3,-1,-3,-2,0.936035,-0.0976562,0.22168,-5.875,-1.875,-11,-0.498084,-1.23918,-0.129751
1423,-1,0,-1,0,0,0,-3,0,0.936035,-0.0976562,0.22168,-5.875,-1.875,-11,-0.498084,-1.23918,-0.129751
1445,-1,-2,-2,1,0,-1,-1,-2,0.944336,-0.11084,0.229004,-5,-3.125,-12.0625,-0.490015,-1.2439,-0.140328
1445,0,-2,0,0,1,0,0,-2,0.944336,-0.11084,0.229004,-5,-3.125,-12.0625,-0.490015,-1.2439,-0.140328
1446,-2,-3,-2,-2,1,1,-2,0,0.944336,-0.11084,0.229004,-5,-3.125,-12.0625,-0.490015,-1.2439,-0.140328
1446,0,0,-2,0,-1,1,0,-2,0.944336,-0.11084,0.229004,-5,-3.125,-12.0625,-0.490015,-1.2439,-0.140328
1468,0,0,-1,0,-1,-1,-1,-1,0.958008,-0.100586,0.223633,-4,-3.75,-12.4375,-0.480783,-1.24882,-0.151365
1468,-1,0,-3,-1,-1,-2,0,-2,0.958008,-0.100586,0.223633,-4,-3.75,-12.4375,-0.480783,-1.24882,-0.151365
1468,-2,-1,2,2,1,-4,1,-1,0.958008,-0.100586,0.223633,-4,-3.75,-12.4375,-0.480783,-1.24882,-0.151365
1468,-1,-4,-2,-2,-1,-2,-1,-1,0.958008,-0.100586,0.223633,-4,-3.75,-12.4375,-0.480783,-1.24882,-0.151365
1482,0,3,-2,-2,-3,-1,0,-1,0.95459,-0.0737305,0.215332,-3.75,-3.625,-13,-0.469043,-1.25395,-0.164747
1482,0,-1,-1,-3,-3,0,0,-1,0.95459,-0.0737305,0.215332,-3.75,-3.625,-13,-0.469043,-1.25395,-0.164747
1482,-1,0,-2,0,0,-1,1,0,0.95459,-0.0737305,0.215332,-3.75,-3.625,-13,-0.469043,-1.25395,-0.164747
1482,0,-2,-1,1,-1,-1,-2,-1,0.95459,-0.0737305,0.215332,-3.75,-3.625,-13,-0.469043,-1.25395,-0.164747
1505,-1,-3,0,-1,-2,1,-1,0,0.94043,-0.0478516,0.216797,-6.3125,-2.75,-13.1875,-0.455607,-1.25886,-0.180725
1505,-1,0,-2,-1,1,-1,-1,1,0.94043,-0.0478516,0.216797,-6.3125,-2.75,-13.1875,-0.455607,-1.25886,-0.180725
1505,-1,-2,0,-4,0,-1,0,-2,0.94043,-0.0478516,0.216797,-6.3125,-2.75,-13.1875,-0.455607,-1.25886,-0.180725
1505,-1,0,-1,-1,-1,-1,-1,0,0.94043,-0.0478516,0.216797,-6.3125,-2.75,-13.1875,-0.455607,-1.25886,-0.180725
1528,0,-1,-3,-5,-2,-2,-1,0,0.916016,-0.046875,0.227051,-9.25,-2.4375,-13,-0.442924,-1.26332,-0.197186
1528,0,0,0,0,-3,0,0,-1,0.916016,-0.046875,0.227051,-9.25,-2.4375,-13,-0.442924,-1.26332,-0.197186
1529,-2,-2,-1,-1,-1,2,-2,-1,0.916016,-0.046875,0.227051,-9.25,-2.4375,-13,-0.442924,-1.26332,-0.197186
1529,0,0,0,0,0,1,0,-1,0.916016,-0.046875,0.227051,-9.25,-2.4375,-13,-0.442924,-1.26332,-0.197186
1542,-2,-2,0,1,-1,1,-2,-1,0.909668,-0.0620117,0.232422,-9.125,-3.125,-12.8125,-0.431319,-1.26729,-0.212251
1542,1,-2,1,1,-1,-3,-1,0,0.909668,-0.0620117,0.232422,-9.125,-3.125,-12.8125,-0.431319,-1.26729,-0.212251
1543,-1,-1,0,-2,-1,-1,0,-1,0.909668,-0.0620117,0.232422,-9.125,-3.125,-12.8125,-0.431319,-1.26729,-0.212251
1543,0,-1,-4,-1,-2,-1,1,0,0.909668,-0.0620117,0.232422,-9.125,-3.125,-12.8125,-0.431319,-1.26729,-0.212251
1564,1,-1,5,1,0,-1,-1,-2,0.90625,-0.0791016,0.251465,-5.9375,-4.375,-12.75,-0.420026,-1.27102,-0.226169
1564,0,1,2,1,-1,-1,-1,1,0.90625,-0.0791016,0.251465,-5.9375,-4.375,-12.75,-0.420026,-1.27102,-0.226169
1565,-1,-4,1,3,0,0,-1,1,0.90625,-0.0791016,0.251465,-5.9375,-4.375,-12.75,-0.420026,-1.27102,-0.226169
1565,-2,1,-2,-3,-2,-2,-2,-1,0.90625,-0.0791016,0.251465,-5.9375,-4.375,-12.75,-0.420026,-1.27102,-0.226169
1587,-1,-5,-7,-4,-1,-1,-2,1,0.930176,-0.0761719,0.265625,-3.0625,-6,-12.6875,-0.40755,-1.27485,-0.239944
1587,-1,-2,-3,-2,-1,-1,-1,-1,0.930176,-0.0761719,0.265625,-3.0625,-6,-12.6875,-0.40755,-1.27485,-0.239944
1589,0,-2,-2,-2,-1,-1,-4,-2,0.930176,-0.0761719,0.265625,-3.0625,-6,-12.6875,-0.40755,-1.27485,-0.239944
1589,-1,0,0,1,0,-1,1,-1,0.930176,-0.0761719,0.265625,-3.0625,-6,-12.6875,-0.40755,-1.27485,-0.239944
1602,-2,-2,0,-1,-2,0,0,-2,0.953613,-0.0688477,0.269531,-3.3125,-7.9375,-12.3125,-0.395842,-1.27934,-0.25309
1602,0,-4,-1,-2,0,0,-1,-3,0.953613,-0.0688477,0.269531,-3.3125,-7.9375,-12.3125,-0.395842,-1.27934,-0.25309
1603,1,-1,-2,-1,-2,-1,0,-2,0.953613,-0.0688477,0.269531,-3.3125,-7.9375,-12.3125,-0.395842,-1.27934,-0.25309
1603,-1,-1,-1,-3,-1,0,-1,0,0.953613,-0.0688477,0.269531,-3.3125,-7.9375,-12.3125,-0.395842,-1.27934,-0.25309
1625,-1,1,0,0,-1,-1,0,-1,0.971191,-0.0742188,0.290527,-3.25,-10.5,-12,-0.384926,-1.28406,-0.265273
1625,-2,-1,-3,-1,1,-1,-1,0,0.971191,-0.0742188,0.290527,-3.25,-10.5,-12,-0.384926,-1.28406,-0.265273
1625,-1,-1,0,1,-1,-2,-1,-3,0.971191,-0.0742188,0.290527,-3.25,-10.5,-12,-0.384926,-1.28406,-0.265273
1625,-1,0,0,-2,-1,-1,-1,-3,0.971191,-0.0742188,0.290527,-3.25,-10.5,-12,-0.384926,-1.28406,-0.265273
1648,0,-3,-1,0,2,-2,1,-2,1.00781,-0.0756836,0.29541,-2.1875,-12.625,-11.75,-0.375043,-1.28918,-0.27594
1648,-3,0,-1,-1,-1,0,0,-1,1.00781,-0.0756836,0.29541,-2.1875,-12.625,-11.75,-0.375043,-1.28918,-0.27594
1648,1,1,-1,-1,-1,0,0,1,1.00781,-0.0756836,0.29541,-2.1875,-12.625,-11.75,-0.375043,-1.28918,-0.27594
1648,0,0,0,1,0,1,1,-3,1.00781,-0.0756836,0.29541,-2.1875,-12.625,-11.75,-0.375043,-1.28918,-0.27594
1662,2,-2,1,2,-2,-1,-1,-1,1.03467,-0.0644531,0.294922,-0.1875,-13.6875,-11.5,-0.363899,-1.2949,-0.287267
1662,0,-2,-7,-4,-2,0,-1,-2,1.03467,-0.0644531,0.294922,-0.1875,-13.6875,-11.5,-0.363899,-1.2949,-0.287267
1663,-2,0,0,0,-1,-1,-2,-2,1.03467,-0.0644531,0.294922,-0.1875,-13.6875,-11.5,-0.363899,-1.2949,-0.287267
1663,-2,-1,-2,-2,-3,-2,-1,0,1.03467,-0.0644531,0.294922,-0.1875,-13.6875,-11.5,-0.363899,-1.2949,-0.287267
1684,-1,1,-4,-1,-1,0,-1,0,1.02344,-0.043457,0.28418,0.0625,-13.5,-10.5625,-0.352157,-1.30044,-0.298946
1684,-1,1,2,0,-2,-2,-2,0,1.02344,-0.043457,0.28418,0.0625,-13.5,-10.5625,-0.352157,-1.30044,-0.298946
1686,0,0,-1,0,0,0,1,0,1.02344,-0.043457,0.28418,0.0625,-13.5,-10.5625,-0.352157,-1.30044,-0.298946
1686,1,-1,-2,2,-1,-1,-1,-1,1.02344,-0.043457,0.28418,0.0625,-13.5,-10.5625,-0.352157,-1.30044,-0.298946
1708,-2,0,0,-2,-1,0,0,0,0.976074,-0.0249023,0.28125,0.625,-12.8125,-9,-0.340202,-1.30571,-0.310804
1708,0,-3,-2,-1,-1,1,-1,-1,0.976074,-0.0249023,0.28125,0.625,-12.8125,-9,-0.340202,-1.30571,-0.310804
1708,-1,2,2,-1,0,-1,-1,-1,0.976074,-0.0249023,0.28125,0.625,-12.8125,-9,-0.340202,-1.30571,-0.310804
1708,-1,-1,2,-2,-2,0,-1,0,0.976074,-0.0249023,0.28125,0.625,-12.8125,-9,-0.340202,-1.30571,-0.310804
1721,0,-1,-2,0,-1,0,0,-1,0.928711,-0.0161133,0.267578,2.1875,-11.8125,-7,-0.329279,-1.30991,-0.320644
1721,-1,-1,-2,-3,-2,-1,0,-1,0.928711,-0.0161133,0.267578,2.1875,-11.8125,-7,-0.329279,-1.30991,-0.320644
1722,0,-2,-1,-1,-2,-1,1,-1,0.928711,-0.0161133,0.267578,2.1875,-11.8125,-7,-0.329279,-1.30991,-0.320644
1722,-1,-1,2,0,-1,-2,-1,-1,0.928711,-0.0161133,0.267578,2.1875,-11.8125,-7,-0.329279,-1.30991,-0.320644
1744,-2,0,0,1,-1,-1,0,-3,0.899414,-0.015625,0.261719,4.3125,-10.25,-5.8125,-0.318493,-1.31383,-0.329948
1744,0,-1,-1,0,-2,0,0,0,0.899414,-0.015625,0.261719,4.3125,-10.25,-5.8125,-0.318493,-1.31383,-0.329948
1744,0,-1,-3,-1,-1,-1,-1,-2,0.899414,-0.015625,0.261719,4.3125,-10.25,-5.8125,-0.318493,-1.31383,-0.329948
1744,0,0,0,0,-1,-1,0,-1,0.899414,-0.015625,0.261719,4.3125,-10.25,-5.8125,-0.318493,-1.31383,-0.329948
1768,-1,-1,-2,-3,0,-3,0,0,0.881836,-0.0249023,0.265137,6.3125,-8.75,-4.375,-0.308422,-1.31639,-0.337689
1768,-1,-1,-2,-2,0,0,-1,-2,0.881836,-0.0249023,0.265137,6.3125,-8.75,-4.375,-0.308422,-1.31639,-0.337689
1768,0,-1,0,-2,-1,-2,-1,-1,0.881836,-0.0249023,0.265137,6.3125,-8.75,-4.375,-0.308422,-1.31639,-0.337689
1768,-2,-3,-3,-2,-1,-3,-1,1,0.881836,-0.0249023,0.265137,6.3125,-8.75,-4.375,-0.308422,-1.31639,-0.337689
1790,-1,-1,1,0,-1,-1,-1,-1,0.881348,-0.0449219,0.269043,7.75,-7.8125,-3.5,-0.301127,-1.31845,-0.342287
1790,0,-2,1,-1,-3,-2,-1,-1,0.881348,-0.0449219,0.269043,7.75,-7.8125,-3.5,-0.301127,-1.31845,-0.342287
1791,1,-3,0,1,-2,1,1,-1,0.881348,-0.0449219,0.269043,7.75,-7.8125,-3.5,-0.301127,-1.31845,-0.342287
1791,0,-1,-1,0,-1,0,-1,-2,0.881348,-0.0449219,0.269043,7.75,-7.8125,-3.5,-0.301127,-1.31845,-0.342287
1805,-2,-2,-6,-3,-1,1,-2,-1,0.888184,-0.0454102,0.27832,8.5625,-6.625,-2.5625,-0.29357,-1.31938,-0.346629
1805,-2,0,0,-2,0,-1,-3,0,0.888184,-0.0454102,0.27832,8.5625,-6.625,-2.5625,-0.29357,-1.31938,-0.346629
1805,-2,-3,-3,-1,-3,0,-1,-1,0.888184,-0.0454102,0.27832,8.5625,-6.625,-2.5625,-0.29357,-1.31938,-0.346629
1805,-1,-1,-2,0,0,0,-1,-1,0.888184,-0.0454102,0.27832,8.5625,-6.625,-2.5625,-0.29357,-1.31938,-0.346629
1827,0,0,1,1,1,-1,-3,0,0.893066,-0.0449219,0.283203,7.4375,-5.875,-1.9375,-0.287312,-1.32048,-0.350245
1827,0,-1,1,-2,-1,-1,-1,0,0.893066,-0.0449219,0.283203,7.4375,-5.875,-1.9375,-0.287312,-1.32048,-0.350245
1829,-2,-1,-4,0,1,0,-1,-1,0.893066,-0.0449219,0.283203,7.4375,-5.875,-1.9375,-0.287312,-1.32048,-0.350245
1829,-1,2,5,-1,-2,-1,0,-1,0.893066,-0.0449219,0.283203,7.4375,-5.875,-1.9375,-0.287312,-1.32048,-0.350245
1842,-2,-1,-3,1,-2,0,0,0,0.902344,-0.0493164,0.288086,5.0625,-6,-1.125,-0.282808,-1.3209,-0.35281
1842,-2,-1,-1,-4,0,-1,0,-1,0.902344,-0.0493164,0.288086,5.0625,-6,-1.125,-0.282808,-1.3209,-0.35281
1850,-1,-1,-3,-2,-1,-3,0,0,0.902344,-0.0493164,0.288086,5.0625,-6,-1.125,-0.282808,-1.3209,-0.35281
1850,-1,-3,-3,-3,1,0,0,0,0.902344,-0.0493164,0.288086,5.0625,-6,-1.125,-0.282808,-1.3209,-0.35281
1865,0,-4,0,1,-2,0,1,-1,0.924316,-0.0517578,0.284668,3.8125,-5.625,-0.25,-0.280552,-1.32149,-0.35352
1865,0,5,1,2,-2,0,0,0,0.924316,-0.0517578,0.284668,3.8125,-5.625,-0.25,-0.280552,-1.32149,-0.35352
1865,0,-1,-1,-1,-2,-1,1,0,0.924316,-0.0517578,0.284668,3.8125,-5.625,-0.25,-0.280552,-1.32149,-0.35352
1865,1,-1,-2,0,0,-1,-3,-2,0.924316,-0.0517578,0.284668,3.8125,-5.625,-0.25,-0.280552,-1.32149,-0.35352
1888,0,-1,1,1,-1,-2,-3,0,0.941895,-0.0532227,0.273926,5.1875,-4.5,0.5625,-0.278487,-1.32211,-0.353703
1888,-1,-2,0,1,0,-3,0,0,0.941895,-0.0532227,0.273926,5.1875,-4.5,0.5625,-0.278487,-1.32211,-0.353703
1888,-2,1,1,0,-1,0,-2,-1,0.941895,-0.0532227,0.273926,5.1875,-4.5,0.5625,-0.278487,-1.32211,-0.353703
1888,0,-1,-1,-1,0,-1,1,0,0.941895,-0.0532227,0.273926,5.1875,-4.5,0.5625,-0.278487,-1.32211,-0.353703
1902,1,-2,0,-1,-2,0,0,-1,0.939941,-0.0449219,0.264648,7.375,-3.25,1.375,-0.276019,-1.32253,-0.353415
1902,2,-1,-4,-1,1,-1,-2,-3,0.939941,-0.0449219,0.264648,7.375,-3.25,1.375,-0.276019,-1.32253,-0.353415
1910,-2,-1,1,0,-1,-1,1,0,0.939941,-0.0449219,0.264648,7.375,-3.25,1.375,-0.276019,-1.32253,-0.353415
1910,-1,-2,-2,-1,-2,0,-1,-1,0.939941,-0.0449219,0.264648,7.375,-3.25,1.375,-0.276019,-1.32253,-0.353415
1924,0,0,-1,-1,0,-2,-1,0,0.943848,-0.0317383,0.248535,9.4375,-1.8125,3.4375,-0.274533,-1.32231,-0.351217
1924,-3,-2,-1,-1,-3,1,0,-2,0.943848,-0.0317383,0.248535,9.4375,-1.8125,3.4375,-0.274533,-1.32231,-0.351217
1925,-1,0,-2,-3,-1,-1,-3,0,0.943848,-0.0317383,0.248535,9.4375,-1.8125,3.4375,-0.274533,-1.32231,-0.351217
1925,1,-1,2,-2,-1,-2,0,0,0.943848,-0.0317383,0.248535,9.4375,-1.8125,3.4375,-0.274533,-1.32231,-0.351217
1947,-1,-1,1,-1,-1,-1,0,0,0.948242,-0.0170898,0.238281,9.75,0.0625,5.375,-0.273392,-1.32192,-0.348554
1947,-1,-3,0,1,-1,0,-2,-1,0.948242,-0.0170898,0.238281,9.75,0.0625,5.375,-0.273392,-1.32192,-0.348554
1948,0,2,0,0,-2,-1,0,-1,0.948242,-0.0170898,0.238281,9.75,0.0625,5.375,-0.273392,-1.32192,-0.348554
1948,-1,-1,-5,-1,-1,-1,1,-1,0.948242,-0.0170898,0.238281,9.75,0.0625,5.375,-0.273392,-1.32192,-0.348554
1962,-1,0,-1,-3,0,0,-1,0,0.942383,-0.0107422,0.234375,9.5,1.625,7.5625,-0.274204,-1.32141,-0.344258
1962,-2,-3,0,-1,-1,-3,1,0,0.942383,-0.0107422,0.234375,9.5,1.625,7.5625,-0.274204,-1.32141,-0.344258
1969,-1,-2,1,0,1,-2,-1,-2,0.942383,-0.0107422,0.234375,9.5,1.625,7.5625,-0.274204,-1.32141,-0.344258
1969,-1,-4,-3,-3,0,0,-2,-1,0.942383,-0.0107422,0.234375,9.5,1.625,7.5625,-0.274204,-1.32141,-0.344258
1985,-1,0,-1,-2,-1,0,-2,-1,0.933594,-0.0151367,0.237305,9.3125,3.125,10,-0.277637,-1.31926,-0.336827
1985,1,2,-1,-1,0,1,-2,-1,0.933594,-0.0151367,0.237305,9.3125,3.125,10,-0.277637,-1.31926,-0.336827
1986,1,-1,-1,-2,-2,-2,-1,-1,0.933594,-0.0151367,0.237305,9.3125,3.125,10,-0.277637,-1.31926,-0.336827
1986,-3,0,1,0,-1,0,-1,0,0.933594,-0.0151367,0.237305,9.3125,3.125,10,-0.277637,-1.31926,-0.336827
2008,-2,-1,-1,0,-1,-1,1,0,0.922363,-0.015625,0.242676,8.625,4.1875,11.8125,-0.283247,-1.31672,-0.327545
2008,-1,-2,-2,-1,0,-2,0,0,0.922363,-0.015625,0.242676,8.625,4.1875,11.8125,-0.283247,-1.31672,-0.327545
2008,0,1,-2,0,1,-1,-1,-1,0.922363,-0.015625,0.242676,8.625,4.1875,11.8125,-0.283247,-1.31672,-0.327545
2008,0,-2,0,-2,-1,0,-2,-1,0.922363,-0.015625,0.242676,8.625,4.1875,11.8125,-0.283247,-1.31672,-0.327545
2022,0,-1,0,1,-1,0,0,-2,0.916504,-0.0292969,0.262207,7.125,4.125,13.625,-0.292023,-1.31338,-0.315572
2022,-1,0,-1,0,1,0,-1,-1,0.916504,-0.0292969,0.262207,7.125,4.125,13.625,-0.292023,-1.31338,-0.315572
2030,0,-2,-3,-1,0,-1,-1,-2,0.916504,-0.0292969,0.262207,7.125,4.125,13.625,-0.292023,-1.31338,-0.315572
2030,0,-1,0,1,1,-1,0,1,0.916504,-0.0292969,0.262207,7.125,4.125,13.625,-0.292023,-1.31338,-0.315572
2044,0,-1,-1,-1,-2,-2,0,-1,0.95166,-0.0581055,0.272461,6.875,2.875,14.625,-0.304586,-1.3105,-0.29993
2044,0,-2,-1,0,-1,-1,-2,-1,0.95166,-0.0581055,0.272461,6.875,2.875,14.625,-0.304586,-1.3105,-0.29993
2045,0,-1,1,-1,-3,0,-2,0,0.95166,-0.0581055,0.272461,6.875,2.875,14.625,-0.304586,-1.3105,-0.29993
2045,0,-1,0,1,-2,0,-1,-1,0.95166,-0.0581055,0.272461,6.875,2.875,14.625,-0.304586,-1.3105,-0.29993
2068,0,-1,-1,-1,-3,0,-2,0,0.978027,-0.081543,0.28418,8.5,1.75,14.5,-0.31795,-1.3076,-0.283093
2068,0,-3,-2,-2,1,0,1,0,0.978027,-0.081543,0.28418,8.5,1.75,14.5,-0.31795,-1.3076,-0.283093
2068,-1,-2,-3,-3,-1,-1,1,-1,0.978027,-0.081543,0.28418,8.5,1.75,14.5,-0.31795,-1.3076,-0.283093
2068,0,0,-1,0,-2,-1,-1,0,0.978027,-0.081543,0.28418,8.5,1.75,14.5,-0.31795,-1.3076,-0.283093
2090,-1,0,-1,1,-1,-1,-2,-1,1.00781,-0.09375,0.275391,12.5625,0.25,13.8125,-0.330319,-1.30557,-0.265694
2090,-1,-3,-1,2,-3,-1,-1,-2,1.00781,-0.09375,0.275391,12.5625,0.25,13.8125,-0.330319,-1.30557,-0.265694
2090,-2,2,-3,-3,0,0,-3,-1,1.00781,-0.09375,0.275391,12.5625,0.25,13.8125,-0.330319,-1.30557,-0.265694
2090,-3,0,-3,-1,-1,-3,0,-1,1.00781,-0.09375,0.275391,12.5625,0.25,13.8125,-0.330319,-1.30557,-0.265694
2104,-1,0,-1,0,1,-1,-3,-1,1.02441,-0.0893555,0.258789,15.5625,0.3125,12.8125,-0.339778,-1.30413,-0.250142
2104,0,-2,0,-2,0,0,1,0,1.02441,-0.0893555,0.258789,15.5625,0.3125,12.8125,-0.339778,-1.30413,-0.250142
2105,2,-4,-1,-1,0,0,0,0,1.02441,-0.0893555,0.258789,15.5625,0.3125,12.8125,-0.339778,-1.30413,-0.250142
2105,0,-1,-2,-1,-2,-1,-2,0,1.02441,-0.0893555,0.258789,15.5625,0.3125,12.8125,-0.339778,-1.30413,-0.250142
2128,-1,1,0,-1,0,1,1,-1,1.00342,-0.0717773,0.242676,16.5,1.0625,11.5,-0.346105,-1.30283,-0.23748
2128,-2,0,0,2,0,-2,-1,-2,1.00342,-0.0717773,0.242676,16.5,1.0625,11.5,-0.346105,-1.30283,-0.23748
2129,-2,0,2,2,0,0,-1,0,1.00342,-0.0717773,0.242676,16.5,1.0625,11.5,-0.346105,-1.30283,-0.23748
2129,-1,0,-4,-2,-1,1,-1,-2,1.00342,-0.0717773,0.242676,16.5,1.0625,11.5,-0.346105,-1.30283,-0.23748
2150,-1,-1,-2,-3,-4,-1,0,1,0.955566,-0.0561523,0.232422,15.75,2.75,10.875,-0.349738,-1.30102,-0.227619
2150,-1,-1,-2,-4,-1,-2,0,-1,0.955566,-0.0561523,0.232422,15.75,2.75,10.875,-0.349738,-1.30102,-0.227619
2151,-1,-2,-1,-3,0,-1,-3,-1,0.955566,-0.0561523,0.232422,15.75,2.75,10.875,-0.349738,-1.30102,-0.227619
2151,0,-2,-1,0,0,-2,-3,-3,0.955566,-0.0561523,0.232422,15.75,2.75,10.875,-0.349738,-1.30102,-0.227619
2164,-1,0,-2,1,0,-3,-3,-3,0.90918,-0.0600586,0.216309,15.0625,4.5625,10.625,-0.353484,-1.29911,-0.218204
2164,1,-1,-2,0,-3,-1,0,-2,0.90918,-0.0600586,0.216309,15.0625,4.5625,10.625,-0.353484,-1.29911,-0.218204
2165,-1,-2,-1,0,-1,-1,-1,-1,0.90918,-0.0600586,0.216309,15.0625,4.5625,10.625,-0.353484,-1.29911,-0.218204
2165,0,-2,1,0,1,-1,-2,0,0.90918,-0.0600586,0.216309,15.0625,4.5625,10.625,-0.353484,-1.29911,-0.218204
2189,1,-1,-1,-2,-2,-1,-2,-1,0.880371,-0.0712891,0.210449,15.75,6.1875,10.875,-0.357475,-1.29638,-0.208391
2189,-1,1,-2,-4,-2,-1,-1,-2,0.880371,-0.0712891,0.210449,15.75,6.1875,10.875,-0.357475,-1.29638,-0.208391
2190,-1,-1,-2,1,-2,-1,-1,-1,0.880371,-0.0712891,0.210449,15.75,6.1875,10.875,-0.357475,-1.29638,-0.208391
2190,-1,-2,-5,-4,-2,0,-1,-2,0.880371,-0.0712891,0.210449,15.75,6.1875,10.875,-0.357475,-1.29638,-0.208391
2210,-2,-1,1,0,-1,0,2,-1,0.867676,-0.0961914,0.213379,16.4375,7.25,10.1875,-0.361451,-1.29311,-0.198484
2210,-3,-1,0,-1,0,1,0,0,0.867676,-0.0961914,0.213379,16.4375,7.25,10.1875,-0.361451,-1.29311,-0.198484
2211,-1,-2,-2,-2,-1,0,-1,0,0.867676,-0.0961914,0.213379,16.4375,7.25,10.1875,-0.361451,-1.29311,-0.198484
2211,1,0,0,1,0,0,0,-1,0.867676,-0.0961914,0.213379,16.4375,7.25,10.1875,-0.361451,-1.29311,-0.198484
2225,-2,-2,-2,-1,-3,-1,0,-1,0.880859,-0.108887,0.223633,16.125,7.5625,9.0625,-0.364952,-1.28967,-0.189111
2225,0,-2,-1,1,-3,-2,0,-2,0.880859,-0.108887,0.223633,16.125,7.5625,9.0625,-0.364952,-1.28967,-0.189111
2225,0,0,-1,1,-2,-1,0,-1,0.880859,-0.108887,0.223633,16.125,7.5625,9.0625,-0.364952,-1.28967,-0.189111
2225,-1,2,0,0,-2,0,0,1,0.880859,-0.108887,0.223633,16.125,7.5625,9.0625,-0.364952,-1.28967,-0.189111
2248,1,0,-3,-2,-1,0,-2,-1,0.896484,-0.125977,0.226074,13.9375,6.9375,7.875,-0.369119,-1.28653,-0.179958
2248,0,0,-1,-1,-1,-1,-2,1,0.896484,-0.125977,0.226074,13.9375,6.9375,7.875,-0.369119,-1.28653,-0.179958
2249,-2,-5,0,-1,-1,0,-2,0,0.896484,-0.125977,0.226074,13.9375,6.9375,7.875,-0.369119,-1.28653,-0.179958
2249,1,2,-2,-1,-1,-2,-2,-1,0.896484,-0.125977,0.226074,13.9375,6.9375,7.875,-0.369119,-1.28653,-0.179958
2270,0,-1,-2,-1,-1,-2,0,-1,0.927734,-0.124512,0.227539,9.8125,5.9375,6.375,-0.372867,-1.28404,-0.172527
2270,-1,0,3,1,0,-2,-2,0,0.927734,-0.124512,0.227539,9.8125,5.9375,6.375,-0.372867,-1.28404,-0.172527
2270,0,-1,-1,-1,-2,-2,0,-2,0.927734,-0.124512,0.227539,9.8125,5.9375,6.375,-0.372867,-1.28404,-0.172527
2270,-1,-2,-1,-1,1,0,0,-1,0.927734,-0.124512,0.227539,9.8125,5.9375,6.375,-0.372867,-1.28404,-0.172527
2284,-1,-3,-2,-1,-2,-1,0,-1,0.953125,-0.134277,0.226562,6.4375,5.1875,5.8125,-0.378306,-1.28212,-0.164827
2284,0,-1,-1,0,-1,-1,-2,-1,0.953125,-0.134277,0.226562,6.4375,5.1875,5.8125,-0.378306,-1.28212,-0.164827
2285,0,-1,-3,-1,-4,-2,1,-2,0.953125,-0.134277,0.226562,6.4375,5.1875,5.8125,-0.378306,-1.28212,-0.164827
2285,-1,-1,-1,0,0,0,1,0,0.953125,-0.134277,0.226562,6.4375,5.1875,5.8125,-0.378306,-1.28212,-0.164827
2308,0,1,0,-1,1,-2,-1,-2,0.966797,-0.147461,0.231445,6.375,3.375,5.1875,-0.384546,-1.28071,-0.15641
2308,-1,0,-2,-3,-1,0,-1,-1,0.966797,-0.147461,0.231445,6.375,3.375,5.1875,-0.384546,-1.28071,-0.15641
2308,-2,0,-2,-3,-1,-2,-1,-1,0.966797,-0.147461,0.231445,6.375,3.375,5.1875,-0.384546,-1.28071,-0.15641
2308,0,0,-3,-2,-1,-2,1,-1,0.966797,-0.147461,0.231445,6.375,3.375,5.1875,-0.384546,-1.28071,-0.15641
2331,1,-1,-2,-2,-1,-1,-3,-1,0.970703,-0.153809,0.233398,8.3125,1.875,4.8125,-0.390844,-1.2799,-0.147238
2331,-1,-3,-2,0,-1,0,-1,-1,0.970703,-0.153809,0.233398,8.3125,1.875,4.8125,-0.390844,-1.2799,-0.147238
2331,1,6,1,1,-1,-2,0,-2,0.970703,-0.153809,0.233398,8.3125,1.875,4.8125,-0.390844,-1.2799,-0.147238
2331,-1,-4,-4,-2,-3,-2,-2,-2,0.970703,-0.153809,0.233398,8.3125,1.875,4.8125,-0.390844,-1.2799,-0.147238
2344,-1,-1,-2,0,-1,-3,0,-1,0.971191,-0.150879,0.23584,12.0625,0,5.25,-0.396288,-1.27942,-0.137375
2344,-1,0,-1,-2,-3,-1,0,-1,0.971191,-0.150879,0.23584,12.0625,0,5.25,-0.396288,-1.27942,-0.137375
2353,0,-2,-1,-1,-2,0,0,-1,0.987793,-0.149902,0.23291,15.1875,-2.0625,5.5,-0.401657,-1.2801,-0.126694
2353,-1,-2,-1,1,-1,-3,0,-1,0.987793,-0.149902,0.23291,15.1875,-2.0625,5.5,-0.401657,-1.2801,-0.126694
2367,0,0,-1,1,-1,-2,0,0,0.987793,-0.149902,0.23291,15.1875,-2.0625,5.5,-0.401657,-1.2801,-0.126694
2367,0,-1,-2,-1,0,-1,-2,-2,0.987793,-0.149902,0.23291,15.1875,-2.0625,5.5,-0.401657,-1.2801,-0.126694
2369,-2,-3,0,0,0,0,-2,0,0.987793,-0.149902,0.23291,15.1875,-2.0625,5.5,-0.401657,-1.2801,-0.126694
2369,-2,2,2,1,0,1,-2,0,0.987793,-0.149902,0.23291,15.1875,-2.0625,5.5,-0.401657,-1.2801,-0.126694
2391,-2,-3,-1,-3,-1,0,1,-2,1.0127,-0.156738,0.223633,15.25,-3.25,6,-0.408998,-1.28088,-0.113766
2391,-2,-1,-2,-2,0,-1,-1,0,1.0127,-0.156738,0.223633,15.25,-3.25,6,-0.408998,-1.28088,-0.113766
2391,0,-1,-2,-2,-1,-1,0,0,1.0127,-0.156738,0.223633,15.25,-3.25,6,-0.408998,-1.28088,-0.113766
2391,-2,-2,-1,-1,-3,0,0,-1,1.0127,-0.156738,0.223633,15.25,-3.25,6,-0.408998,-1.28088,-0.113766
2404,-1,-1,-2,0,-1,0,-3,1,1.02881,-0.165527,0.206055,13.0625,-3.5,5.8125,-0.418173,-1.28263,-0.100029
2404,-2,-1,0,1,-2,-1,0,-1,1.02881,-0.165527,0.206055,13.0625,-3.5,5.8125,-0.418173,-1.28263,-0.100029
2405,-1,-2,-4,-3,-1,1,-2,-2,1.02881,-0.165527,0.206055,13.0625,-3.5,5.8125,-0.418173,-1.28263,-0.100029
2405,-3,-1,-1,0,-2,-1,-2,-2,1.02881,-0.165527,0.206055,13.0625,-3.5,5.8125,-0.418173,-1.28263,-0.100029
2427,-1,-1,0,-1,0,0,-2,-1,0.998535,-0.15332,0.198242,11.875,-2.3125,6.25,-0.426629,-1.28355,-0.087304
2427,0,-1,-1,-1,1,-1,0,0,0.998535,-0.15332,0.198242,11.875,-2.3125,6.25,-0.426629,-1.28355,-0.087304
2428,0,-4,-2,0,0,-1,-2,-2,0.998535,-0.15332,0.198242,11.875,-2.3125,6.25,-0.426629,-1.28355,-0.087304
2428,-1,-1,-3,-3,-2,-1,0,-2,0.998535,-0.15332,0.198242,11.875,-2.3125,6.25,-0.426629,-1.28355,-0.087304
2458,-1,-1,-1,-2,0,-1,0,0,0.943848,-0.141602,0.189453,11.625,-0.5625,7.5,-0.435032,-1.28381,-0.0745634
2458,-1,-2,-2,0,-2,-3,-2,-1,0.943848,-0.141602,0.189453,11.625,-0.5625,7.5,-0.435032,-1.28381,-0.0745634
2459,-2,0,2,1,-1,0,0,-1,0.943848,-0.141602,0.189453,11.625,-0.5625,7.5,-0.435032,-1.28381,-0.0745634
2459,-1,-1,0,0,1,-1,-1,-1,0.943848,-0.141602,0.189453,11.625,-0.5625,7.5,-0.435032,-1.28381,-0.0745634
2464,0,-1,0,-2,-4,-3,-1,-2,0.898438,-0.147949,0.188477,12.1875,0.9375,9,-0.444427,-1.28278,-0.0606476
2464,-1,1,-1,-2,-1,-1,-1,-2,0.898438,-0.147949,0.188477,12.1875,0.9375,9,-0.444427,-1.28278,-0.0606476
2472,0,-1,0,0,0,-1,0,-1,0.868652,-0.158691,0.191406,14.5625,2.1875,9.875,-0.453728,-1.28099,-0.0460874
2472,0,-2,-1,2,1,1,-2,0,0.868652,-0.158691,0.191406,14.5625,2.1875,9.875,-0.453728,-1.28099,-0.0460874
2488,-2,-1,1,-2,-2,-1,-2,0,0.868652,-0.158691,0.191406,14.5625,2.1875,9.875,-0.453728,-1.28099,-0.0460874
2488,0,0,-1,-2,-1,0,-2,0,0.868652,-0.158691,0.191406,14.5625,2.1875,9.875,-0.453728,-1.28099,-0.0460874
2490,-2,-1,0,0,-2,-2,-1,-2,0.862793,-0.182129,0.20459,18.75,1.5625,10.9375,-0.463834,-1.27858,-0.0292106
2490,-1,-1,-1,-3,-1,-1,0,0,0.862793,-0.182129,0.20459,18.75,1.5625,10.9375,-0.463834,-1.27858,-0.0292106
2510,-1,0,-2,1,1,0,0,-1,0.862793,-0.182129,0.20459,18.75,1.5625,10.9375,-0.463834,-1.27858,-0.0292106
2510,-1,0,-2,-2,-1,-2,0,0,0.862793,-0.182129,0.20459,18.75,1.5625,10.9375,-0.463834,-1.27858,-0.0292106
2511,-1,-3,0,-2,0,-1,-2,-1,0.903809,-0.198242,0.222168,21.6875,-0.375,10.0625,-0.473595,-1.27718,-0.0118541
2511,-1,-1,1,1,-2,-1,-3,-2,0.903809,-0.198242,0.222168,21.6875,-0.375,10.0625,-0.473595,-1.27718,-0.0118541
2524,-1,-1,-3,-3,0,-1,-1,-2,0.903809,-0.198242,0.222168,21.6875,-0.375,10.0625,-0.473595,-1.27718,-0.0118541
2524,-2,-1,-1,-1,-1,-2,-2,-1,0.903809,-0.198242,0.222168,21.6875,-0.375,10.0625,-0.473595,-1.27718,-0.0118541
2532,0,-2,-1,-2,-1,0,0,0,0.950684,-0.210938,0.22998,19.1875,-2.0625,7.8125,-0.482654,-1.27597,0.00412464
2532,-1,-1,-1,-1,-1,-2,0,0,0.950684,-0.210938,0.22998,19.1875,-2.0625,7.8125,-0.482654,-1.27597,0.00412464
2548,-2,-2,-1,-1,-1,-1,-1,0,0.950684,-0.210938,0.22998,19.1875,-2.0625,7.8125,-0.482654,-1.27597,0.00412464
2548,-1,-1,-1,0,-1,-2,0,-2,0.950684,-0.210938,0.22998,19.1875,-2.0625,7.8125,-0.482654,-1.27597,0.00412464
2549,-1,0,-1,-1,-2,-2,0,0,0.977051,-0.20459,0.224609,14.3125,-3.6875,5.125,-0.490898,-1.27615,0.0175267
2549,-1,-2,-5,-3,1,-1,0,-2,0.977051,-0.20459,0.224609,14.3125,-3.6875,5.125,-0.490898,-1.27615,0.0175267
2570,-1,1,-1,0,-2,1,-2,0,0.977051,-0.20459,0.224609,14.3125,-3.6875,5.125,-0.490898,-1.27615,0.0175267
2570,0,-3,-1,-1,-1,-1,1,0,0.977051,-0.20459,0.224609,14.3125,-3.6875,5.125,-0.490898,-1.27615,0.0175267
2571,0,-2,-1,0,-2,-1,-1,0,0.987793,-0.195312,0.225586,9.5,-5.0625,3.5,-0.499482,-1.27756,0.0294762
2571,-1,0,0,-1,-1,-1,-1,-2,0.987793,-0.195312,0.225586,9.5,-5.0625,3.5,-0.499482,-1.27756,0.0294762
2593,-2,0,-1,0,-1,-2,-1,0,0.987793,-0.195312,0.225586,9.5,-5.0625,3.5,-0.499482,-1.27756,0.0294762
2593,0,-1,-1,2,1,-2,1,0,0.987793,-0.195312,0.225586,9.5,-5.0625,3.5,-0.499482,-1.27756,0.0294762
2595,-1,-2,-1,-4,-1,-1,-2,-1,0.978516,-0.197266,0.217773,7.625,-5.75,2.125,-0.507769,-1.2789,0.0404689
2595,-1,0,0,0,0,-2,0,-1,0.978516,-0.197266,0.217773,7.625,-5.75,2.125,-0.507769,-1.2789,0.0404689
2607,0,-1,-1,-2,-3,-2,-1,-1,0.978516,-0.197266,0.217773,7.625,-5.75,2.125,-0.507769,-1.2789,0.0404689
2607,-1,-1,0,1,-1,0,-1,-1,0.978516,-0.197266,0.217773,7.625,-5.75,2.125,-0.507769,-1.2789,0.0404689
2609,0,1,-3,0,0,0,1,-2,0.972656,-0.197266,0.206543,9,-6.125,1.3125,-0.515403,-1.28109,0.0510448
2609,1,-2,2,1,0,-2,-1,-1,0.972656,-0.197266,0.206543,9,-6.125,1.3125,-0.515403,-1.28109,0.0510448
2630,-2,-2,-6,-1,1,-1,2,0,0.972656,-0.197266,0.206543,9,-6.125,1.3125,-0.515403,-1.28109,0.0510448
2630,-1,0,0,-2,-3,-1,-1,0,0.972656,-0.197266,0.206543,9,-6.125,1.3125,-0.515403,-1.28109,0.0510448
2632,1,-1,-1,0,-3,-1,-1,0,0.983887,-0.195312,0.20166,11.75,-5.125,0.9375,-0.521224,-1.28302,0.0609403
2632,1,-2,1,3,-1,0,-1,0,0.983887,-0.195312,0.20166,11.75,-5.125,0.9375,-0.521224,-1.28302,0.0609403
2644,-1,-1,3,0,-2,-1,-3,-1,0.983887,-0.195312,0.20166,11.75,-5.125,0.9375,-0.521224,-1.28302,0.0609403
2644,-2,-1,-1,-2,-2,0,-2,-2,0.983887,-0.195312,0.20166,11.75,-5.125,0.9375,-0.521224,-1.28302,0.0609403
2653,-1,1,-1,0,0,-1,0,-2,0.987793,-0.186523,0.201172,13.5625,-4,1.25,-0.525337,-1.28429,0.0698186
2653,-2,0,-1,-3,-2,1,-2,0,0.987793,-0.186523,0.201172,13.5625,-4,1.25,-0.525337,-1.28429,0.0698186
2667,0,-1,0,1,1,-2,1,1,0.987793,-0.186523,0.201172,13.5625,-4,1.25,-0.525337,-1.28429,0.0698186
2667,0,1,-1,-2,0,-1,-2,0,0.987793,-0.186523,0.201172,13.5625,-4,1.25,-0.525337,-1.28429,0.0698186
2669,-2,0,0,-1,0,-1,-1,-1,0.983887,-0.159668,0.192871,11.75,-2.125,1.9375,-0.528245,-1.28571,0.0767523
2669,-1,-1,1,1,-2,0,0,-1,0.983887,-0.159668,0.192871,11.75,-2.125,1.9375,-0.528245,-1.28571,0.0767523
2690,-2,-4,-1,-1,-1,-1,1,-1,0.983887,-0.159668,0.192871,11.75,-2.125,1.9375,-0.528245,-1.28571,0.0767523
2690,-1,3,-1,-4,-2,1,-3,-4,0.983887,-0.159668,0.192871,11.75,-2.125,1.9375,-0.528245,-1.28571,0.0767523
2692,0,-2,-1,1,-2,-2,-2,-2,0.974121,-0.14502,0.197266,6.9375,-0.25,3.1875,-0.531194,-1.28585,0.0823608
2692,0,-1,-2,-2,-2,-1,0,1,0.974121,-0.14502,0.197266,6.9375,-0.25,3.1875,-0.531194,-1.28585,0.0823608
2704,-1,-1,-1,0,-1,0,-1,-1,0.974121,-0.14502,0.197266,6.9375,-0.25,3.1875,-0.531194,-1.28585,0.0823608
2704,1,-3,-1,-1,1,-1,-1,0,0.974121,-0.14502,0.197266,6.9375,-0.25,3.1875,-0.531194,-1.28585,0.0823608
2712,0,-1,-1,-2,1,-1,-2,-1,0.967773,-0.141113,0.200684,2.0625,1.625,4.5,-0.535821,-1.28561,0.0877018
2712,-4,-1,-1,-2,0,-3,-2,-2,0.967773,-0.141113,0.200684,2.0625,1.625,4.5,-0.535821,-1.28561,0.0877018
2735,0,0,-2,-2,-1,-1,-1,-1,0.967773,-0.141113,0.200684,2.0625,1.625,4.5,-0.535821,-1.28561,0.0877018
2735,-2,-2,-1,0,-1,0,-1,-1,0.967773,-0.141113,0.200684,2.0625,1.625,4.5,-0.535821,-1.28561,0.0877018
2736,-2,0,2,2,-2,-1,0,-1,0.960449,-0.154297,0.211914,0.125,3.1875,5.9375,-0.541737,-1.28415,0.0937439
2736,0,-2,-5,-6,-3,0,0,0,0.960449,-0.154297,0.211914,0.125,3.1875,5.9375,-0.541737,-1.28415,0.0937439
2750,0,0,-4,-1,-3,-1,-1,-1,0.960449,-0.154297,0.211914,0.125,3.1875,5.9375,-0.541737,-1.28415,0.0937439
2750,0,-1,-2,0,-1,-1,-1,0,0.960449,-0.154297,0.211914,0.125,3.1875,5.9375,-0.541737,-1.28415,0.0937439
2751,-1,0,0,-2,1,1,-1,0,0.953125,-0.17041,0.217285,1.375,4.4375,6.6875,-0.548077,-1.28195,0.100604
2751,0,0,0,0,0,-1,1,0,0.953125,-0.17041,0.217285,1.375,4.4375,6.6875,-0.548077,-1.28195,0.100604
2763,-1,0,1,1,1,-2,-1,-1,0.953125,-0.17041,0.217285,1.375,4.4375,6.6875,-0.548077,-1.28195,0.100604
2763,-1,-2,-1,0,-1,-2,1,0,0.953125,-0.17041,0.217285,1.375,4.4375,6.6875,-0.548077,-1.28195,0.100604
2772,-1,-1,-1,-2,-2,0,-2,-2,0.942383,-0.185059,0.21582,4.4375,5,6.9375,-0.553955,-1.27894,0.108252
2772,-1,-3,1,1,-1,-1,-1,0,0.942383,-0.185059,0.21582,4.4375,5,6.9375,-0.553955,-1.27894,0.108252
2788,0,3,0,-1,-3,0,-1,-2,0.942383,-0.185059,0.21582,4.4375,5,6.9375,-0.553955,-1.27894,0.108252
2788,0,-2,1,0,-2,-1,-1,-2,0.942383,-0.185059,0.21582,4.4375,5,6.9375,-0.553955,-1.27894,0.108252
2789,-1,-1,-2,-3,-2,0,0,1,0.939453,-0.192383,0.226562,8.25,4.6875,6.875,-0.558851,-1.27618,0.115935
2789,0,-1,-1,-2,0,-2,-1,-1,0.939453,-0.192383,0.226562,8.25,4.6875,6.875,-0.558851,-1.27618,0.115935
2810,0,-1,0,-1,0,-1,-4,-1,0.939453,-0.192383,0.226562,8.25,4.6875,6.875,-0.558851,-1.27618,0.115935
2810,0,-2,-2,0,-3,-1,-1,0,0.939453,-0.192383,0.226562,8.25,4.6875,6.875,-0.558851,-1.27618,0.115935
2812,-1,-1,-2,1,-1,-1,0,0,0.939941,-0.185547,0.226562,10.25,4.1875,6,-0.561359,-1.27378,0.122031
2812,-1,1,1,0,-2,1,-2,-2,0.939941,-0.185547,0.226562,10.25,4.1875,6,-0.561359,-1.27378,0.122031
2833,-1,-1,0,-2,-1,-2,-1,1,0.939941,-0.185547,0.226562,10.25,4.1875,6,-0.561359,-1.27378,0.122031
2833,-3,-3,0,0,0,-2,0,-1,0.939941,-0.185547,0.226562,10.25,4.1875,6,-0.561359,-1.27378,0.122031
2834,0,-2,-1,-1,-1,-1,1,-1,0.944336,-0.177246,0.227539,8.6875,3.125,5.25,-0.563748,-1.27178,0.127672
2834,-3,-2,-2,0,-1,-1,-1,-1,0.944336,-0.177246,0.227539,8.6875,3.125,5.25,-0.563748,-1.27178,0.127672
2847,-1,-1,-2,-1,-2,-1,0,-1,0.944336,-0.177246,0.227539,8.6875,3.125,5.25,-0.563748,-1.27178,0.127672
2847,0,1,-2,-3,-1,-1,-1,0,0.944336,-0.177246,0.227539,8.6875,3.125,5.25,-0.563748,-1.27178,0.127672
2850,0,-1,-1,0,-1,0,-1,0,0.949219,-0.168945,0.230957,4.9375,2.5625,4.3125,-0.566072,-1.27036,0.131719
2850,-1,0,-1,-1,-1,-1,-1,0,0.949219,-0.168945,0.230957,4.9375,2.5625,4.3125,-0.566072,-1.27036,0.131719
2871,0,-1,1,1,-2,-1,-2,-2,0.949219,-0.168945,0.230957,4.9375,2.5625,4.3125,-0.566072,-1.27036,0.131719
2871,-1,-5,-1,0,0,-1,-1,-1,0.949219,-0.168945,0.230957,4.9375,2.5625,4.3125,-0.566072,-1.27036,0.131719
2872,-1,4,-4,-4,-2,-2,-1,-2,0.954102,-0.163574,0.221191,2.3125,2,4.375,-0.569729,-1.2695,0.136308
2872,-1,-2,-3,-3,-2,0,0,-1,0.954102,-0.163574,0.221191,2.3125,2,4.375,-0.569729,-1.2695,0.136308
2884,0,-3,-1,0,1,0,0,0,0.954102,-0.163574,0.221191,2.3125,2,4.375,-0.569729,-1.2695,0.136308
2884,-1,-1,0,-1,-2,-1,-1,-1,0.954102,-0.163574,0.221191,2.3125,2,4.375,-0.569729,-1.2695,0.136308
2893,-1,0,-1,0,0,-1,1,-2,0.945312,-0.160156,0.214355,0.875,2,4.1875,-0.57349,-1.26861,0.140457
2893,-1,-2,1,-3,-1,-3,-1,-1,0.945312,-0.160156,0.214355,0.875,2,4.1875,-0.57349,-1.26861,0.140457
2908,-3,-1,-2,0,-1,-2,0,-2,0.945312,-0.160156,0.214355,0.875,2,4.1875,-0.57349,-1.26861,0.140457
2908,-1,-1,-1,1,-2,-1,0,0,0.945312,-0.160156,0.214355,0.875,2,4.1875,-0.57349,-1.26861,0.140457
2909,-2,-2,-1,-2,1,-1,-1,-2,0.945312,-0.161133,0.21582,0.6875,1.8125,4.25,-0.577808,-1.26808,0.144967
2909,1,-1,-3,0,-1,-3,-1,-2,0.945312,-0.161133,0.21582,0.6875,1.8125,4.25,-0.577808,-1.26808,0.144967
2929,0,-3,-1,-1,-1,-1,-2,0,0.945312,-0.161133,0.21582,0.6875,1.8125,4.25,-0.577808,-1.26808,0.144967
2929,-1,1,-1,-2,-1,1,-3,0,0.945312,-0.161133,0.21582,0.6875,1.8125,4.25,-0.577808,-1.26808,0.144967
2932,-1,-1,0,0,-1,-1,-1,1,0.949707,-0.157227,0.214844,0.4375,2.5,4.125,-0.581176,-1.26718,0.148582
2932,-1,-1,0,-1,1,-1,-2,-1,0.949707,-0.157227,0.214844,0.4375,2.5,4.125,-0.581176,-1.26718,0.148582
2943,-1,0,-1,-2,-3,0,-1,-2,0.949707,-0.157227,0.214844,0.4375,2.5,4.125,-0.581176,-1.26718,0.148582
2943,-1,-1,-2,-2,-2,-1,0,0,0.949707,-0.157227,0.214844,0.4375,2.5,4.125,-0.581176,-1.26718,0.148582
2953,0,-1,-1,-1,-1,-1,-1,-1,0.951172,-0.164551,0.222656,1.1875,2.5625,4.0625,-0.583862,-1.26603,0.151818
2953,0,-2,-1,-1,-1,1,-1,-1,0.951172,-0.164551,0.222656,1.1875,2.5625,4.0625,-0.583862,-1.26603,0.151818
2968,-2,-1,-1,0,-1,-2,-1,-1,0.951172,-0.164551,0.222656,1.1875,2.5625,4.0625,-0.583862,-1.26603,0.151818
2968,-2,-1,-1,1,0,-1,-1,-1,0.951172,-0.164551,0.222656,1.1875,2.5625,4.0625,-0.583862,-1.26603,0.151818
2974,0,-3,-2,1,-1,0,-3,0,0.955566,-0.160156,0.227051,1.375,2.6875,3.625,-0.585923,-1.26543,0.15437
2974,0,1,-2,0,-1,0,-1,-1,0.955566,-0.160156,0.227051,1.375,2.6875,3.625,-0.585923,-1.26543,0.15437
2997,-1,-2,-4,-5,-1,-2,-2,1,0.955566,-0.160156,0.227051,1.375,2.6875,3.625,-0.585923,-1.26543,0.15437
2997,0,-2,-1,-3,-2,0,1,0,0.955566,-0.160156,0.227051,1.375,2.6875,3.625,-0.585923,-1.26543,0.15437
3000,0,-3,-2,-2,0,-2,-1,0,0.955078,-0.162598,0.228516,0.5,2.0625,3.1875,-0.58815,-1.26459,0.156867
3000,-1,-2,0,0,1,-2,0,-1,0.955078,-0.162598,0.228516,0.5,2.0625,3.1875,-0.58815,-1.26459,0.156867
3004,1,0,-1,1,0,-1,-1,0,0.955078,-0.162598,0.228516,0.5,2.0625,3.1875,-0.58815,-1.26459,0.156867
3004,0,-2,-2,-4,-2,-2,-1,-1,0.955078,-0.162598,0.228516,0.5,2.0625,3.1875,-0.58815,-1.26459,0.156867
3013,1,-1,-1,-2,-1,-1,-1,-2,0.956543,-0.158203,0.230957,-0.0625,1.1875,2.75,-0.590103,-1.26414,0.158844
3013,-1,-1,1,0,-1,0,1,1,0.956543,-0.158203,0.230957,-0.0625,1.1875,2.75,-0.590103,-1.26414,0.158844
3028,-3,-3,0,2,-1,0,-2,-1,0.956543,-0.158203,0.230957,-0.0625,1.1875,2.75,-0.590103,-1.26414,0.158844
3028,-1,2,-6,-6,-3,-1,-1,0,0.956543,-0.158203,0.230957,-0.0625,1.1875,2.75,-0.590103,-1.26414,0.158844
3029,-1,-1,0,-1,-1,-2,0,-1,0.946777,-0.155762,0.229492,-1.125,0.75,2.625,-0.592778,-1.26418,0.161134
3029,0,0,-2,-3,-2,-1,-3,-1,0.946777,-0.155762,0.229492,-1.125,0.75,2.625,-0.592778,-1.26418,0.161134
3050,0,-5,-1,-1,1,-1,-1,-1,0.946777,-0.155762,0.229492,-1.125,0.75,2.625,-0.592778,-1.26418,0.161134
3050,-2,0,1,1,0,-1,-2,-1,0.946777,-0.155762,0.229492,-1.125,0.75,2.625,-0.592778,-1.26418,0.161134
3052,-2,1,0,0,-2,0,-1,1,0.944336,-0.150879,0.22998,-2.25,0.125,2.25,-0.595056,-1.26418,0.162745
3052,-2,0,-1,-2,-2,-1,-1,0,0.944336,-0.150879,0.22998,-2.25,0.125,2.25,-0.595056,-1.26418,0.162745
3073,-1,0,0,-1,-1,0,1,0,0.944336,-0.150879,0.22998,-2.25,0.125,2.25,-0.595056,-1.26418,0.162745
3073,-2,-2,4,0,-2,1,-2,-2,0.944336,-0.150879,0.22998,-2.25,0.125,2.25,-0.595056,-1.26418,0.162745
3074,-2,-1,0,-2,-1,0,0,-1,0.955078,-0.163574,0.230469,-2.8125,0,1.9375,-0.598228,-1.26419,0.16512
3074,0,-1,-4,-3,-1,-1,0,-2,0.955078,-0.163574,0.230469,-2.8125,0,1.9375,-0.598228,-1.26419,0.16512
3088,0,-1,-3,-2,0,-2,-2,0,0.955078,-0.163574,0.230469,-2.8125,0,1.9375,-0.598228,-1.26419,0.16512
3088,-1,-2,0,0,0,-1,-1,0,0.955078,-0.163574,0.230469,-2.8125,0,1.9375,-0.598228,-1.26419,0.16512
3089,-1,-2,1,2,-2,-3,-1,-1,0.957031,-0.166016,0.232422,-1.1875,-0.5625,1.375,-0.600431,-1.26426,0.167018
3089,1,0,1,1,-2,-2,0,-1,0.957031,-0.166016,0.232422,-1.1875,-0.5625,1.375,-0.600431,-1.26426,0.167018
3111,-1,0,0,0,-1,-1,-1,0,0.957031,-0.166016,0.232422,-1.1875,-0.5625,1.375,-0.600431,-1.26426,0.167018
3111,1,0,0,1,1,-2,0,-3,0.957031,-0.166016,0.232422,-1.1875,-0.5625,1.375,-0.600431,-1.26426,0.167018
3112,-2,-3,-3,-2,-1,0,-4,0,0.957031,-0.156738,0.233887,1.0625,-0.8125,1.3125,-0.601654,-1.2647,0.168683
3112,-3,-1,-1,-1,1,-2,0,-1,0.957031,-0.156738,0.233887,1.0625,-0.8125,1.3125,-0.601654,-1.2647,0.168683
3133,-1,0,-2,-1,-1,-3,0,-3,0.957031,-0.156738,0.233887,1.0625,-0.8125,1.3125,-0.601654,-1.2647,0.168683
3133,0,-1,-2,-2,-1,-1,-1,0,0.957031,-0.156738,0.233887,1.0625,-0.8125,1.3125,-0.601654,-1.2647,0.168683
3139,0,1,-1,-1,-2,-1,0,-1,0.955078,-0.146973,0.23584,0.3125,-1.1875,0.875,-0.60192,-1.26549,0.169127
3139,-1,-2,-1,0,-2,0,-1,-1,0.955078,-0.146973,0.23584,0.3125,-1.1875,0.875,-0.60192,-1.26549,0.169127
3148,1,0,0,0,0,0,0,-1,0.955078,-0.146973,0.23584,0.3125,-1.1875,0.875,-0.60192,-1.26549,0.169127
3148,1,-3,-2,-4,0,0,-1,-1,0.955078,-0.146973,0.23584,0.3125,-1.1875,0.875,-0.60192,-1.26549,0.169127
3150,-1,-2,-1,-1,1,-1,0,-1,0.964844,-0.144531,0.234863,-2,-0.8125,0.5625,-0.60225,-1.26606,0.168947
3150,-1,-2,-1,0,0,-2,-1,-1,0.964844,-0.144531,0.234863,-2,-0.8125,0.5625,-0.60225,-1.26606,0.168947
3171,-1,0,-2,-2,0,-1,0,-2,0.964844,-0.144531,0.234863,-2,-0.8125,0.5625,-0.60225,-1.26606,0.168947
3171,0,-1,0,1,0,-1,0,-3,0.964844,-0.144531,0.234863,-2,-0.8125,0.5625,-0.60225,-1.26606,0.168947
3172,0,-2,-1,0,-1,-3,-1,-1,0.955566,-0.145508,0.240234,-3.25,-1,0.5625,-0.60327,-1.26675,0.168971
3172,0,1,-1,0,0,0,0,-2,0.955566,-0.145508,0.240234,-3.25,-1,0.5625,-0.60327,-1.26675,0.168971
3193,-2,-1,2,-1,-2,-1,-2,-1,0.955566,-0.145508,0.240234,-3.25,-1,0.5625,-0.60327,-1.26675,0.168971
3193,-3,-2,-6,-3,-2,-1,-2,-1,0.955566,-0.145508,0.240234,-3.25,-1,0.5625,-0.60327,-1.26675,0.168971
3194,-1,-2,-1,-3,-1,0,-4,0,0.95459,-0.153809,0.239258,-2.9375,-1.1875,0.625,-0.60484,-1.26742,0.169532
3194,2,-2,-1,-1,-1,-2,-1,0,0.95459,-0.153809,0.239258,-2.9375,-1.1875,0.625,-0.60484,-1.26742,0.169532
3207,-1,-1,-1,-2,-1,-1,-1,-2,0.95459,-0.153809,0.239258,-2.9375,-1.1875,0.625,-0.60484,-1.26742,0.169532
3207,0,0,0,0,0,-1,0,0,0.95459,-0.153809,0.239258,-2.9375,-1.1875,0.625,-0.60484,-1.26742,0.169532
3214,-2,-1,0,1,-3,0,-1,0,0.950195,-0.150391,0.235352,-1.4375,-1.1875,0.0625,-0.605283,-1.26802,0.169678
3214,-1,1,-7,-3,0,-2,-1,-1,0.950195,-0.150391,0.235352,-1.4375,-1.1875,0.0625,-0.605283,-1.26802,0.169678
3230,-1,0,-1,-1,-1,-2,0,-1,0.950195,-0.150391,0.235352,-1.4375,-1.1875,0.0625,-0.605283,-1.26802,0.169678
3230,1,-1,0,0,-1,-3,1,-1,0.950195,-0.150391,0.235352,-1.4375,-1.1875,0.0625,-0.605283,-1.26802,0.169678
3231,-1,-1,0,-1,-1,-2,-1,-1,0.945801,-0.143066,0.243164,-0.625,-1.375,-0.5625,-0.603986,-1.26884,0.168234
3231,-2,-1,1,-2,0,-2,0,-2,0.945801,-0.143066,0.243164,-0.625,-1.375,-0.5625,-0.603986,-1.26884,0.168234
3253,-1,-2,-1,0,-1,-1,0,-2,0.945801,-0.143066,0.243164,-0.625,-1.375,-0.5625,-0.603986,-1.26884,0.168234
3253,-2,-1,0,-1,0,-2,-1,-2,0.945801,-0.143066,0.243164,-0.625,-1.375,-0.5625,-0.603986,-1.26884,0.168234
3254,-1,-2,1,1,0,1,0,-1,0.947754,-0.144531,0.237793,-1.5625,-1.375,-0.9375,-0.603362,-1.26991,0.167157
3254,0,0,-1,-1,-2,1,-1,0,0.947754,-0.144531,0.237793,-1.5625,-1.375,-0.9375,-0.603362,-1.26991,0.167157
3268,-1,-2,-3,-1,-1,-2,-2,0,0.947754,-0.144531,0.237793,-1.5625,-1.375,-0.9375,-0.603362,-1.26991,0.167157
3268,-1,-2,-2,0,-1,-1,-2,-1,0.947754,-0.144531,0.237793,-1.5625,-1.375,-0.9375,-0.603362,-1.26991,0.167157
3274,-1,-1,-1,-2,-2,-1,0,-2,0.945312,-0.149414,0.244629,-2.625,-1.875,-1.6875,-0.602612,-1.27099,0.165486
3274,-2,-1,0,-1,-2,-1,-2,-1,0.945312,-0.149414,0.244629,-2.625,-1.875,-1.6875,-0.602612,-1.27099,0.165486
3298,1,0,-2,0,-3,-1,-1,-2,0.945312,-0.149414,0.244629,-2.625,-1.875,-1.6875,-0.602612,-1.27099,0.165486
3298,-1,-2,0,0,-2,0,1,0,0.945312,-0.149414,0.244629,-2.625,-1.875,-1.6875,-0.602612,-1.27099,0.165486
3300,-1,-1,-2,-2,-2,-1,1,-1,0.941895,-0.154785,0.245605,-2.6875,-2.0625,-2.375,-0.60159,-1.27191,0.16355
3300,-1,-1,1,0,-1,-1,0,-1,0.941895,-0.154785,0.245605,-2.6875,-2.0625,-2.375,-0.60159,-1.27191,0.16355
3313,-1,-3,0,0,-2,0,0,1,0.941895,-0.154785,0.245605,-2.6875,-2.0625,-2.375,-0.60159,-1.27191,0.16355
3313,-1,0,-6,-3,-1,-3,-3,1,0.941895,-0.154785,0.245605,-2.6875,-2.0625,-2.375,-0.60159,-1.27191,0.16355
3315,-1,-2,-1,-4,-1,-1,-2,-1,0.93457,-0.157227,0.254395,-1.875,-3,-3.0625,-0.599925,-1.27293,0.161346
3315,0,6,0,-1,-1,0,-2,0,0.93457,-0.157227,0.254395,-1.875,-3,-3.0625,-0.599925,-1.27293,0.161346
3327,0,-1,0,-1,-1,-1,0,-2,0.93457,-0.157227,0.254395,-1.875,-3,-3.0625,-0.599925,-1.27293,0.161346
3327,-1,-1,0,1,-1,0,0,-3,0.93457,-0.157227,0.254395,-1.875,-3,-3.0625,-0.599925,-1.27293,0.161346
3334,-2,-1,-2,-2,0,-1,-1,-1,0.951172,-0.14502,0.235352,-1.4375,-3.1875,-4.125,-0.597783,-1.27528,0.158561
3334,0,-2,0,-1,0,-1,-1,-3,0.951172,-0.14502,0.235352,-1.4375,-3.1875,-4.125,-0.597783,-1.27528,0.158561
3350,-1,0,0,0,0,1,-1,0,0.951172,-0.14502,0.235352,-1.4375,-3.1875,-4.125,-0.597783,-1.27528,0.158561
3350,1,0,0,-1,0,-2,-1,-1,0.951172,-0.14502,0.235352,-1.4375,-3.1875,-4.125,-0.597783,-1.27528,0.158561
3352,1,0,-1,0,-1,0,-1,-1,0.946289,-0.138672,0.23584,-1.9375,-3.0625,-4.375,-0.594726,-1.27714,0.154809
3352,-2,-3,0,-2,-1,0,-2,-2,0.946289,-0.138672,0.23584,-1.9375,-3.0625,-4.375,-0.594726,-1.27714,0.154809
3373,-1,0,-1,-2,0,-1,0,-2,0.946289,-0.138672,0.23584,-1.9375,-3.0625,-4.375,-0.594726,-1.27714,0.154809
3373,-1,-2,-1,0,-1,-1,1,1,0.946289,-0.138672,0.23584,-1.9375,-3.0625,-4.375,-0.594726,-1.27714,0.154809
3374,-1,0,-1,-2,0,0,-2,0,0.941406,-0.137695,0.234375,-2.625,-3.0625,-4.5625,-0.591786,-1.27913,0.150949
3374,-1,-3,-1,-1,0,-1,0,-1,0.941406,-0.137695,0.234375,-2.625,-3.0625,-4.5625,-0.591786,-1.27913,0.150949
3387,0,0,0,1,0,-1,0,-2,0.941406,-0.137695,0.234375,-2.625,-3.0625,-4.5625,-0.591786,-1.27913,0.150949
3387,-1,-3,-3,-1,-1,0,-1,1,0.941406,-0.137695,0.234375,-2.625,-3.0625,-4.5625,-0.591786,-1.27913,0.150949
3394,-1,4,2,0,-2,-2,0,-2,0.937012,-0.141113,0.246094,-3.125,-2.5625,-4.5,-0.588387,-1.28076,0.146418
3394,-1,-2,-3,-3,0,1,-1,1,0.937012,-0.141113,0.246094,-3.125,-2.5625,-4.5,-0.588387,-1.28076,0.146418
3410,-1,-1,-2,-4,0,-3,-1,-2,0.937012,-0.141113,0.246094,-3.125,-2.5625,-4.5,-0.588387,-1.28076,0.146418
3410,-1,0,1,1,-2,1,-2,-1,0.937012,-0.141113,0.246094,-3.125,-2.5625,-4.5,-0.588387,-1.28076,0.146418
3412,-1,-6,-1,-2,-1,-2,-1,-2,0.933594,-0.143555,0.253906,-2.4375,-2.875,-4.8125,-0.584623,-1.28219,0.14171
3412,0,-2,-3,1,-1,-2,0,-1,0.933594,-0.143555,0.253906,-2.4375,-2.875,-4.8125,-0.584623,-1.28219,0.14171
3440,-3,-1,-2,-3,0,0,0,-1,0.933594,-0.143555,0.253906,-2.4375,-2.875,-4.8125,-0.584623,-1.28219,0.14171
3440,0,-1,-1,-1,-1,-2,0,-1,0.933594,-0.143555,0.253906,-2.4375,-2.875,-4.8125,-0.584623,-1.28219,0.14171
3441,-3,-1,0,-1,1,0,-1,-2,0.924316,-0.133301,0.290039,-2.375,-2.875,-4.4375,-0.578815,-1.28281,0.135261
3441,0,-3,3,1,0,-2,-2,-1,0.924316,-0.133301,0.290039,-2.375,-2.875,-4.4375,-0.578815,-1.28281,0.135261
3447,-1,-3,-5,-3,-2,-1,-2,0,0.924316,-0.133301,0.290039,-2.375,-2.875,-4.4375,-0.578815,-1.28281,0.135261
3447,-1,1,-1,-2,-1,1,1,-1,0.924316,-0.133301,0.290039,-2.375,-2.875,-4.4375,-0.578815,-1.28281,0.135261
3453,1,-2,-1,2,0,0,0,-2,0.916992,-0.147949,0.321289,-2.5,-3.75,-4.125,-0.573794,-1.28283,0.129437
3453,-3,-1,-3,-1,-2,-3,-1,-1,0.916992,-0.147949,0.321289,-2.5,-3.75,-4.125,-0.573794,-1.28283,0.129437
3471,-1,-2,2,2,-1,1,-1,-2,0.916992,-0.147949,0.321289,-2.5,-3.75,-4.125,-0.573794,-1.28283,0.129437
3471,-3,0,2,-1,0,-1,-1,-2,0.916992,-0.147949,0.321289,-2.5,-3.75,-4.125,-0.573794,-1.28283,0.129437
3472,-1,-1,-1,-1,1,-1,-1,-1,0.901855,-0.161621,0.362305,1.5,-5.0625,-4,-0.567463,-1.28221,0.123748
3472,-1,2,0,-1,-1,0,-2,-1,0.901855,-0.161621,0.362305,1.5,-5.0625,-4,-0.567463,-1.28221,0.123748
3493,0,-5,-4,-1,-1,0,-1,1,0.901855,-0.161621,0.362305,1.5,-5.0625,-4,-0.567463,-1.28221,0.123748
3493,0,-1,-1,-2,-1,-2,0,0,0.901855,-0.161621,0.362305,1.5,-5.0625,-4,-0.567463,-1.28221,0.123748
3495,-1,-1,-4,0,-1,-2,-1,-1,0.88916,-0.181152,0.397461,8.5,-6.375,-5.0625,-0.558323,-1.28079,0.117787
3495,0,-1,0,-1,-1,-1,-1,-1,0.88916,-0.181152,0.397461,8.5,-6.375,-5.0625,-0.558323,-1.28079,0.117787
3507,0,0,-1,-2,-2,-2,-1,0,0.88916,-0.181152,0.397461,8.5,-6.375,-5.0625,-0.558323,-1.28079,0.117787
3507,-2,-2,-2,0,-1,0,-2,-3,0.88916,-0.181152,0.397461,8.5,-6.375,-5.0625,-0.558323,-1.28079,0.117787
3514,-1,-1,-2,0,-1,-1,-1,1,0.867676,-0.188965,0.412598,15.1875,-6.375,-7,-0.545227,-1.2796,0.110135
3514,-1,-2,0,0,-1,0,0,0,0.867676,-0.188965,0.412598,15.1875,-6.375,-7,-0.545227,-1.2796,0.110135
3538,-2,-3,-2,-1,-1,-1,-1,-1,0.867676,-0.188965,0.412598,15.1875,-6.375,-7,-0.545227,-1.2796,0.110135
3538,0,7,7,-2,0,0,-1,1,0.867676,-0.188965,0.412598,15.1875,-6.375,-7,-0.545227,-1.2796,0.110135
3540,1,-1,-6,0,-2,-1,-1,-1,0.803223,-0.148438,0.413574,18.3125,-4.25,-9.0625,-0.525612,-1.27804,0.0967903
3540,-3,-1,-1,-1,0,0,-2,-1,0.803223,-0.148438,0.413574,18.3125,-4.25,-9.0625,-0.525612,-1.27804,0.0967903
3553,-1,1,3,2,1,-1,0,-1,0.803223,-0.148438,0.413574,18.3125,-4.25,-9.0625,-0.525612,-1.27804,0.0967903
3553,-2,-4,-3,-3,0,-2,-3,0,0.803223,-0.148438,0.413574,18.3125,-4.25,-9.0625,-0.525612,-1.27804,0.0967903
3559,-2,1,-4,-2,-3,1,0,-1,0.724609,-0.137695,0.429688,18.625,-3.5625,-10.625,-0.503074,-1.27584,0.0806865
3559,-1,0,3,-1,-2,1,1,-1,0.724609,-0.137695,0.429688,18.625,-3.5625,-10.625,-0.503074,-1.27584,0.0806865
3575,-1,-1,-2,-4,-3,-2,0,-1,0.724609,-0.137695,0.429688,18.625,-3.5625,-10.625,-0.503074,-1.27584,0.0806865
3575,0,-3,-2,1,3,0,1,0,0.724609,-0.137695,0.429688,18.625,-3.5625,-10.625,-0.503074,-1.27584,0.0806865
3583,-3,-1,1,1,-1,-1,-1,0,0.694336,-0.160645,0.429199,20.875,-4.75,-9.75,-0.4834,-1.27298,0.0683279
3583,0,-2,-2,-1,1,-2,-1,0,0.694336,-0.160645,0.429199,20.875,-4.75,-9.75,-0.4834,-1.27298,0.0683279
3590,-2,1,3,-1,0,-2,-2,-1,0.694336,-0.160645,0.429199,20.875,-4.75,-9.75,-0.4834,-1.27298,0.0683279
3590,0,-2,-2,-2,0,-2,-2,0,0.694336,-0.160645,0.429199,20.875,-4.75,-9.75,-0.4834,-1.27298,0.0683279
3592,-1,-1,0,-2,-2,-2,-2,-1,0.704102,-0.156738,0.393066,23.6875,-4.0625,-10.25,-0.463869,-1.27121,0.0566947
3592,-1,-2,-3,-1,-1,-1,-1,-1,0.704102,-0.156738,0.393066,23.6875,-4.0625,-10.25,-0.463869,-1.27121,0.0566947
3612,1,0,-1,-1,-1,0,-1,-2,0.704102,-0.156738,0.393066,23.6875,-4.0625,-10.25,-0.463869,-1.27121,0.0566947
3612,0,0,-1,1,-1,0,0,0,0.704102,-0.156738,0.393066,23.6875,-4.0625,-10.25,-0.463869,-1.27121,0.0566947
3614,-2,-1,-2,0,0,0,-1,0,0.696289,-0.170898,0.396484,26.8125,-2.9375,-10.8125,-0.443587,-1.26866,0.0454825
3614,0,1,-1,-3,-1,-2,0,0,0.696289,-0.170898,0.396484,26.8125,-2.9375,-10.8125,-0.443587,-1.26866,0.0454825
3627,-2,-1,-4,-4,-1,0,-2,-1,0.696289,-0.170898,0.396484,26.8125,-2.9375,-10.8125,-0.443587,-1.26866,0.0454825
3627,-1,-6,-1,-4,-2,-3,-1,-1,0.696289,-0.170898,0.396484,26.8125,-2.9375,-10.8125,-0.443587,-1.26866,0.0454825
3643,0,1,0,-2,-2,-1,-2,-1,0.718262,-0.186035,0.386719,29,-4.3125,-9.8125,-0.426011,-1.26684,0.0375774
3643,0,-2,-4,-2,-1,-1,-1,-1,0.718262,-0.186035,0.386719,29,-4.3125,-9.8125,-0.426011,-1.26684,0.0375774
3650,-1,-1,-3,-2,1,1,0,-2,0.718262,-0.186035,0.386719,29,-4.3125,-9.8125,-0.426011,-1.26684,0.0375774
3650,-3,-2,1,0,-3,-1,0,-3,0.718262,-0.186035,0.386719,29,-4.3125,-9.8125,-0.426011,-1.26684,0.0375774
3651,-3,-1,1,-2,0,-2,-1,-1,0.788086,-0.18457,0.358398,28.25,-4.375,-11.25,-0.408865,-1.26612,0.0297741
3651,-1,-1,0,-1,0,-1,-2,0,0.788086,-0.18457,0.358398,28.25,-4.375,-11.25,-0.408865,-1.26612,0.0297741
3672,-1,1,6,2,0,0,-1,2,0.788086,-0.18457,0.358398,28.25,-4.375,-11.25,-0.408865,-1.26612,0.0297741
3672,0,2,-8,-1,0,0,2,-2,0.788086,-0.18457,0.358398,28.25,-4.375,-11.25,-0.408865,-1.26612,0.0297741
3674,0,-1,2,0,0,-1,-1,-2,0.831543,-0.186035,0.334473,20.375,-1.75,-14.1875,-0.391866,-1.26586,0.0190851
3674,-1,-2,-1,0,-2,1,0,-3,0.831543,-0.186035,0.334473,20.375,-1.75,-14.1875,-0.391866,-1.26586,0.0190851
3686,1,-3,-1,-4,-2,-2,-2,-7,0.831543,-0.186035,0.334473,20.375,-1.75,-14.1875,-0.391866,-1.26586,0.0190851
3686,0,-1,0,2,-3,-1,-2,3,0.831543,-0.186035,0.334473,20.375,-1.75,-14.1875,-0.391866,-1.26586,0.0190851
3695,0,2,-1,-2,-2,-1,0,1,0.842285,-0.160156,0.285156,6.125,1.5,-16.3125,-0.376042,-1.26608,0.00439407
3695,-2,-3,-2,-1,-2,0,0,-4,0.842285,-0.160156,0.285156,6.125,1.5,-16.3125,-0.376042,-1.26608,0.00439407
3710,-1,-4,-3,2,2,-1,0,5,0.842285,-0.160156,0.285156,6.125,1.5,-16.3125,-0.376042,-1.26608,0.00439407
3710,0,3,-1,-1,-2,-2,-1,-2,0.842285,-0.160156,0.285156,6.125,1.5,-16.3125,-0.376042,-1.26608,0.00439407
3712,-1,0,-6,1,1,0,0,-1,0.799316,-0.123047,0.250977,-9.5625,5.6875,-17.0625,-0.361335,-1.26579,-0.0147631
3712,-1,-2,5,0,-1,-2,-1,0,0.799316,-0.123047,0.250977,-9.5625,5.6875,-17.0625,-0.361335,-1.26579,-0.0147631
3733,0,0,-1,0,-2,-1,0,0,0.799316,-0.123047,0.250977,-9.5625,5.6875,-17.0625,-0.361335,-1.26579,-0.0147631
3733,-3,-2,1,-2,0,-1,0,-4,0.799316,-0.123047,0.250977,-9.5625,5.6875,-17.0625,-0.361335,-1.26579,-0.0147631
3734,0,-4,0,-3,0,-1,0,0,0.719727,-0.117676,0.23584,-14.6875,6.375,-14.625,-0.35132,-1.2646,-0.0307698
3734,0,0,-3,-2,1,-1,-1,1,0.719727,-0.117676,0.23584,-14.6875,6.375,-14.625,-0.35132,-1.2646,-0.0307698
3746,1,2,-2,0,-2,0,0,3,0.719727,-0.117676,0.23584,-14.6875,6.375,-14.625,-0.35132,-1.2646,-0.0307698
3746,0,1,1,2,-1,0,-1,-3,0.719727,-0.117676,0.23584,-14.6875,6.375,-14.625,-0.35132,-1.2646,-0.0307698
3755,-1,-3,-3,-2,-1,-1,0,-1,0.719238,-0.0795898,0.16748,-15.625,8.3125,-12.0625,-0.342626,-1.2644,-0.0458279
3755,0,3,1,1,0,-1,-1,1,0.719238,-0.0795898,0.16748,-15.625,8.3125,-12.0625,-0.342626,-1.2644,-0.0458279
3770,-5,-6,-1,-2,-2,-2,-3,-7,0.719238,-0.0795898,0.16748,-15.625,8.3125,-12.0625,-0.342626,-1.2644,-0.0458279
3770,-1,1,1,1,0,1,-1,-1,0.719238,-0.0795898,0.16748,-15.625,8.3125,-12.0625,-0.342626,-1.2644,-0.0458279
3771,0,0,-9,-3,-1,0,0,1,0.724609,-0.074707,0.183594,-18.625,11.75,-12.375,-0.332936,-1.26252,-0.0628162
3771,0,-2,12,-2,-3,-1,1,-1,0.724609,-0.074707,0.183594,-18.625,11.75,-12.375,-0.332936,-1.26252,-0.0628162
3792,1,7,-11,-3,0,0,-1,-1,0.724609,-0.074707,0.183594,-18.625,11.75,-12.375,-0.332936,-1.26252,-0.0628162
3792,-1,-1,-6,-5,-2,-1,-2,-1,0.724609,-0.074707,0.183594,-18.625,11.75,-12.375,-0.332936,-1.26252,-0.0628162
3794,-2,-4,3,-1,0,-2,-1,1,0.804688,-0.109375,0.176758,-20.5,11.625,-11.0625,-0.328239,-1.26116,-0.0756505
3794,-2,5,2,0,-1,-1,-1,-4,0.804688,-0.109375,0.176758,-20.5,11.625,-11.0625,-0.328239,-1.26116,-0.0756505
3806,1,5,3,3,-1,0,0,0,0.804688,-0.109375,0.176758,-20.5,11.625,-11.0625,-0.328239,-1.26116,-0.0756505
3806,0,-8,2,-2,0,0,0,2,0.804688,-0.109375,0.176758,-20.5,11.625,-11.0625,-0.328239,-1.26116,-0.0756505
3815,-1,6,7,0,-2,-1,0,-4,0.925293,-0.138184,0.193848,-18.25,9.9375,-10.3125,-0.326122,-1.26086,-0.0851915
3815,1,-2,-22,3,0,0,-2,0,0.925293,-0.138184,0.193848,-18.25,9.9375,-10.3125,-0.326122,-1.26086,-0.0851915
3830,4,2,22,-2,1,-1,1,2,0.925293,-0.138184,0.193848,-18.25,9.9375,-10.3125,-0.326122,-1.26086,-0.0851915
3830,-1,10,0,-1,-2,-3,-3,-3,0.925293,-0.138184,0.193848,-18.25,9.9375,-10.3125,-0.326122,-1.26086,-0.0851915
3831,-5,-12,-1,-2,-2,-2,-4,-2,1.00488,-0.135742,0.179688,-15.25,10.9375,-15.8125,-0.317132,-1.26105,-0.100621
3831,0,2,-2,0,-1,0,3,13,1.00488,-0.135742,0.179688,-15.25,10.9375,-15.8125,-0.317132,-1.26105,-0.100621
3854,-2,-5,-1,2,-1,-1,-6,-27,1.00488,-0.135742,0.179688,-15.25,10.9375,-15.8125,-0.317132,-1.26105,-0.100621
3854,6,19,10,1,-1,1,0,-1,1.00488,-0.135742,0.179688,-15.25,10.9375,-15.8125,-0.317132,-1.26105,-0.100621
3854,-2,-16,6,1,1,0,2,-1,0.985352,-0.0717773,0.168945,-21.4375,15.875,-21.9375,-0.298019,-1.26121,-0.128688
3854,-3,2,-23,-5,0,1,-2,-5,0.985352,-0.0717773,0.168945,-21.4375,15.875,-21.9375,-0.298019,-1.26121,-0.128688
3866,-5,1,3,-2,0,-2,1,5,0.985352,-0.0717773,0.168945,-21.4375,15.875,-21.9375,-0.298019,-1.26121,-0.128688
3866,-1,1,-29,0,0,2,1,-9,0.985352,-0.0717773,0.168945,-21.4375,15.875,-21.9375,-0.298019,-1.26121,-0.128688
3881,0,11,60,2,-1,-5,-4,-3,0.897949,-0.0390625,0.134766,-31.5625,18.8125,-24.0625,-0.278349,-1.26065,-0.160863
3881,-5,-10,-24,0,1,-2,-1,-1,0.897949,-0.0390625,0.134766,-31.5625,18.8125,-24.0625,-0.278349,-1.26065,-0.160863
3889,-3,-5,1,-4,-1,-2,0,4,0.897949,-0.0390625,0.134766,-31.5625,18.8125,-24.0625,-0.278349,-1.26065,-0.160863
3889,5,9,-1,4,3,0,1,1,0.897949,-0.0390625,0.134766,-31.5625,18.8125,-24.0625,-0.278349,-1.26065,-0.160863
3896,1,4,-21,-1,1,1,2,3,0.785645,0.00537109,0.103516,-37.75,22.375,-22.6875,-0.259209,-1.25914,-0.194692
3896,-5,-9,15,-4,-3,-1,0,-8,0.785645,0.00537109,0.103516,-37.75,22.375,-22.6875,-0.259209,-1.25914,-0.194692
3913,1,6,-8,-3,-3,-3,-5,-1,0.785645,0.00537109,0.103516,-37.75,22.375,-22.6875,-0.259209,-1.25914,-0.194692
3913,1,-12,1,-1,-2,0,-1,5,0.785645,0.00537109,0.103516,-37.75,22.375,-22.6875,-0.259209,-1.25914,-0.194692
3914,4,8,-16,0,0,1,3,17,0.687988,0.0737305,0.104004,-42.8125,30.75,-20.1875,-0.237444,-1.25364,-0.232524
3914,5,6,13,3,0,1,-6,-26,0.687988,0.0737305,0.104004,-42.8125,30.75,-20.1875,-0.237444,-1.25364,-0.232524
3926,-11,10,-19,3,-2,-2,4,-22,0.687988,0.0737305,0.104004,-42.8125,30.75,-20.1875,-0.237444,-1.25364,-0.232524
3926,2,-17,6,-5,-2,-4,-6,11,0.687988,0.0737305,0.104004,-42.8125,30.75,-20.1875,-0.237444,-1.25364,-0.232524
3935,-5,-12,-6,-4,-2,-3,-4,-8,0.639648,0.0834961,0.157715,-45.1875,32.5625,-14.75,-0.221332,-1.2456,-0.265059
3935,0,2,-15,-4,-1,-3,-2,11,0.639648,0.0834961,0.157715,-45.1875,32.5625,-14.75,-0.221332,-1.2456,-0.265059
3949,-4,-9,4,-5,-2,0,-1,-2,0.639648,0.0834961,0.157715,-45.1875,32.5625,-14.75,-0.221332,-1.2456,-0.265059
3949,-4,-17,1,-1,-1,-2,0,4,0.639648,0.0834961,0.157715,-45.1875,32.5625,-14.75,-0.221332,-1.2456,-0.265059
3956,6,30,9,2,-1,-1,0,-15,0.650391,0.0693359,0.186035,-42.0625,32.9375,-8.9375,-0.211893,-1.2365,-0.289722
3956,-13,-55,-18,-2,-2,-1,0,-2,0.650391,0.0693359,0.186035,-42.0625,32.9375,-8.9375,-0.211893,-1.2365,-0.289722
3973,-4,-24,23,1,-2,-1,-2,3,0.650391,0.0693359,0.186035,-42.0625,32.9375,-8.9375,-0.211893,-1.2365,-0.289722
3973,-9,-2,11,-8,-5,-4,-3,-3,0.650391,0.0693359,0.186035,-42.0625,32.9375,-8.9375,-0.211893,-1.2365,-0.289722
3976,6,8,-6,2,1,-1,-1,1,0.682617,0.0996094,0.227539,-37.125,38.0625,-7.875,-0.199237,-1.22511,-0.315725
3976,4,5,28,-1,0,-1,0,1,0.682617,0.0996094,0.227539,-37.125,38.0625,-7.875,-0.199237,-1.22511,-0.315725
3995,4,0,-28,-4,-2,-1,0,10,0.682617,0.0996094,0.227539,-37.125,38.0625,-7.875,-0.199237,-1.22511,-0.315725
3995,-1,10,8,3,-2,-1,-1,-13,0.682617,0.0996094,0.227539,-37.125,38.0625,-7.875,-0.199237,-1.22511,-0.315725
3997,-8,-32,-13,-4,-3,-2,-1,4,0.763184,0.0522461,0.262695,-47.3125,41.625,-10,-0.191382,-1.21228,-0.340645
3997,3,6,11,0,1,1,0,8,0.763184,0.0522461,0.262695,-47.3125,41.625,-10,-0.191382,-1.21228,-0.340645
4009,-5,-2,1,-2,0,0,1,1,0.763184,0.0522461,0.262695,-47.3125,41.625,-10,-0.191382,-1.21228,-0.340645
4009,2,4,-6,-2,1,0,-2,-14,0.763184,0.0522461,0.262695,-47.3125,41.625,-10,-0.191382,-1.21228,-0.340645
4016,-4,7,-4,-4,-2,-1,-6,-22,0.81543,-0.0297852,0.308594,-53.375,41,-4.1875,-0.197205,-1.19872,-0.354155
4016,2,13,2,1,-1,-1,2,-3,0.81543,-0.0297852,0.308594,-53.375,41,-4.1875,-0.197205,-1.19872,-0.354155
4033,5,10,7,0,-1,-1,1,7,0.81543,-0.0297852,0.308594,-53.375,41,-4.1875,-0.197205,-1.19872,-0.354155
4033,2,12,-19,-2,-1,0,5,82,0.81543,-0.0297852,0.308594,-53.375,41,-4.1875,-0.197205,-1.19872,-0.354155
4035,-8,-20,-6,-2,-2,0,2,17,0.910645,-0.0610352,0.354004,-37.375,31.8125,-4.6875,-0.199989,-1.18845,-0.365046
4035,8,6,6,2,0,-3,-6,-13,0.910645,-0.0610352,0.354004,-37.375,31.8125,-4.6875,-0.199989,-1.18845,-0.365046
4055,2,2,-44,0,0,-1,-2,-9,0.910645,-0.0610352,0.354004,-37.375,31.8125,-4.6875,-0.199989,-1.18845,-0.365046
4055,-4,1,10,1,-1,-2,-1,-12,0.910645,-0.0610352,0.354004,-37.375,31.8125,-4.6875,-0.199989,-1.18845,-0.365046
4056,-2,-5,-6,0,1,0,1,6,1.12646,-0.0551758,0.404297,-21.25,30.875,-10.25,-0.191934,-1.17975,-0.381494
4056,-1,4,3,-4,-3,-1,0,12,1.12646,-0.0551758,0.404297,-21.25,30.875,-10.25,-0.191934,-1.17975,-0.381494
4070,5,-21,7,2,0,-1,-2,-6,1.12646,-0.0551758,0.404297,-21.25,30.875,-10.25,-0.191934,-1.17975,-0.381494
4070,-6,20,0,-1,1,2,1,-15,1.12646,-0.0551758,0.404297,-21.25,30.875,-10.25,-0.191934,-1.17975,-0.381494
4085,-2,-17,-30,-2,-1,1,-1,-1,1.17529,-0.0400391,0.41748,-18.375,34.0625,-13.5,-0.179949,-1.17066,-0.401029
4085,-3,10,1,-1,0,1,1,-10,1.17529,-0.0400391,0.41748,-18.375,34.0625,-13.5,-0.179949,-1.17066,-0.401029
4092,0,-12,6,0,-1,0,-1,3,1.17529,-0.0400391,0.41748,-18.375,34.0625,-13.5,-0.179949,-1.17066,-0.401029
4092,1,-7,-5,-2,-1,-3,-2,-12,1.17529,-0.0400391,0.41748,-18.375,34.0625,-13.5,-0.179949,-1.17066,-0.401029
4094,-3,-2,4,-2,-4,-3,-4,-19,1.09961,-0.000488281,0.412598,-14.8125,27.9375,-11.8125,-0.167287,-1.16329,-0.419645
4094,2,18,0,1,0,-1,2,6,1.09961,-0.000488281,0.412598,-14.8125,27.9375,-11.8125,-0.167287,-1.16329,-0.419645
4114,0,11,8,-1,0,-2,-1,6,1.09961,-0.000488281,0.412598,-14.8125,27.9375,-11.8125,-0.167287,-1.16329,-0.419645
4114,-2,-5,-1,0,-2,-2,-3,-9,1.09961,-0.000488281,0.412598,-14.8125,27.9375,-11.8125,-0.167287,-1.16329,-0.419645
4122,1,16,0,-1,0,1,0,0,1.125,0.0214844,0.38916,-14.25,20.4375,-10.5625,-0.15634,-1.15945,-0.436195
4122,-1,-14,-4,-1,-1,-1,-1,4,1.125,0.0214844,0.38916,-14.25,20.4375,-10.5625,-0.15634,-1.15945,-0.436195
4129,-7,0,-3,-4,-1,-1,-2,3,1.125,0.0214844,0.38916,-14.25,20.4375,-10.5625,-0.15634,-1.15945,-0.436195
4129,10,-8,2,1,-2,0,-1,-6,1.125,0.0214844,0.38916,-14.25,20.4375,-10.5625,-0.15634,-1.15945,-0.436195
4136,5,3,4,1,0,1,4,0,1.18115,0.0239258,0.351074,-19,19.6875,-10.625,-0.147536,-1.15692,-0.452092
4136,-40,-10,-5,-2,-2,-4,-10,-11,1.18115,0.0239258,0.351074,-19,19.6875,-10.625,-0.147536,-1.15692,-0.452092
4152,10,1,6,2,1,-1,-2,-5,1.18115,0.0239258,0.351074,-19,19.6875,-10.625,-0.147536,-1.15692,-0.452092
4152,-26,-20,-8,-4,-2,-2,-2,-10,1.18115,0.0239258,0.351074,-19,19.6875,-10.625,-0.147536,-1.15692,-0.452092
4154,0,5,6,5,-1,0,0,7,1.21826,0.0444336,0.352051,-11.5625,20.3125,-8.75,-0.136997,-1.15488,-0.467093
4154,20,7,13,8,-4,3,4,2,1.21826,0.0444336,0.352051,-11.5625,20.3125,-8.75,-0.136997,-1.15488,-0.467093
4175,-7,7,7,2,1,-3,-2,-2,1.21826,0.0444336,0.352051,-11.5625,20.3125,-8.75,-0.136997,-1.15488,-0.467093
4175,10,-3,-24,-21,0,-1,-1,-1,1.21826,0.0444336,0.352051,-11.5625,20.3125,-8.75,-0.136997,-1.15488,-0.467093
4176,6,5,0,1,0,-1,-1,0,1.30811,0.0874023,0.339844,3.625,21.1875,-8.5625,-0.119178,-1.15374,-0.483905
4176,2,-7,-8,-6,-2,-3,-1,3,1.30811,0.0874023,0.339844,3.625,21.1875,-8.5625,-0.119178,-1.15374,-0.483905
4189,1,-3,8,6,-3,-2,4,-5,1.30811,0.0874023,0.339844,3.625,21.1875,-8.5625,-0.119178,-1.15374,-0.483905
4189,-8,0,18,19,0,-1,-6,-10,1.30811,0.0874023,0.339844,3.625,21.1875,-8.5625,-0.119178,-1.15374,-0.483905
4196,-11,-11,12,-7,-4,-3,0,-5,1.40967,0.166016,0.25293,-0.0625,28.625,-8.4375,-0.0986366,-1.15306,-0.50432
4196,5,-1,-5,-3,-6,-5,-4,-1,1.40967,0.166016,0.25293,-0.0625,28.625,-8.4375,-0.0986366,-1.15306,-0.50432
4212,-8,-10,-25,-21,0,-1,-1,1,1.40967,0.166016,0.25293,-0.0625,28.625,-8.4375,-0.0986366,-1.15306,-0.50432
4212,11,-3,-5,2,2,0,-7,-1,1.40967,0.166016,0.25293,-0.0625,28.625,-8.4375,-0.0986366,-1.15306,-0.50432
4214,8,14,6,3,-1,0,-6,0,1.38428,0.118652,0.284668,-11.375,31.4375,1.25,-0.0925294,-1.14984,-0.513734
4214,-3,6,24,35,-1,0,0,2,1.38428,0.118652,0.284668,-11.375,31.4375,1.25,-0.0925294,-1.14984,-0.513734
4235,-7,2,48,16,1,-3,-9,1,1.38428,0.118652,0.284668,-11.375,31.4375,1.25,-0.0925294,-1.14984,-0.513734
4235,2,-10,-76,-67,-4,0,6,3,1.38428,0.118652,0.284668,-11.375,31.4375,1.25,-0.0925294,-1.14984,-0.513734
4237,1,-8,-14,-6,0,-1,-2,-3,1.30811,0.0620117,0.30957,-11.9375,32.4375,10.625,-0.0969606,-1.14488,-0.512422
4237,13,0,-18,-23,1,3,11,2,1.30811,0.0620117,0.30957,-11.9375,32.4375,10.625,-0.0969606,-1.14488,-0.512422
4250,3,4,7,14,-4,-2,-3,6,1.30811,0.0620117,0.30957,-11.9375,32.4375,10.625,-0.0969606,-1.14488,-0.512422
4250,3,0,34,29,4,-1,1,4,1.30811,0.0620117,0.30957,-11.9375,32.4375,10.625,-0.0969606,-1.14488,-0.512422
4258,-3,0,-5,-9,-3,-2,-2,0,1.21045,0.0205078,0.371582,-12.8125,35.1875,18.6875,-0.109258,-1.13632,-0.503045
4258,0,-2,-3,4,1,0,-18,0,1.21045,0.0205078,0.371582,-12.8125,35.1875,18.6875,-0.109258,-1.13632,-0.503045
4288,-1,3,-1,0,-1,3,22,21,1.21045,0.0205078,0.371582,-12.8125,35.1875,18.6875,-0.109258,-1.13632,-0.503045
4288,-9,-7,10,4,-2,0,25,5,1.21045,0.0205078,0.371582,-12.8125,35.1875,18.6875,-0.109258,-1.13632,-0.503045
4289,1,-2,-10,-2,0,0,0,-4,1.15967,-0.153809,0.496094,-4.0625,35.25,30.4375,-0.134725,-1.12371,-0.477457
4289,-3,5,5,-1,0,-2,5,11,1.15967,-0.153809,0.496094,-4.0625,35.25,30.4375,-0.134725,-1.12371,-0.477457
4296,-2,-2,-11,-6,3,8,6,-47,1.15967,-0.153809,0.496094,-4.0625,35.25,30.4375,-0.134725,-1.12371,-0.477457
4296,7,19,17,-2,-2,-8,-9,10,1.15967,-0.153809,0.496094,-4.0625,35.25,30.4375,-0.134725,-1.12371,-0.477457
4297,20,7,57,7,1,9,16,103,1.15723,-0.128906,0.634766,17.875,41.25,22.25,-0.142318,-1.10687,-0.462444
4297,-27,-54,1,-6,1,-2,3,-38,1.15723,-0.128906,0.634766,17.875,41.25,22.25,-0.142318,-1.10687,-0.462444
4309,18,42,-12,-13,-11,-19,-21,-57,1.15723,-0.128906,0.634766,17.875,41.25,22.25,-0.142318,-1.10687,-0.462444
4309,-28,-2,-19,2,-9,-10,-5,-4,1.15723,-0.128906,0.634766,17.875,41.25,22.25,-0.142318,-1.10687,-0.462444
4318,-5,5,-18,-1,-3,-10,-10,-47,1.00146,-0.0239258,0.664551,11.875,43.75,21.3125,-0.144442,-1.08766,-0.454557
4318,-36,-20,-23,-8,-2,-2,1,-17,1.00146,-0.0239258,0.664551,11.875,43.75,21.3125,-0.144442,-1.08766,-0.454557
4333,-11,23,-42,-4,3,6,-28,-2,1.00146,-0.0239258,0.664551,11.875,43.75,21.3125,-0.144442,-1.08766,-0.454557
4333,18,-10,-3,13,3,-2,-5,5,1.00146,-0.0239258,0.664551,11.875,43.75,21.3125,-0.144442,-1.08766,-0.454557
4335,-20,-20,-25,-4,-2,-9,-21,-57,0.865234,-0.0913086,0.65918,-18.625,36.5,23.125,-0.161346,-1.06977,-0.442548
4335,21,18,10,-8,-4,18,-15,42,0.865234,-0.0913086,0.65918,-18.625,36.5,23.125,-0.161346,-1.06977,-0.442548
4355,45,-10,5,4,5,1,18,25,0.865234,-0.0913086,0.65918,-18.625,36.5,23.125,-0.161346,-1.06977,-0.442548
4355,19,28,6,-1,-2,4,-4,10,0.865234,-0.0913086,0.65918,-18.625,36.5,23.125,-0.161346,-1.06977,-0.442548
4362,-89,-16,0,0,-1,-7,-3,-42,0.799316,-0.342285,0.647461,-23.9375,17.4375,33.125,-0.198897,-1.05638,-0.412049
4362,2,-20,-21,1,1,-8,18,1,0.799316,-0.342285,0.647461,-23.9375,17.4375,33.125,-0.198897,-1.05638,-0.412049
4368,-5,3,40,1,-2,-2,-69,16,0.799316,-0.342285,0.647461,-23.9375,17.4375,33.125,-0.198897,-1.05638,-0.412049
4368,39,-4,66,9,3,10,54,-9,0.799316,-0.342285,0.647461,-23.9375,17.4375,33.125,-0.198897,-1.05638,-0.412049
4383,46,4,-39,-6,-1,-1,-6,26,0.854492,-0.375977,0.615234,25.75,6,27.4375,-0.217182,-1.04832,-0.383817
4383,45,24,-1,1,-1,-3,2,12,0.854492,-0.375977,0.615234,25.75,6,27.4375,-0.217182,-1.04832,-0.383817
4407,-104,-37,-10,-8,-4,-1,2,-20,0.854492,-0.375977,0.615234,25.75,6,27.4375,-0.217182,-1.04832,-0.383817
4407,4,-6,11,3,2,3,-21,7,0.854492,-0.375977,0.615234,25.75,6,27.4375,-0.217182,-1.04832,-0.383817
4409,63,21,14,14,4,7,6,6,0.772949,-0.279785,0.540039,57.5,4.125,19,-0.215731,-1.04259,-0.364663
4409,-48,-12,14,-11,-13,-12,-6,-20,0.772949,-0.279785,0.540039,57.5,4.125,19,-0.215731,-1.04259,-0.364663
4416,8,-13,-38,-22,-5,-12,9,15,0.772949,-0.279785,0.540039,57.5,4.125,19,-0.215731,-1.04259,-0.364663
4416,-40,-3,-7,11,3,0,-12,-12,0.772949,-0.279785,0.540039,57.5,4.125,19,-0.215731,-1.04259,-0.364663
4417,20,5,0,1,2,4,18,11,0.665527,-0.151367,0.494629,70,-7.375,19.9375,-0.206174,-1.04099,-0.348058
4417,44,22,8,9,4,0,6,14,0.665527,-0.151367,0.494629,70,-7.375,19.9375,-0.206174,-1.04099,-0.348058
4429,7,-4,13,8,-3,4,13,15,0.665527,-0.151367,0.494629,70,-7.375,19.9375,-0.206174,-1.04099,-0.348058
4429,-21,-13,-22,-17,-6,-6,-10,-14,0.665527,-0.151367,0.494629,70,-7.375,19.9375,-0.206174,-1.04099,-0.348058
4437,21,11,9,10,3,3,-4,5,0.767578,-0.168945,0.358398,41.0625,-19.1875,25.625,-0.213474,-1.04702,-0.324206
4437,-8,12,8,2,4,1,-6,-2,0.767578,-0.168945,0.358398,41.0625,-19.1875,25.625,-0.213474,-1.04702,-0.324206
4453,-10,-11,-6,2,-1,-1,7,-3,0.767578,-0.168945,0.358398,41.0625,-19.1875,25.625,-0.213474,-1.04702,-0.324206
4453,7,2,0,16,3,6,1,-3,0.767578,-0.168945,0.358398,41.0625,-19.1875,25.625,-0.213474,-1.04702,-0.324206
4455,-23,-8,20,2,-9,-8,-4,7,0.950684,-0.155762,0.437988,32.4375,-13.9375,25.875,-0.222073,-1.05144,-0.302099
4455,-20,-7,-44,-40,-7,-6,-7,-12,0.950684,-0.155762,0.437988,32.4375,-13.9375,25.875,-0.222073,-1.05144,-0.302099
4483,26,0,7,-3,-1,2,20,20,0.950684,-0.155762,0.437988,32.4375,-13.9375,25.875,-0.222073,-1.05144,-0.302099
4483,1,-25,-12,-2,1,-3,-15,11,0.950684,-0.155762,0.437988,32.4375,-13.9375,25.875,-0.222073,-1.05144,-0.302099
4484,-23,-14,8,-1,-3,-4,-7,-16,0.87207,-0.137207,0.476074,16.125,1.875,9.9375,-0.223564,-1.05026,-0.294346
4484,1,2,4,8,-5,-4,-3,-1,0.87207,-0.137207,0.476074,16.125,1.875,9.9375,-0.223564,-1.05026,-0.294346
4489,21,11,-10,2,3,4,5,-18,0.87207,-0.137207,0.476074,16.125,1.875,9.9375,-0.223564,-1.05026,-0.294346
4489,0,-2,12,0,1,-4,-24,87,0.87207,-0.137207,0.476074,16.125,1.875,9.9375,-0.223564,-1.05026,-0.294346
4497,-3,30,-45,12,4,9,25,-21,0.819824,-0.0395508,0.450195,14.125,4.75,7.125,-0.219326,-1.04837,-0.292545
4497,-3,26,73,11,7,6,25,-90,0.819824,-0.0395508,0.450195,14.125,4.75,7.125,-0.219326,-1.04837,-0.292545
4513,-18,-63,-63,-34,-17,-16,-11,-48,0.819824,-0.0395508,0.450195,14.125,4.75,7.125,-0.219326,-1.04837,-0.292545
4513,1,-55,7,5,-3,12,-25,36,0.819824,-0.0395508,0.450195,14.125,4.75,7.125,-0.219326,-1.04837,-0.292545
4514,-14,20,92,-11,3,-4,19,69,0.922852,-0.0742188,0.535156,4.125,11.625,3.75,-0.216548,-1.04415,-0.293506
4514,2,18,-86,-8,-7,-2,12,-33,0.922852,-0.0742188,0.535156,4.125,11.625,3.75,-0.216548,-1.04415,-0.293506
4535,-2,33,45,12,6,25,-7,7,0.922852,-0.0742188,0.535156,4.125,11.625,3.75,-0.216548,-1.04415,-0.293506
4535,-13,20,-46,-5,-4,-11,26,-95,0.922852,-0.0742188,0.535156,4.125,11.625,3.75,-0.216548,-1.04415,-0.293506
4537,12,-76,11,-3,-2,12,-8,87,0.85498,-0.220215,0.416016,-27.6875,27.875,11.125,-0.234466,-1.03496,-0.285659
4537,8,-7,-34,10,2,-13,-28,-56,0.85498,-0.220215,0.416016,-27.6875,27.875,11.125,-0.234466,-1.03496,-0.285659
4549,-36,8,53,11,5,-6,17,8,0.85498,-0.220215,0.416016,-27.6875,27.875,11.125,-0.234466,-1.03496,-0.285659
4549,2,44,55,1,1,7,-7,12,0.85498,-0.220215,0.416016,-27.6875,27.875,11.125,-0.234466,-1.03496,-0.285659
4558,12,3,-79,-2,3,-8,6,-23,0.777344,-0.167969,0.566895,7.1875,28.3125,21.375,-0.241344,-1.02114,-0.275058
4558,-13,-10,43,-23,-13,-7,-12,33,0.777344,-0.167969,0.566895,7.1875,28.3125,21.375,-0.241344,-1.02114,-0.275058
4573,9,-17,-77,3,0,3,-13,0,0.777344,-0.167969,0.566895,7.1875,28.3125,21.375,-0.241344,-1.02114,-0.275058
4573,12,15,6,7,6,3,14,9,0.777344,-0.167969,0.566895,7.1875,28.3125,21.375,-0.241344,-1.02114,-0.275058
4574,13,5,-7,-4,-3,-3,-20,-26,0.76416,-0.0375977,0.632812,25.75,26.9375,13.0625,-0.231052,-1.00784,-0.274873
4574,-20,-20,-2,5,4,-2,-28,35,0.76416,-0.0375977,0.632812,25.75,26.9375,13.0625,-0.231052,-1.00784,-0.274873
4596,31,0,17,-2,-3,-3,16,20,0.76416,-0.0375977,0.632812,25.75,26.9375,13.0625,-0.231052,-1.00784,-0.274873
4596,10,10,-16,1,-2,-7,3,-3,0.76416,-0.0375977,0.632812,25.75,26.9375,13.0625,-0.231052,-1.00784,-0.274873
4597,-29,12,7,-4,2,1,0,-19,0.774414,-0.0727539,0.509277,19.4375,22.1875,22.1875,-0.23112,-0.998179,-0.265966
4597,-15,-8,27,52,1,10,3,12,0.774414,-0.0727539,0.509277,19.4375,22.1875,22.1875,-0.23112,-0.998179,-0.265966
4609,-3,-6,24,-32,-2,-9,2,15,0.774414,-0.0727539,0.509277,19.4375,22.1875,22.1875,-0.23112,-0.998179,-0.265966
4609,1,7,-21,-9,-1,-4,-5,-18,0.774414,-0.0727539,0.509277,19.4375,22.1875,22.1875,-0.23112,-0.998179,-0.265966
4617,2,-12,-21,-5,-6,-5,-8,-23,0.803223,-0.0693359,0.533203,-26.6875,16.4375,32.375,-0.252176,-0.989803,-0.250971
4617,26,8,19,-3,3,1,7,35,0.803223,-0.0693359,0.533203,-26.6875,16.4375,32.375,-0.252176,-0.989803,-0.250971
4632,10,25,-1,25,3,4,6,9,0.803223,-0.0693359,0.533203,-26.6875,16.4375,32.375,-0.252176,-0.989803,-0.250971
4632,-12,-38,12,-8,-7,-7,6,-16,0.803223,-0.0693359,0.533203,-26.6875,16.4375,32.375,-0.252176,-0.989803,-0.250971
4634,-14,-32,-6,3,-6,0,-9,-17,0.680664,-0.314941,0.516113,29.8125,6.8125,22.6875,-0.26029,-0.98305,-0.231684
4634,-1,-12,6,-22,4,0,6,19,0.680664,-0.314941,0.516113,29.8125,6.8125,22.6875,-0.26029,-0.98305,-0.231684
4655,8,11,17,18,4,1,0,6,0.680664,-0.314941,0.516113,29.8125,6.8125,22.6875,-0.26029,-0.98305,-0.231684
4655,-11,-20,-37,-13,-2,1,-6,-20,0.680664,-0.314941,0.516113,29.8125,6.8125,22.6875,-0.26029,-0.98305,-0.231684
4662,6,36,68,57,2,1,5,3,0.736816,-0.137207,0.506348,73.3125,-6.625,25.3125,-0.248743,-0.982212,-0.214815
4662,-1,9,18,-29,-8,-8,-6,2,0.736816,-0.137207,0.506348,73.3125,-6.625,25.3125,-0.248743,-0.982212,-0.214815
4685,-1,-26,-91,-76,-8,-3,-1,-1,0.736816,-0.137207,0.506348,73.3125,-6.625,25.3125,-0.248743,-0.982212,-0.214815
4685,3,20,-1,-4,-3,0,3,-2,0.736816,-0.137207,0.506348,73.3125,-6.625,25.3125,-0.248743,-0.982212,-0.214815
4687,11,36,-117,-46,15,9,6,1,0.789551,0.120605,0.473633,47.375,-8,2.875,-0.224705,-0.986659,-0.220209
4687,-4,-57,83,42,8,3,4,6,0.789551,0.120605,0.473633,47.375,-8,2.875,-0.224705,-0.986659,-0.220209
4693,3,15,8,29,-5,-4,-7,-2,0.789551,0.120605,0.473633,47.375,-8,2.875,-0.224705,-0.986659,-0.220209
4693,-1,1,73,31,-15,-8,-1,-3,0.789551,0.120605,0.473633,47.375,-8,2.875,-0.224705,-0.986659,-0.220209
4695,-2,12,-35,-52,-13,-1,3,3,0.834961,-0.210449,0.38916,-11.8125,-21.1875,15.8125,-0.244538,-0.994818,-0.203205
4695,26,20,13,-71,10,9,3,0,0.834961,-0.210449,0.38916,-11.8125,-21.1875,15.8125,-0.244538,-0.994818,-0.203205
4716,-7,-8,24,61,31,7,-15,-3,0.834961,-0.210449,0.38916,-11.8125,-21.1875,15.8125,-0.244538,-0.994818,-0.203205
4716,-4,52,41,37,14,11,23,5,0.834961,-0.210449,0.38916,-11.8125,-21.1875,15.8125,-0.244538,-0.994818,-0.203205
4723,10,4,-20,44,6,-3,-20,-5,0.879883,-0.393066,0.393555,-34.1875,-29.4375,28.5625,-0.287576,-1.00372,-0.170263
4723,0,2,-37,-15,-18,-17,-15,-4,0.879883,-0.393066,0.393555,-34.1875,-29.4375,28.5625,-0.287576,-1.00372,-0.170263
4729,-24,-33,-6,-24,-31,-12,-2,2,0.879883,-0.393066,0.393555,-34.1875,-29.4375,28.5625,-0.287576,-1.00372,-0.170263
4729,-8,-36,-63,-32,-15,-6,-17,90,0.879883,-0.393066,0.393555,-34.1875,-29.4375,28.5625,-0.287576,-1.00372,-0.170263
4738,-15,-17,36,-30,-17,-3,12,-83,0.833496,-0.493164,0.542969,-9.5,-23.75,25,-0.321776,-1.00614,-0.138422
4738,19,6,-36,39,10,7,4,16,0.833496,-0.493164,0.542969,-9.5,-23.75,25,-0.321776,-1.00614,-0.138422
4754,16,15,-15,7,-14,-8,-7,-3,0.833496,-0.493164,0.542969,-9.5,-23.75,25,-0.321776,-1.00614,-0.138422
4754,-31,-52,-93,-69,0,4,-4,-23,0.833496,-0.493164,0.542969,-9.5,-23.75,25,-0.321776,-1.00614,-0.138422
4755,-4,-6,60,60,10,1,-7,16,0.861328,-0.190918,0.525879,40.5,-13.625,2.1875,-0.311915,-1.00993,-0.133596
4755,-8,-11,119,48,24,4,-1,3,0.861328,-0.190918,0.525879,40.5,-13.625,2.1875,-0.311915,-1.00993,-0.133596
4775,50,12,-72,-26,16,7,23,11,0.861328,-0.190918,0.525879,40.5,-13.625,2.1875,-0.311915,-1.00993,-0.133596
4775,26,19,-52,37,29,11,6,-5,0.861328,-0.190918,0.525879,40.5,-13.625,2.1875,-0.311915,-1.00993,-0.133596
4777,-88,-86,-73,-15,7,4,-1,-9,0.882812,-0.294922,0.232422,-14.25,-24.6875,16.5625,-0.339495,-1.02107,-0.110023
4777,43,25,-107,10,-12,0,12,-5,0.882812,-0.294922,0.232422,-14.25,-24.6875,16.5625,-0.339495,-1.02107,-0.110023
4789,-46,16,41,-3,-11,1,7,42,0.882812,-0.294922,0.232422,-14.25,-24.6875,16.5625,-0.339495,-1.02107,-0.110023
4789,-54,-1,16,-51,-43,-43,-39,-64,0.882812,-0.294922,0.232422,-14.25,-24.6875,16.5625,-0.339495,-1.02107,-0.110023
4797,-2,29,34,6,-11,-8,-9,-9,0.9375,-0.365723,0.353027,-39.5,-31.625,29.625,-0.385159,-1.02983,-0.0757622
4797,24,42,17,22,15,21,29,-10,0.9375,-0.365723,0.353027,-39.5,-31.625,29.625,-0.385159,-1.02983,-0.0757622
4812,-26,-38,1,-15,14,23,52,45,0.9375,-0.365723,0.353027,-39.5,-31.625,29.625,-0.385159,-1.02983,-0.0757622
4812,27,-8,8,-3,-15,-22,-67,-3,0.9375,-0.365723,0.353027,-39.5,-31.625,29.625,-0.385159,-1.02983,-0.0757622
4820,19,-6,23,1,-11,-20,-28,-25,0.92334,-0.487793,0.51709,-6.5625,-29,2.3125,-0.406995,-1.03618,-0.0565078
4820,47,13,-17,-16,0,5,-12,62,0.92334,-0.487793,0.51709,-6.5625,-29,2.3125,-0.406995,-1.03618,-0.0565078
4835,120,115,51,22,37,47,60,77,0.92334,-0.487793,0.51709,-6.5625,-29,2.3125,-0.406995,-1.03618,-0.0565078
4835,-39,-55,-17,7,-14,-25,70,-48,0.92334,-0.487793,0.51709,-6.5625,-29,2.3125,-0.406995,-1.03618,-0.0565078
4836,44,-26,9,-29,-38,-55,-92,-87,0.769043,-0.223145,0.481934,33.125,-20.1875,-12.75,-0.394223,-1.04279,-0.0582473
4836,6,-31,-24,-14,6,20,76,57,0.769043,-0.223145,0.481934,33.125,-20.1875,-12.75,-0.394223,-1.04279,-0.0582473
4848,-59,-59,-39,-13,-29,-51,-128,-97,0.769043,-0.223145,0.481934,33.125,-20.1875,-12.75,-0.394223,-1.04279,-0.0582473
4848,-84,-101,22,12,1,-8,-71,-69,0.769043,-0.223145,0.481934,33.125,-20.1875,-12.75,-0.394223,-1.04279,-0.0582473
4857,75,80,1,-7,22,29,7,118,0.780273,-0.121094,0.540039,-13.75,-24.6875,-9.6875,-0.394474,-1.0499,-0.0620968
4857,58,-51,-22,-13,-22,-32,-31,-123,0.780273,-0.121094,0.540039,-13.75,-24.6875,-9.6875,-0.394474,-1.0499,-0.0620968
4872,19,76,38,17,-5,8,57,-35,0.780273,-0.121094,0.540039,-13.75,-24.6875,-9.6875,-0.394474,-1.0499,-0.0620968
4872,84,-11,-1,7,8,15,32,10,0.780273,-0.121094,0.540039,-13.75,-24.6875,-9.6875,-0.394474,-1.0499,-0.0620968
4878,31,3,20,-12,2,10,38,26,0.457031,-0.655273,0.566895,-46.75,-38.375,12.8125,-0.444793,-1.04903,-0.0277867
4878,-63,-49,-21,12,14,19,-15,32,0.457031,-0.655273,0.566895,-46.75,-38.375,12.8125,-0.444793,-1.04903,-0.0277867
4895,3,-17,17,10,26,32,24,35,0.457031,-0.655273,0.566895,-46.75,-38.375,12.8125,-0.444793,-1.04903,-0.0277867
4895,-10,43,-5,-23,-28,-33,-21,1,0.457031,-0.655273,0.566895,-46.75,-38.375,12.8125,-0.444793,-1.04903,-0.0277867
4897,49,17,5,12,-3,-3,1,36,0.714355,-0.417969,0.701172,-18.875,-31.875,9.375,-0.468236,-1.04915,-0.00938811
4897,-51,43,-4,-5,-10,2,88,124,0.714355,-0.417969,0.701172,-18.875,-31.875,9.375,-0.468236,-1.04915,-0.00938811
4918,74,-15,-6,-8,-17,-34,-85,-39,0.714355,-0.417969,0.701172,-18.875,-31.875,9.375,-0.468236,-1.04915,-0.00938811
4918,-74,-39,-15,7,24,34,14,-21,0.714355,-0.417969,0.701172,-18.875,-31.875,9.375,-0.468236,-1.04915,-0.00938811
4920,-14,7,-5,4,25,29,52,8,1.06299,-0.10498,0.789551,16.25,-9.375,-35.5625,-0.433521,-1.05421,-0.0393545
4920,24,52,-20,-9,-9,-16,8,-20,1.06299,-0.10498,0.789551,16.25,-9.375,-35.5625,-0.433521,-1.05421,-0.0393545
4932,-39,-11,-14,0,-10,6,-25,-51,1.06299,-0.10498,0.789551,16.25,-9.375,-35.5625,-0.433521,-1.05421,-0.0393545
4932,-29,30,34,11,-6,-41,-80,-24,1.06299,-0.10498,0.789551,16.25,-9.375,-35.5625,-0.433521,-1.05421,-0.0393545
4939,-33,-40,-9,-10,-11,-4,48,23,1.09033,0.257324,0.61084,-9.125,-10.3125,-15.8125,-0.406335,-1.063,-0.0676102
4939,-19,-29,35,-36,-12,-1,-6,-26,1.09033,0.257324,0.61084,-9.125,-10.3125,-15.8125,-0.406335,-1.063,-0.0676102
4956,69,-29,8,4,15,40,86,24,1.09033,0.257324,0.61084,-9.125,-10.3125,-15.8125,-0.406335,-1.063,-0.0676102
4956,126,38,-21,-3,-7,22,60,71,1.09033,0.257324,0.61084,-9.125,-10.3125,-15.8125,-0.406335,-1.063,-0.0676102
4957,-23,-37,-41,-44,-38,-42,-33,-24,1.31934,0.249023,0.45752,-62.5625,-22.5625,-1.0625,-0.411934,-1.07876,-0.0804328
4957,30,6,-43,-28,-24,-18,-24,-1,1.31934,0.249023,0.45752,-62.5625,-22.5625,-1.0625,-0.411934,-1.07876,-0.0804328
4978,-91,-34,16,11,23,2,-10,-9,1.31934,0.249023,0.45752,-62.5625,-22.5625,-1.0625,-0.411934,-1.07876,-0.0804328
4978,4,23,-33,52,59,40,16,-24,1.31934,0.249023,0.45752,-62.5625,-22.5625,-1.0625,-0.411934,-1.07876,-0.0804328
4979,-13,30,23,83,21,7,28,-2,1.1626,-0.0385742,0.193359,3.125,-36.4375,-1.75,-0.417382,-1.09957,-0.0725842
4979,36,7,24,2,-1,11,-3,28,1.1626,-0.0385742,0.193359,3.125,-36.4375,-1.75,-0.417382,-1.09957,-0.0725842
4992,4,5,-36,-38,-23,-23,-21,3,1.1626,-0.0385742,0.193359,3.125,-36.4375,-1.75,-0.417382,-1.09957,-0.0725842
4992,-71,19,51,37,8,-19,-32,-20,1.1626,-0.0385742,0.193359,3.125,-36.4375,-1.75,-0.417382,-1.09957,-0.0725842
4999,4,-7,-2,-19,1,11,-12,-1,1.11426,-0.0854492,-0.0732422,-25,-51.375,-22.5625,-0.432442,-1.13147,-0.0667734
4999,-26,16,-18,-30,-17,5,-2,-33,1.11426,-0.0854492,-0.0732422,-25,-51.375,-22.5625,-0.432442,-1.13147,-0.0667734
5016,-9,5,-1,-18,-85,-41,3,-14,1.11426,-0.0854492,-0.0732422,-25,-51.375,-22.5625,-0.432442,-1.13147,-0.0667734
5016,45,22,4,-128,-45,-13,15,32,1.11426,-0.0854492,-0.0732422,-25,-51.375,-22.5625,-0.432442,-1.13147,-0.0667734
5017,-14,44,3,38,50,18,-12,-19,1.31445,-0.124512,0.0307617,-26.1875,-40.9375,-17.875,-0.448351,-1.15813,-0.0603671
5017,0,5,87,110,95,37,-10,-6,1.31445,-0.124512,0.0307617,-26.1875,-40.9375,-17.875,-0.448351,-1.15813,-0.0603671
5038,2,-23,-87,35,28,13,-16,14,1.31445,-0.124512,0.0307617,-26.1875,-40.9375,-17.875,-0.448351,-1.15813,-0.0603671
5038,20,0,15,-80,-38,-19,49,4,1.31445,-0.124512,0.0307617,-26.1875,-40.9375,-17.875,-0.448351,-1.15813,-0.0603671
5039,12,43,17,76,-4,1,-12,6,1.26367,0.0253906,0.0996094,-31.0625,-10.875,6.4375,-0.463378,-1.1709,-0.055052
5039,-13,43,86,51,42,1,53,-31,1.26367,0.0253906,0.0996094,-31.0625,-10.875,6.4375,-0.463378,-1.1709,-0.055052
5061,25,36,42,127,47,13,4,14,1.26367,0.0253906,0.0996094,-31.0625,-10.875,6.4375,-0.463378,-1.1709,-0.055052
5061,-12,-71,-35,-54,-28,-3,-48,-9,1.26367,0.0253906,0.0996094,-31.0625,-10.875,6.4375,-0.463378,-1.1709,-0.055052
5062,-5,-4,-20,-6,-29,3,14,-30,1.50342,0.317871,0.173828,-25.0625,4.1875,33.9375,-0.472669,-1.17833,-0.0507766
5062,17,77,54,63,-53,-51,-20,71,1.50342,0.317871,0.173828,-25.0625,4.1875,33.9375,-0.472669,-1.17833,-0.0507766
5075,-1,115,105,-74,-11,14,8,-56,1.50342,0.317871,0.173828,-25.0625,4.1875,33.9375,-0.472669,-1.17833,-0.0507766
5075,11,49,100,19,-3,-1,-56,-17,1.50342,0.317871,0.173828,-25.0625,4.1875,33.9375,-0.472669,-1.17833,-0.0507766
5076,-42,-81,-66,-51,2,-23,-64,33,1.45605,0.186035,0.447754,-38.5625,24.25,17.5,-0.466155,-1.17485,-0.0686475
5076,3,24,-37,-8,-9,1,-30,-15,1.45605,0.186035,0.447754,-38.5625,24.25,17.5,-0.466155,-1.17485,-0.0686475
5097,2,-23,-6,-33,-21,-33,18,5,1.45605,0.186035,0.447754,-38.5625,24.25,17.5,-0.466155,-1.17485,-0.0686475
5097,5,-18,46,-18,6,11,32,20,1.45605,0.186035,0.447754,-38.5625,24.25,17.5,-0.466155,-1.17485,-0.0686475
5099,11,-15,99,-45,18,15,1,-50,1.15723,-0.114258,0.532227,-73.9375,31.6875,29.5,-0.491911,-1.15977,-0.0670657
5099,-38,-112,-115,39,45,14,-35,-16,1.15723,-0.114258,0.532227,-73.9375,31.6875,29.5,-0.491911,-1.15977,-0.0670657
5120,-10,0,-7,81,33,-7,-24,-10,1.15723,-0.114258,0.532227,-73.9375,31.6875,29.5,-0.491911,-1.15977,-0.0670657
5120,38,8,-25,96,33,33,47,21,1.15723,-0.114258,0.532227,-73.9375,31.6875,29.5,-0.491911,-1.15977,-0.0670657
5122,16,-15,-71,-14,-57,-30,37,70,1.06201,-0.412598,0.534668,-60.75,28.0625,32.25,-0.529797,-1.14158,-0.049771
5122,-25,-25,56,-128,-87,-27,-42,-109,1.06201,-0.412598,0.534668,-60.75,28.0625,32.25,-0.529797,-1.14158,-0.049771
5135,-26,-27,111,-110,-18,12,15,-4,1.06201,-0.412598,0.534668,-60.75,28.0625,32.25,-0.529797,-1.14158,-0.049771
5135,-8,-67,-128,122,45,6,-54,35,1.06201,-0.412598,0.534668,-60.75,28.0625,32.25,-0.529797,-1.14158,-0.049771
5137,20,39,127,18,-4,7,56,-5,0.983887,-0.474121,0.568848,-14.5625,23.5,20.6875,-0.545491,-1.12488,-0.0392509
5137,12,-48,-128,-73,-22,8,2,29,0.983887,-0.474121,0.568848,-14.5625,23.5,20.6875,-0.545491,-1.12488,-0.0392509
5157,-27,-11,58,27,-6,-16,-75,-66,0.983887,-0.474121,0.568848,-14.5625,23.5,20.6875,-0.545491,-1.12488,-0.0392509
5157,-2,21,-3,39,44,2,14,28,0.983887,-0.474121,0.568848,-14.5625,23.5,20.6875,-0.545491,-1.12488,-0.0392509
5159,89,7,-88,66,48,43,56,-14,0.907227,-0.388672,0.565918,10.6875,19.5625,10.5,-0.543306,-1.11196,-0.0381198
5159,35,33,-41,13,27,12,50,6,0.907227,-0.388672,0.565918,10.6875,19.5625,10.5,-0.543306,-1.11196,-0.0381198
5171,-78,-60,-1,-52,-23,-33,-72,-63,0.907227,-0.388672,0.565918,10.6875,19.5625,10.5,-0.543306,-1.11196,-0.0381198
5171,12,45,57,-11,-26,-41,-14,12,0.907227,-0.388672,0.565918,10.6875,19.5625,10.5,-0.543306,-1.11196,-0.0381198
5180,-13,12,33,-30,-17,10,-51,11,0.94873,-0.422363,0.460938,-2.1875,13.875,11.875,-0.552474,-1.10262,-0.0299801
5180,45,46,84,25,-7,-7,6,30,0.94873,-0.422363,0.460938,-2.1875,13.875,11.875,-0.552474,-1.10262,-0.0299801
5195,43,-40,-71,-28,11,16,65,26,0.94873,-0.422363,0.460938,-2.1875,13.875,11.875,-0.552474,-1.10262,-0.0299801
5195,-18,31,127,-33,2,-20,-38,-79,0.94873,-0.422363,0.460938,-2.1875,13.875,11.875,-0.552474,-1.10262,-0.0299801
5197,27,26,66,36,15,36,85,12,0.978027,-0.483887,0.379883,-7.0625,6.5625,23,-0.576889,-1.09485,-0.00800152
5197,-92,-18,-54,45,-13,-5,-42,38,0.978027,-0.483887,0.379883,-7.0625,6.5625,23,-0.576889,-1.09485,-0.00800152
5218,-37,-89,-63,-83,-74,-21,-33,11,0.978027,-0.483887,0.379883,-7.0625,6.5625,23,-0.576889,-1.09485,-0.00800152
5218,4,-65,-12,-81,-43,5,30,-4,0.978027,-0.483887,0.379883,-7.0625,6.5625,23,-0.576889,-1.09485,-0.00800152
5219,-13,-76,53,-43,10,-23,-44,1,1.0625,-0.30957,0.404297,-1.875,12.4375,17.75,-0.584465,-1.08873,-0.000540742
5219,19,-15,72,85,111,56,4,-18,1.0625,-0.30957,0.404297,-1.875,12.4375,17.75,-0.584465,-1.08873,-0.000540742
5231,10,5,-31,126,76,-4,25,42,1.0625,-0.30957,0.404297,-1.875,12.4375,17.75,-0.584465,-1.08873,-0.000540742
5231,11,-26,49,-10,-35,3,8,-12,1.0625,-0.30957,0.404297,-1.875,12.4375,17.75,-0.584465,-1.08873,-0.000540742
5240,-9,-33,12,-113,-97,-48,17,37,1.00049,-0.26123,0.438965,-26.9375,28.5625,8.0625,-0.586523,-1.07952,-0.00851685
5240,-48,-128,87,-125,-67,0,-112,-41,1.00049,-0.26123,0.438965,-26.9375,28.5625,8.0625,-0.586523,-1.07952,-0.00851685
5255,20,-102,8,44,37,13,95,21,1.00049,-0.26123,0.438965,-26.9375,28.5625,8.0625,-0.586523,-1.07952,-0.00851685
5255,24,2,-25,93,58,33,32,22,1.00049,-0.26123,0.438965,-26.9375,28.5625,8.0625,-0.586523,-1.07952,-0.00851685
5257,-14,73,28,17,-5,-16,-67,5,0.936523,-0.411133,0.521484,-55.3125,31.875,15,-0.604652,-1.0642,-0.0104454
5257,-11,80,43,-92,-78,-35,-8,-4,0.936523,-0.411133,0.521484,-55.3125,31.875,15,-0.604652,-1.0642,-0.0104454
5270,41,121,27,-7,-7,1,-1,33,0.936523,-0.411133,0.521484,-55.3125,31.875,15,-0.604652,-1.0642,-0.0104454
5270,34,114,-46,-12,10,30,32,4,0.936523,-0.411133,0.521484,-55.3125,31.875,15,-0.604652,-1.0642,-0.0104454
5272,-81,14,-121,-13,30,2,-19,-21,0.925781,-0.379395,0.561035,-43,34.5,19.3125,-0.616394,-1.04732,-0.0138545
5272,-18,13,68,109,45,-9,6,-17,0.925781,-0.379395,0.561035,-43,34.5,19.3125,-0.616394,-1.04732,-0.0138545
5284,8,31,-15,3,-6,5,-67,-12,0.925781,-0.379395,0.561035,-43,34.5,19.3125,-0.616394,-1.04732,-0.0138545
5284,22,-27,45,-9,-12,-7,30,46,0.925781,-0.379395,0.561035,-43,34.5,19.3125,-0.616394,-1.04732,-0.0138545
5293,21,-16,-41,13,12,13,-50,-17,0.895996,-0.227539,0.536133,-10.5,46.9375,13.25,-0.604627,-1.03054,-0.030024
5293,7,-40,-128,-114,-67,-32,34,-40,0.895996,-0.227539,0.536133,-10.5,46.9375,13.25,-0.604627,-1.03054,-0.030024
5307,-13,6,37,2,-20,-9,12,18,0.895996,-0.227539,0.536133,-10.5,46.9375,13.25,-0.604627,-1.03054,-0.030024
5307,-47,-78,47,10,33,9,-17,-12,0.895996,-0.227539,0.536133,-10.5,46.9375,13.25,-0.604627,-1.03054,-0.030024
5314,-25,13,29,7,10,-3,-6,-15,0.812988,-0.199707,0.522461,-23.5625,47.0625,14.375,-0.598571,-1.01347,-0.0449355
5314,-2,-20,-28,25,-2,-5,-8,8,0.812988,-0.199707,0.522461,-23.5625,47.0625,14.375,-0.598571,-1.01347,-0.0449355
5330,12,-8,-89,-41,-44,-22,-14,-4,0.812988,-0.199707,0.522461,-23.5625,47.0625,14.375,-0.598571,-1.01347,-0.0449355
5330,-5,15,-42,-39,-26,-4,-8,-10,0.812988,-0.199707,0.522461,-23.5625,47.0625,14.375,-0.598571,-1.01347,-0.0449355
5332,5,28,78,18,29,12,50,-6,0.814453,-0.355469,0.539062,-30.75,42.375,22.5,-0.605377,-0.994311,-0.0492228
5332,15,1,-38,68,35,10,7,7,0.814453,-0.355469,0.539062,-30.75,42.375,22.5,-0.605377,-0.994311,-0.0492228
5343,-30,-83,-118,-56,-17,-12,8,-5,0.814453,-0.355469,0.539062,-30.75,42.375,22.5,-0.605377,-0.994311,-0.0492228
5343,5,13,-125,28,19,11,1,9,0.814453,-0.355469,0.539062,-30.75,42.375,22.5,-0.605377,-0.994311,-0.0492228
5353,-3,-14,-68,22,-3,-2,40,10,0.706543,-0.336914,0.569336,-10.5,46.5,27.9375,-0.605252,-0.971921,-0.0531531
5353,24,127,-24,-36,-12,-12,-70,9,0.706543,-0.336914,0.569336,-10.5,46.5,27.9375,-0.605252,-0.971921,-0.0531531
5375,-4,38,127,-46,-29,-7,33,-4,0.706543,-0.336914,0.569336,-10.5,46.5,27.9375,-0.605252,-0.971921,-0.0531531
5375,-39,5,-62,-51,-22,5,-14,-1,0.706543,-0.336914,0.569336,-10.5,46.5,27.9375,-0.605252,-0.971921,-0.0531531
5382,35,23,-2,94,3,0,-8,-25,0.540527,-0.355469,0.525879,5.125,50.875,20.9375,-0.597578,-0.948215,-0.0602186
5382,57,101,-74,-16,44,20,27,51,0.540527,-0.355469,0.525879,5.125,50.875,20.9375,-0.597578,-0.948215,-0.0602186
5398,-69,-25,83,-34,-19,-17,-32,-10,0.540527,-0.355469,0.525879,5.125,50.875,20.9375,-0.597578,-0.948215,-0.0602186
5398,20,84,93,-44,-23,-9,1,-12,0.540527,-0.355469,0.525879,5.125,50.875,20.9375,-0.597578,-0.948215,-0.0602186
5399,3,-2,32,-54,21,27,37,10,0.555176,-0.299316,0.506836,11.3125,48.25,10.375,-0.583478,-0.928728,-0.0721474
5399,10,-18,96,103,36,10,20,-5,0.555176,-0.299316,0.506836,11.3125,48.25,10.375,-0.583478,-0.928728,-0.0721474
5412,30,77,59,63,30,8,0,12,0.555176,-0.299316,0.506836,11.3125,48.25,10.375,-0.583478,-0.928728,-0.0721474
5412,13,30,-13,47,4,-5,-5,-2,0.555176,-0.299316,0.506836,11.3125,48.25,10.375,-0.583478,-0.928728,-0.0721474
5421,3,-17,-100,-35,-35,-23,-34,-7,0.58252,-0.26416,0.481445,3.5625,50.3125,10.25,-0.571997,-0.91011,-0.0841579
5421,-62,-98,11,-72,-60,-38,59,-26,0.58252,-0.26416,0.481445,3.5625,50.3125,10.25,-0.571997,-0.91011,-0.0841579
5436,2,-1,-128,-27,24,19,-42,-22,0.58252,-0.26416,0.481445,3.5625,50.3125,10.25,-0.571997,-0.91011,-0.0841579
5436,-7,46,127,48,7,2,5,7,0.58252,-0.26416,0.481445,3.5625,50.3125,10.25,-0.571997,-0.91011,-0.0841579
5437,46,24,35,7,8,3,-19,-17,0.504883,-0.325195,0.450195,6.3125,53.8125,7.8125,-0.561435,-0.890179,-0.0956456
5437,-31,10,2,-2,-6,-11,-25,-32,0.504883,-0.325195,0.450195,6.3125,53.8125,7.8125,-0.561435,-0.890179,-0.0956456
5458,-63,-54,-5,0,-8,7,1,-8,0.504883,-0.325195,0.450195,6.3125,53.8125,7.8125,-0.561435,-0.890179,-0.0956456
5458,108,28,-21,-52,-13,20,90,69,0.504883,-0.325195,0.450195,6.3125,53.8125,7.8125,-0.561435,-0.890179,-0.0956456
5460,79,63,-43,14,17,8,-24,67,0.42334,-0.273926,0.446777,6.1875,50.5625,5.4375,-0.54998,-0.870977,-0.107772
5460,-70,-13,10,20,7,-10,-34,10,0.42334,-0.273926,0.446777,6.1875,50.5625,5.4375,-0.54998,-0.870977,-0.107772
5472,-57,-38,11,11,-15,-41,-79,-89,0.42334,-0.273926,0.446777,6.1875,50.5625,5.4375,-0.54998,-0.870977,-0.107772
5472,-15,-28,37,19,4,-17,-85,-48,0.42334,-0.273926,0.446777,6.1875,50.5625,5.4375,-0.54998,-0.870977,-0.107772
5481,55,16,12,-26,2,34,87,88,0.53418,-0.249512,0.39502,5.125,46.3125,-3,-0.537661,-0.857537,-0.121776
5481,-14,11,83,12,-13,-4,-51,3,0.53418,-0.249512,0.39502,5.125,46.3125,-3,-0.537661,-0.857537,-0.121776
5495,43,2,40,-27,-31,-34,-20,54,0.53418,-0.249512,0.39502,5.125,46.3125,-3,-0.537661,-0.857537,-0.121776
5495,46,-33,-27,5,22,37,87,55,0.53418,-0.249512,0.39502,5.125,46.3125,-3,-0.537661,-0.857537,-0.121776
5497,-5,-80,25,12,8,8,53,15,0.470215,-0.344238,0.400879,-1.125,49.6875,-0.5625,-0.531266,-0.840844,-0.132746
5497,121,15,-72,-17,17,29,-39,62,0.470215,-0.344238,0.400879,-1.125,49.6875,-0.5625,-0.531266,-0.840844,-0.132746
5518,-58,-5,90,15,-3,-60,-72,-82,0.470215,-0.344238,0.400879,-1.125,49.6875,-0.5625,-0.531266,-0.840844,-0.132746
5518,67,9,18,22,8,6,-5,-22,0.470215,-0.344238,0.400879,-1.125,49.6875,-0.5625,-0.531266,-0.840844,-0.132746
5520,-45,49,70,0,-8,8,-37,76,0.424316,-0.39502,0.437012,7.625,50.375,4.375,-0.524898,-0.8217,-0.140574
5520,-83,-75,30,-17,-14,-69,-70,-103,0.424316,-0.39502,0.437012,7.625,50.375,4.375,-0.524898,-0.8217,-0.140574
5531,-40,-30,-54,-3,7,40,53,122,0.424316,-0.39502,0.437012,7.625,50.375,4.375,-0.524898,-0.8217,-0.140574
5531,86,53,44,22,-2,24,12,5,0.424316,-0.39502,0.437012,7.625,50.375,4.375,-0.524898,-0.8217,-0.140574
5541,-35,-40,-27,-19,-2,-7,48,-67,0.515625,-0.256348,0.418945,-1.5,42.125,-2.1875,-0.517422,-0.809272,-0.1519
5541,16,-17,-67,-5,-4,27,14,-46,0.515625,-0.256348,0.418945,-1.5,42.125,-2.1875,-0.517422,-0.809272,-0.1519
5555,127,29,-88,-61,-73,-41,16,13,0.515625,-0.256348,0.418945,-1.5,42.125,-2.1875,-0.517422,-0.809272,-0.1519
5555,-91,-38,-66,10,23,-5,-33,-61,0.515625,-0.256348,0.418945,-1.5,42.125,-2.1875,-0.517422,-0.809272,-0.1519
5556,-61,8,-44,85,88,63,85,9,0.406738,-0.269043,0.484375,-20.5,33.9375,10,-0.521186,-0.794492,-0.156318
5556,26,1,19,-17,-15,2,-24,30,0.406738,-0.269043,0.484375,-20.5,33.9375,10,-0.521186,-0.794492,-0.156318
5577,127,120,-33,33,25,30,-19,10,0.406738,-0.269043,0.484375,-20.5,33.9375,10,-0.521186,-0.794492,-0.156318
5577,-110,-28,-37,-6,-4,-23,-64,-12,0.406738,-0.269043,0.484375,-20.5,33.9375,10,-0.521186,-0.794492,-0.156318
5584,25,-42,-82,-54,-73,-48,-79,-54,0.593262,-0.63916,0.643066,-9.125,56.3125,13.9375,-0.526733,-0.770538,-0.158601
5584,70,25,38,16,52,9,55,29,0.593262,-0.63916,0.643066,-9.125,56.3125,13.9375,-0.526733,-0.770538,-0.158601
5592,55,13,2,7,26,28,76,41,0.593262,-0.63916,0.643066,-9.125,56.3125,13.9375,-0.526733,-0.770538,-0.158601
5592,-87,4,85,-35,-65,2,-60,-38,0.593262,-0.63916,0.643066,-9.125,56.3125,13.9375,-0.526733,-0.770538,-0.158601
5600,-68,-51,14,0,-8,-41,-31,-39,0.573242,-0.495605,0.65625,6.5625,81.25,18.25,-0.519792,-0.73958,-0.16801
5600,-7,-12,-47,-8,-2,-13,55,38,0.573242,-0.495605,0.65625,6.5625,81.25,18.25,-0.519792,-0.73958,-0.16801
5615,-22,-3,2,-18,-31,28,-19,-47,0.573242,-0.495605,0.65625,6.5625,81.25,18.25,-0.519792,-0.73958,-0.16801
5615,75,20,7,43,46,6,69,40,0.573242,-0.495605,0.65625,6.5625,81.25,18.25,-0.519792,-0.73958,-0.16801
5623,-27,12,31,0,-12,-5,-78,-22,0.589355,-0.274902,0.680664,32.5,77.9375,24.375,-0.500346,-0.711014,-0.177722
5623,26,3,71,11,-30,-25,-29,16,0.589355,-0.274902,0.680664,32.5,77.9375,24.375,-0.500346,-0.711014,-0.177722
5638,-37,-42,47,41,69,38,47,11,0.589355,-0.274902,0.680664,32.5,77.9375,24.375,-0.500346,-0.711014,-0.177722
5638,33,-4,7,-7,-4,-7,16,9,0.589355,-0.274902,0.680664,32.5,77.9375,24.375,-0.500346,-0.711014,-0.177722
5639,77,52,47,-15,-20,-4,40,48,0.592285,-0.216309,0.625977,25.6875,76.5625,30.75,-0.485558,-0.68344,-0.184
5639,-66,-15,-44,-31,-14,-7,-31,-19,0.592285,-0.216309,0.625977,25.6875,76.5625,30.75,-0.485558,-0.68344,-0.184
5652,31,-1,9,16,5,-11,-62,-25,0.592285,-0.216309,0.625977,25.6875,76.5625,30.75,-0.485558,-0.68344,-0.184
5652,-16,-20,-30,-41,-36,-36,-14,-6,0.592285,-0.216309,0.625977,25.6875,76.5625,30.75,-0.485558,-0.68344,-0.184
5661,113,45,-11,-15,-9,16,18,15,0.475098,-0.351074,0.669434,11.8125,72.3125,43.75,-0.482723,-0.652104,-0.181771
5661,-13,-18,-12,-4,4,18,1,-5,0.475098,-0.351074,0.669434,11.8125,72.3125,43.75,-0.482723,-0.652104,-0.181771
5674,-81,-37,-22,10,39,27,60,17,0.475098,-0.351074,0.669434,11.8125,72.3125,43.75,-0.482723,-0.652104,-0.181771
5674,16,18,52,42,14,-5,3,-6,0.475098,-0.351074,0.669434,11.8125,72.3125,43.75,-0.482723,-0.652104,-0.181771
5682,-18,-15,-53,-64,-52,-28,-1,-32,0.730957,-0.188965,0.662598,35.3125,79.8125,34.625,-0.4651,-0.626508,-0.186535
5682,19,16,-4,23,21,18,-13,-9,0.730957,-0.188965,0.662598,35.3125,79.8125,34.625,-0.4651,-0.626508,-0.186535
5698,31,-21,-66,-12,-13,-15,-7,7,0.730957,-0.188965,0.662598,35.3125,79.8125,34.625,-0.4651,-0.626508,-0.186535
5698,-33,-30,-28,-20,35,13,-28,-5,0.730957,-0.188965,0.662598,35.3125,79.8125,34.625,-0.4651,-0.626508,-0.186535
5699,-22,1,110,112,82,3,-47,-40,0.755859,-0.150391,0.602051,15.9375,76,16.5,-0.451039,-0.606968,-0.196698
5699,18,-2,-46,-53,-15,14,45,13,0.755859,-0.150391,0.602051,15.9375,76,16.5,-0.451039,-0.606968,-0.196698
5711,21,35,1,-31,-12,-4,63,16,0.755859,-0.150391,0.602051,15.9375,76,16.5,-0.451039,-0.606968,-0.196698
5711,-22,-7,-67,-17,-50,-13,-28,7,0.755859,-0.150391,0.602051,15.9375,76,16.5,-0.451039,-0.606968,-0.196698
5727,-80,-19,14,-44,-44,-31,-55,-31,0.221191,-0.521973,0.480957,-13.9375,50.375,48.125,-0.468096,-0.579371,-0.183869
5727,43,17,75,51,39,37,125,29,0.221191,-0.521973,0.480957,-13.9375,50.375,48.125,-0.468096,-0.579371,-0.183869
5735,81,-17,16,9,13,-9,-115,-14,0.221191,-0.521973,0.480957,-13.9375,50.375,48.125,-0.468096,-0.579371,-0.183869
5735,52,13,-16,-7,-19,-10,-3,40,0.221191,-0.521973,0.480957,-13.9375,50.375,48.125,-0.468096,-0.579371,-0.183869
5736,-57,-66,-38,16,-1,3,9,-24,-0.160156,-0.605957,0.396973,2.5,35.8125,57.1875,-0.485031,-0.547849,-0.164288
5736,89,13,13,-37,-39,-37,-79,-44,-0.160156,-0.605957,0.396973,2.5,35.8125,57.1875,-0.485031,-0.547849,-0.164288
