0,4,-3,17,20,11,5,-1,0,0.615723,0.0751953,0.711914,-1.75,-0.5,1.625,0.0605313,-0.710274,2.16909
0,-2,-3,-6,16,11,6,2,1,0.615723,0.0751953,0.711914,-1.75,-0.5,1.625,0.0605313,-0.710274,2.16909
6,5,14,2,1,-2,-2,-1,0,0.615723,0.0751953,0.711914,-1.75,-0.5,1.625,0.0605313,-0.710274,2.16909
6,-7,-7,-25,-11,-6,-3,-4,-2,0.615723,0.0751953,0.711914,-1.75,-0.5,1.625,0.0605313,-0.710274,2.16909
7,-1,38,6,-10,-10,-6,-4,-3,0.615723,0.0751953,0.711914,-1.75,-0.5,1.625,0.0605313,-0.710274,2.16909
7,0,5,1,4,-4,-1,-1,-1,0.615723,0.0751953,0.711914,-1.75,-0.5,1.625,0.0605313,-0.710274,2.16909
7,-1,-18,1,-1,-1,1,0,0,0.615723,0.0751953,0.711914,-1.75,-0.5,1.625,0.0605313,-0.710274,2.16909
7,-13,57,9,-3,-2,-1,-1,-1,0.615723,0.0751953,0.711914,-1.75,-0.5,1.625,0.0605313,-0.710274,2.16909
9,-2,-39,-5,-4,1,-1,0,0,0.615723,0.0751953,0.711914,-1.75,-0.5,1.625,0.0605313,-0.710274,2.16909
9,-10,12,-43,-19,-5,-6,-4,-6,0.615723,0.0751953,0.711914,-1.75,-0.5,1.625,0.0605313,-0.710274,2.16909
12,3,9,1,6,0,-2,-3,-1,0.614258,0.0532227,0.718262,-1.8125,-0.5625,2.125,0.059526,-0.710388,2.16998
12,-8,-23,12,0,-4,-3,-4,-6,0.614258,0.0532227,0.718262,-1.8125,-0.5625,2.125,0.059526,-0.710388,2.16998
27,7,24,-10,8,1,1,1,3,0.614258,0.0532227,0.718262,-1.8125,-0.5625,2.125,0.059526,-0.710388,2.16998
27,3,3,54,6,-1,-1,-1,-1,0.614258,0.0532227,0.718262,-1.8125,-0.5625,2.125,0.059526,-0.710388,2.16998
32,-8,-10,-28,-11,0,-1,0,-4,0.61084,0.0424805,0.719727,2.125,-0.125,2.3125,0.0596259,-0.710275,2.17107
32,4,7,7,2,7,0,1,0,0.61084,0.0424805,0.719727,2.125,-0.125,2.3125,0.0596259,-0.710275,2.17107
41,2,1,-7,3,-2,1,1,1,0.61084,0.0424805,0.719727,2.125,-0.125,2.3125,0.0596259,-0.710275,2.17107
41,0,-63,21,-2,0,-1,0,-1,0.61084,0.0424805,0.719727,2.125,-0.125,2.3125,0.0596259,-0.710275,2.17107
64,8,5,0,-4,-5,0,-1,0,0.604004,0.0610352,0.714844,5.75,0.1875,2.5,0.0613456,-0.709952,2.17182
64,6,-13,-8,7,2,2,-1,0,0.604004,0.0610352,0.714844,5.75,0.1875,2.5,0.0613456,-0.709952,2.17182
64,-3,-35,16,8,2,-1,-1,-3,0.604004,0.0610352,0.714844,5.75,0.1875,2.5,0.0613456,-0.709952,2.17182
64,-1,60,7,-7,-8,-4,-1,0,0.604004,0.0610352,0.714844,5.75,0.1875,2.5,0.0613456,-0.709952,2.17182
78,-5,-2,-1,-5,1,-2,1,2,0.625,0.0678711,0.724609,2.8125,-0.75,2.25,0.0624196,-0.710209,2.17245
78,-3,-16,-17,2,-1,-1,-2,-6,0.625,0.0678711,0.724609,2.8125,-0.75,2.25,0.0624196,-0.710209,2.17245
86,-1,-5,16,-7,-2,-3,-3,1,0.625,0.0678711,0.724609,2.8125,-0.75,2.25,0.0624196,-0.710209,2.17245
86,1,-15,-19,-15,-5,-7,0,1,0.625,0.0678711,0.724609,2.8125,-0.75,2.25,0.0624196,-0.710209,2.17245
124,-11,-10,-37,4,1,-2,-4,-6,0.609375,0.0253906,0.726562,3.3125,-0.4375,2.375,0.06067,-0.710308,2.17563
124,8,-6,8,5,2,2,0,3,0.609375,0.0253906,0.726562,3.3125,-0.4375,2.375,0.06067,-0.710308,2.17563
124,1,-14,-8,4,-2,1,0,1,0.609375,0.0253906,0.726562,3.3125,-0.4375,2.375,0.06067,-0.710308,2.17563
124,-1,18,19,4,0,-1,-1,-1,0.609375,0.0253906,0.726562,3.3125,-0.4375,2.375,0.06067,-0.710308,2.17563
125,6,-15,6,5,2,3,0,1,0.609375,0.0253906,0.726562,3.3125,-0.4375,2.375,0.06067,-0.710308,2.17563
125,-1,11,-17,-2,-5,-4,1,-1,0.609375,0.0253906,0.726562,3.3125,-0.4375,2.375,0.06067,-0.710308,2.17563
147,-2,12,11,-7,1,-3,-2,-1,0.602051,0.0522461,0.723145,4.1875,0,2.125,0.0617439,-0.709906,2.17646
147,-1,-12,-23,-16,-6,1,1,-1,0.602051,0.0522461,0.723145,4.1875,0,2.125,0.0617439,-0.709906,2.17646
147,0,62,-3,4,5,0,-1,0,0.602051,0.0522461,0.723145,4.1875,0,2.125,0.0617439,-0.709906,2.17646
147,-9,-13,-15,4,-2,-1,-3,-3,0.602051,0.0522461,0.723145,4.1875,0,2.125,0.0617439,-0.709906,2.17646
150,11,14,3,6,3,4,3,6,0.614258,0.0605469,0.724609,2.5,-0.6875,2.125,0.0624051,-0.710036,2.1772
150,-3,43,61,12,2,-4,-3,-2,0.614258,0.0605469,0.724609,2.5,-0.6875,2.125,0.0624051,-0.710036,2.1772
153,1,-21,-62,-2,0,2,2,1,0.614258,0.0605469,0.724609,2.5,-0.6875,2.125,0.0624051,-0.710036,2.1772
153,-10,4,16,-13,-7,-10,-5,-7,0.614258,0.0605469,0.724609,2.5,-0.6875,2.125,0.0624051,-0.710036,2.1772
169,11,85,-8,-5,-3,-4,2,5,0.60498,0.0512695,0.723145,0.0625,-0.25,2.6875,0.0619108,-0.709865,2.17828
169,-14,-9,-2,-21,-14,-5,-6,-8,0.60498,0.0512695,0.723145,0.0625,-0.25,2.6875,0.0619108,-0.709865,2.17828
175,6,-6,13,10,13,3,2,2,0.60498,0.0512695,0.723145,0.0625,-0.25,2.6875,0.0619108,-0.709865,2.17828
175,13,-13,-47,29,14,8,1,3,0.60498,0.0512695,0.723145,0.0625,-0.25,2.6875,0.0619108,-0.709865,2.17828
198,-12,-54,0,-7,-6,-4,-3,-5,0.602051,0.03125,0.710938,-0.25,0.8125,3.25,0.0604164,-0.709416,2.17999
198,10,-3,-25,2,0,-4,6,8,0.602051,0.03125,0.710938,-0.25,0.8125,3.25,0.0604164,-0.709416,2.17999
199,-2,-14,42,-12,-10,0,-3,-4,0.602051,0.03125,0.710938,-0.25,0.8125,3.25,0.0604164,-0.709416,2.17999
199,7,-14,-1,-12,-4,-3,-1,1,0.602051,0.03125,0.710938,-0.25,0.8125,3.25,0.0604164,-0.709416,2.17999
212,-6,51,8,1,0,-2,-4,-6,0.619629,0.0581055,0.686523,2.4375,1.875,2.875,0.0609654,-0.709291,2.18108
212,0,-43,-18,2,3,4,1,2,0.619629,0.0581055,0.686523,2.4375,1.875,2.875,0.0609654,-0.709291,2.18108
213,2,-28,5,-5,-3,-5,-4,-3,0.619629,0.0581055,0.686523,2.4375,1.875,2.875,0.0609654,-0.709291,2.18108
213,-1,31,12,-3,-1,1,0,1,0.619629,0.0581055,0.686523,2.4375,1.875,2.875,0.0609654,-0.709291,2.18108
236,-16,-54,-9,-16,-6,-2,-2,-6,0.628418,0.0546875,0.69873,-0.5,3.8125,2.1875,0.0604905,-0.708468,2.18191
236,4,-6,-1,9,2,4,1,-1,0.628418,0.0546875,0.69873,-0.5,3.8125,2.1875,0.0604905,-0.708468,2.18191
236,-10,-25,-5,3,-4,1,0,1,0.628418,0.0546875,0.69873,-0.5,3.8125,2.1875,0.0604905,-0.708468,2.18191
236,3,14,26,-9,-3,-2,0,0,0.628418,0.0546875,0.69873,-0.5,3.8125,2.1875,0.0604905,-0.708468,2.18191
258,1,7,3,-4,-4,-1,-1,0,0.61377,0.0537109,0.698242,1.4375,4.3125,2.4375,0.0605061,-0.707252,2.18284
258,-11,-19,-33,-9,5,1,-3,-6,0.61377,0.0537109,0.698242,1.4375,4.3125,2.4375,0.0605061,-0.707252,2.18284
259,-2,-2,8,10,4,2,0,1,0.61377,0.0537109,0.698242,1.4375,4.3125,2.4375,0.0605061,-0.707252,2.18284
259,8,22,7,17,7,9,4,5,0.61377,0.0537109,0.698242,1.4375,4.3125,2.4375,0.0605061,-0.707252,2.18284
273,-15,-68,-44,-5,-4,-3,-2,-3,0.594238,0.0556641,0.693848,0.625,3.625,2.4375,0.060443,-0.706126,2.18376
273,-4,-28,11,-1,-2,-3,-1,-5,0.594238,0.0556641,0.693848,0.625,3.625,2.4375,0.060443,-0.706126,2.18376
273,5,41,16,-11,-7,-3,-2,1,0.594238,0.0556641,0.693848,0.625,3.625,2.4375,0.060443,-0.706126,2.18376
273,-8,-40,-24,-2,-4,-4,-1,-2,0.594238,0.0556641,0.693848,0.625,3.625,2.4375,0.060443,-0.706126,2.18376
304,-1,-8,14,-5,-2,0,1,-2,0.605469,0.0419922,0.708008,0.6875,2.1875,0.75,0.0602798,-0.705413,2.18438
304,1,14,-9,-6,-4,-2,-3,0,0.605469,0.0419922,0.708008,0.6875,2.1875,0.75,0.0602798,-0.705413,2.18438
304,-3,-12,4,2,0,-6,-1,-3,0.605469,0.0419922,0.708008,0.6875,2.1875,0.75,0.0602798,-0.705413,2.18438
304,-10,-1,9,8,1,1,0,-1,0.605469,0.0419922,0.708008,0.6875,2.1875,0.75,0.0602798,-0.705413,2.18438
318,27,11,-10,-3,3,3,3,5,0.617676,0.0429688,0.720703,1.5625,1.625,0.5,0.0606442,-0.704865,2.18455
318,-12,-31,7,-3,-7,-5,-6,-6,0.617676,0.0429688,0.720703,1.5625,1.625,0.5,0.0606442,-0.704865,2.18455
318,0,-5,14,-5,-1,1,1,4,0.617676,0.0429688,0.720703,1.5625,1.625,0.5,0.0606442,-0.704865,2.18455
318,-6,18,-16,-10,-5,-3,-4,-5,0.617676,0.0429688,0.720703,1.5625,1.625,0.5,0.0606442,-0.704865,2.18455
335,2,18,13,9,-3,1,-1,0,0.605957,0.0576172,0.720215,2.5,2.1875,1.3125,0.0616305,-0.704023,2.18503
335,-3,-21,17,-10,-7,-6,-1,0,0.605957,0.0576172,0.720215,2.5,2.1875,1.3125,0.0616305,-0.704023,2.18503
335,-2,-2,-10,7,9,2,-3,-2,0.605957,0.0576172,0.720215,2.5,2.1875,1.3125,0.0616305,-0.704023,2.18503
335,-9,9,-3,9,5,2,-1,-2,0.605957,0.0576172,0.720215,2.5,2.1875,1.3125,0.0616305,-0.704023,2.18503
355,-6,-37,21,3,-1,-3,-1,-5,0.594727,0.0576172,0.726074,-0.5,2.4375,1.75,0.0613051,-0.702707,2.18554
355,1,2,-12,-8,-7,-4,0,1,0.594727,0.0576172,0.726074,-0.5,2.4375,1.75,0.0613051,-0.702707,2.18554
356,-3,-18,2,-12,-5,0,-4,-5,0.594727,0.0576172,0.726074,-0.5,2.4375,1.75,0.0613051,-0.702707,2.18554
356,0,-6,31,4,1,0,0,1,0.594727,0.0576172,0.726074,-0.5,2.4375,1.75,0.0613051,-0.702707,2.18554
378,-4,25,-24,13,7,-1,1,1,0.595215,0.0517578,0.733398,-2.4375,3,1.1875,0.0601397,-0.701195,2.18618
378,10,21,0,12,6,2,2,1,0.595215,0.0517578,0.733398,-2.4375,3,1.1875,0.0601397,-0.701195,2.18618
379,-7,-12,-27,-14,-10,-6,-4,-5,0.595215,0.0517578,0.733398,-2.4375,3,1.1875,0.0601397,-0.701195,2.18618
379,-5,-12,13,-20,-12,-5,-5,-4,0.595215,0.0517578,0.733398,-2.4375,3,1.1875,0.0601397,-0.701195,2.18618
392,2,56,4,-2,0,2,-1,-1,0.591797,0.0429688,0.733887,-2.9375,2.125,0,0.0591569,-0.69991,2.18621
392,3,6,9,14,7,5,1,1,0.591797,0.0429688,0.733887,-2.9375,2.125,0,0.0591569,-0.69991,2.18621
399,0,19,18,-9,-3,-5,-2,-3,0.591797,0.0429688,0.733887,-2.9375,2.125,0,0.0591569,-0.69991,2.18621
399,10,1,-5,6,4,2,3,2,0.591797,0.0429688,0.733887,-2.9375,2.125,0,0.0591569,-0.69991,2.18621
417,-8,-29,-18,-5,-9,-7,-3,-1,0.595215,0.0336914,0.71875,-1.125,1.4375,0.125,0.0583901,-0.699231,2.18653
417,-4,-17,-23,-11,1,1,-2,-3,0.595215,0.0336914,0.71875,-1.125,1.4375,0.125,0.0583901,-0.699231,2.18653
418,3,34,15,8,3,1,1,-2,0.595215,0.0336914,0.71875,-1.125,1.4375,0.125,0.0583901,-0.699231,2.18653
418,-4,1,-1,2,2,0,-1,2,0.595215,0.0336914,0.71875,-1.125,1.4375,0.125,0.0583901,-0.699231,2.18653
438,-2,-12,8,1,1,3,0,-2,0.60498,0.0405273,0.734863,3.125,1.375,0.9375,0.0591368,-0.698474,2.18696
438,4,22,1,11,1,0,-1,4,0.60498,0.0405273,0.734863,3.125,1.375,0.9375,0.0591368,-0.698474,2.18696
439,4,-19,-14,-11,-6,-1,0,3,0.60498,0.0405273,0.734863,3.125,1.375,0.9375,0.0591368,-0.698474,2.18696
439,1,24,-12,-12,-6,-6,-3,-4,0.60498,0.0405273,0.734863,3.125,1.375,0.9375,0.0591368,-0.698474,2.18696
452,-5,6,12,3,-3,-1,-5,-4,0.59082,0.0493164,0.711426,0.4375,1,1.75,0.0589148,-0.698005,2.18764
452,4,8,-8,-3,3,-1,-2,-2,0.59082,0.0493164,0.711426,0.4375,1,1.75,0.0589148,-0.698005,2.18764
460,-2,0,4,2,-1,1,1,1,0.59082,0.0493164,0.711426,0.4375,1,1.75,0.0589148,-0.698005,2.18764
460,3,-31,5,-3,-1,-1,2,1,0.59082,0.0493164,0.711426,0.4375,1,1.75,0.0589148,-0.698005,2.18764
475,-3,-15,-9,0,0,-2,-1,-1,0.609375,0.0244141,0.716309,-1.125,0.5,1.625,0.057514,-0.698142,2.1889
475,0,41,-9,-12,-5,0,-1,0,0.609375,0.0244141,0.716309,-1.125,0.5,1.625,0.057514,-0.698142,2.1889
476,-12,-1,-21,-2,0,0,-2,-5,0.609375,0.0244141,0.716309,-1.125,0.5,1.625,0.057514,-0.698142,2.1889
476,4,40,7,9,4,0,-2,-1,0.609375,0.0244141,0.716309,-1.125,0.5,1.625,0.057514,-0.698142,2.1889
498,11,-12,12,25,8,4,4,6,0.604492,0.0366211,0.714355,-0.125,1.3125,1.875,0.056827,-0.69774,2.18976
498,-10,-12,-27,-6,-10,-10,-4,-2,0.604492,0.0366211,0.714355,-0.125,1.3125,1.875,0.056827,-0.69774,2.18976
498,-11,-17,-4,-3,-1,6,0,-2,0.604492,0.0366211,0.714355,-0.125,1.3125,1.875,0.056827,-0.69774,2.18976
498,-3,14,-3,-15,-3,2,1,-4,0.604492,0.0366211,0.714355,-0.125,1.3125,1.875,0.056827,-0.69774,2.18976
514,5,-14,-1,-5,0,-9,-2,3,0.597168,0.0488281,0.724121,-1.375,1.75,1.75,0.056002,-0.697031,2.19061
514,14,56,29,0,-2,-5,1,4,0.597168,0.0488281,0.724121,-1.375,1.75,1.75,0.056002,-0.697031,2.19061
520,-18,-39,-47,0,-2,0,-6,-8,0.597168,0.0488281,0.724121,-1.375,1.75,1.75,0.056002,-0.697031,2.19061
520,-24,25,-8,-11,-8,-12,-8,-13,0.597168,0.0488281,0.724121,-1.375,1.75,1.75,0.056002,-0.697031,2.19061
535,3,14,26,1,0,2,2,2,0.595703,0.0571289,0.733887,-0.8125,0.25,0.4375,0.0560605,-0.69683,2.19053
535,1,-14,-26,-10,-3,0,4,4,0.595703,0.0571289,0.733887,-0.8125,0.25,0.4375,0.0560605,-0.69683,2.19053
536,18,21,51,29,8,2,6,8,0.595703,0.0571289,0.733887,-0.8125,0.25,0.4375,0.0560605,-0.69683,2.19053
536,9,5,-16,13,6,7,0,1,0.595703,0.0571289,0.733887,-0.8125,0.25,0.4375,0.0560605,-0.69683,2.19053
558,15,-3,-3,-1,1,2,-2,-5,0.611328,0.0620117,0.700684,0,0.75,0.5625,0.0562853,-0.696846,2.1903
558,-5,28,-7,-6,-5,-5,-3,-6,0.611328,0.0620117,0.700684,0,0.75,0.5625,0.0562853,-0.696846,2.1903
559,-14,-10,9,-33,-17,-10,-3,-6,0.611328,0.0620117,0.700684,0,0.75,0.5625,0.0562853,-0.696846,2.1903
559,11,-46,-8,3,4,0,1,5,0.611328,0.0620117,0.700684,0,0.75,0.5625,0.0562853,-0.696846,2.1903
581,0,8,-15,2,1,1,-1,-1,0.638184,0.0419922,0.688965,1.375,1.25,1.9375,0.0563276,-0.697601,2.19128
581,-2,-40,13,13,6,4,3,1,0.638184,0.0419922,0.688965,1.375,1.25,1.9375,0.0563276,-0.697601,2.19128
581,6,17,7,2,1,-2,0,1,0.638184,0.0419922,0.688965,1.375,1.25,1.9375,0.0563276,-0.697601,2.19128
581,-4,24,17,-10,-9,-8,-2,-1,0.638184,0.0419922,0.688965,1.375,1.25,1.9375,0.0563276,-0.697601,2.19128
595,-7,-41,-9,-12,0,1,0,1,0.63916,0.027832,0.673828,0.75,2.1875,2.6875,0.0554447,-0.698269,2.19262
595,-2,-9,8,2,0,5,-3,-2,0.63916,0.027832,0.673828,0.75,2.1875,2.6875,0.0554447,-0.698269,2.19262
596,4,13,-13,2,0,-1,-2,-1,0.63916,0.027832,0.673828,0.75,2.1875,2.6875,0.0554447,-0.698269,2.19262
596,-12,-15,43,-1,2,-2,0,-2,0.63916,0.027832,0.673828,0.75,2.1875,2.6875,0.0554447,-0.698269,2.19262
618,-1,13,-5,13,3,1,1,-4,0.630371,0.0400391,0.699707,3.375,3.375,2.125,0.0560092,-0.697928,2.19371
618,4,7,23,19,6,5,4,4,0.630371,0.0400391,0.699707,3.375,3.375,2.125,0.0560092,-0.697928,2.19371
618,15,37,-2,2,-3,5,6,8,0.630371,0.0400391,0.699707,3.375,3.375,2.125,0.0560092,-0.697928,2.19371
618,-5,-19,-37,-24,-9,-1,-10,-4,0.630371,0.0400391,0.699707,3.375,3.375,2.125,0.0560092,-0.697928,2.19371
633,2,11,7,-4,0,0,-3,-5,0.620117,0.0566406,0.758789,3.875,3.5625,3.6875,0.0565464,-0.696436,2.19529
633,-6,-2,1,12,7,7,1,-3,0.620117,0.0566406,0.758789,3.875,3.5625,3.6875,0.0565464,-0.696436,2.19529
640,2,1,0,2,-1,-7,1,1,0.620117,0.0566406,0.758789,3.875,3.5625,3.6875,0.0565464,-0.696436,2.19529
640,9,-5,0,3,-4,-5,-2,3,0.620117,0.0566406,0.758789,3.875,3.5625,3.6875,0.0565464,-0.696436,2.19529
655,-16,23,-12,-17,-8,-9,-4,-4,0.59375,0.0786133,0.767578,-4.375,3.8125,2.8125,0.0553523,-0.694305,2.19591
655,-1,13,36,-6,-4,-2,-2,-1,0.59375,0.0786133,0.767578,-4.375,3.8125,2.8125,0.0553523,-0.694305,2.19591
657,-4,-58,-38,3,5,10,-3,-7,0.59375,0.0786133,0.767578,-4.375,3.8125,2.8125,0.0553523,-0.694305,2.19591
657,15,10,13,4,9,25,9,5,0.59375,0.0786133,0.767578,-4.375,3.8125,2.8125,0.0553523,-0.694305,2.19591
678,0,-16,-5,-1,-1,16,7,3,0.569336,0.0522461,0.779297,-5.875,2.6875,1.4375,0.053187,-0.691922,2.19644
678,-5,24,0,-3,-5,-42,-2,-2,0.569336,0.0522461,0.779297,-5.875,2.6875,1.4375,0.053187,-0.691922,2.19644
679,-5,-1,11,-2,-13,-24,-13,-15,0.569336,0.0522461,0.779297,-5.875,2.6875,1.4375,0.053187,-0.691922,2.19644
679,-8,-47,-16,0,2,5,0,-3,0.569336,0.0522461,0.779297,-5.875,2.6875,1.4375,0.053187,-0.691922,2.19644
694,-6,-2,-4,-4,-3,-2,-4,-3,0.55127,0.0253906,0.790527,-0.75,1.5,-1.3125,0.0528026,-0.689363,2.19625
694,7,15,-7,1,4,21,4,5,0.55127,0.0253906,0.790527,-0.75,1.5,-1.3125,0.0528026,-0.689363,2.19625
699,-2,-15,-2,-8,1,4,2,3,0.55127,0.0253906,0.790527,-0.75,1.5,-1.3125,0.0528026,-0.689363,2.19625
699,17,2,-28,-1,-5,-12,0,8,0.55127,0.0253906,0.790527,-0.75,1.5,-1.3125,0.0528026,-0.689363,2.19625
716,-3,-22,25,4,4,6,6,3,0.566406,0.0161133,0.768066,7.8125,-1.375,-3.5625,0.0557092,-0.688524,2.19506
716,-20,-12,7,-3,-1,2,0,-10,0.566406,0.0161133,0.768066,7.8125,-1.375,-3.5625,0.0557092,-0.688524,2.19506
716,8,7,13,12,2,-16,-5,5,0.566406,0.0161133,0.768066,7.8125,-1.375,-3.5625,0.0557092,-0.688524,2.19506
716,-5,12,1,4,4,9,-1,-6,0.566406,0.0161133,0.768066,7.8125,-1.375,-3.5625,0.0557092,-0.688524,2.19506
738,2,40,3,-3,0,-9,-3,2,0.593262,0.0654297,0.737793,14,-1.9375,-2.3125,0.0618881,-0.688833,2.19368
738,3,2,-13,-7,-2,3,0,0,0.593262,0.0654297,0.737793,14,-1.9375,-2.3125,0.0618881,-0.688833,2.19368
739,4,6,14,3,1,-2,2,4,0.593262,0.0654297,0.737793,14,-1.9375,-2.3125,0.0618881,-0.688833,2.19368
739,3,7,4,-7,-5,-4,2,-2,0.593262,0.0654297,0.737793,14,-1.9375,-2.3125,0.0618881,-0.688833,2.19368
753,-3,29,7,-3,-2,-5,-4,0,0.619629,0.0703125,0.712891,7.8125,-0.5625,-0.75,0.0656314,-0.689552,2.1928
753,-5,-15,2,4,0,-1,-6,-2,0.619629,0.0703125,0.712891,7.8125,-0.5625,-0.75,0.0656314,-0.689552,2.1928
760,0,37,1,2,1,7,3,-2,0.619629,0.0703125,0.712891,7.8125,-0.5625,-0.75,0.0656314,-0.689552,2.1928
760,-12,27,-2,-6,-5,-12,-5,-1,0.619629,0.0703125,0.712891,7.8125,-0.5625,-0.75,0.0656314,-0.689552,2.1928
784,-6,-37,-11,-8,-5,-8,-5,-8,0.624512,0.0571289,0.70459,1.9375,2.9375,-0.5625,0.0667991,-0.689337,2.19251
784,7,-5,-23,8,4,8,4,4,0.624512,0.0571289,0.70459,1.9375,2.9375,-0.5625,0.0667991,-0.689337,2.19251
785,4,-6,10,9,9,1,-1,3,0.624512,0.0571289,0.70459,1.9375,2.9375,-0.5625,0.0667991,-0.689337,2.19251
785,0,-12,2,7,0,-2,-1,0,0.624512,0.0571289,0.70459,1.9375,2.9375,-0.5625,0.0667991,-0.689337,2.19251
807,0,35,-24,-6,-6,-5,-2,-5,0.612793,0.0981445,0.688477,8.875,3.9375,-1.125,0.0716468,-0.688688,2.19101
807,2,-13,11,-32,-15,-8,-5,-3,0.612793,0.0981445,0.688477,8.875,3.9375,-1.125,0.0716468,-0.688688,2.19101
807,-7,-18,0,-4,4,11,1,-3,0.612793,0.0981445,0.688477,8.875,3.9375,-1.125,0.0716468,-0.688688,2.19101
807,8,-7,-2,22,5,0,-2,2,0.612793,0.0981445,0.688477,8.875,3.9375,-1.125,0.0716468,-0.688688,2.19101
820,-6,-10,32,21,5,1,2,-2,0.605957,0.0830078,0.690918,6.0625,3.8125,-2.5,0.0753533,-0.687953,2.18938
820,8,-16,-37,2,1,-2,3,8,0.605957,0.0830078,0.690918,6.0625,3.8125,-2.5,0.0753533,-0.687953,2.18938
821,-18,-27,43,-26,-20,-16,-7,-10,0.605957,0.0830078,0.690918,6.0625,3.8125,-2.5,0.0753533,-0.687953,2.18938
821,-3,40,5,-9,1,3,2,0,0.605957,0.0830078,0.690918,6.0625,3.8125,-2.5,0.0753533,-0.687953,2.18938
836,2,10,-28,-11,-4,-1,0,3,0.629883,0.0517578,0.688965,5.8125,3,-1.5,0.0777202,-0.688014,2.18897
836,-7,-32,13,2,-2,3,-9,-13,0.629883,0.0517578,0.688965,5.8125,3,-1.5,0.0777202,-0.688014,2.18897
836,0,15,-23,4,0,-3,-2,0,0.629883,0.0517578,0.688965,5.8125,3,-1.5,0.0777202,-0.688014,2.18897
836,-8,-43,-10,2,4,7,2,-3,0.629883,0.0517578,0.688965,5.8125,3,-1.5,0.0777202,-0.688014,2.18897
858,-2,-9,8,-2,-3,-1,-2,1,0.623047,0.034668,0.706543,6.625,2.125,0.625,0.0790644,-0.68811,2.18979
858,-3,-4,-7,3,6,1,1,2,0.623047,0.034668,0.706543,6.625,2.125,0.625,0.0790644,-0.68811,2.18979
859,6,21,-14,1,2,3,1,4,0.623047,0.034668,0.706543,6.625,2.125,0.625,0.0790644,-0.68811,2.18979
859,-9,-36,-5,-12,-10,-9,-4,-2,0.623047,0.034668,0.706543,6.625,2.125,0.625,0.0790644,-0.68811,2.18979
880,5,29,-1,-8,-3,-3,-2,-2,0.607422,0.0668945,0.713379,0.9375,-0.5,2.5,0.0789724,-0.688609,2.19073
880,2,-8,-1,8,0,-3,-2,-1,0.607422,0.0668945,0.713379,0.9375,-0.5,2.5,0.0789724,-0.688609,2.19073
881,17,37,5,13,5,4,1,1,0.607422,0.0668945,0.713379,0.9375,-0.5,2.5,0.0789724,-0.688609,2.19073
881,-1,25,16,-2,-8,-8,1,-2,0.607422,0.0668945,0.713379,0.9375,-0.5,2.5,0.0789724,-0.688609,2.19073
896,-1,-51,-1,-2,4,4,0,1,0.60498,0.0791016,0.751465,-4.0625,-1.375,-1.5625,0.0787452,-0.68871,2.18951
896,-5,36,4,-6,-5,0,0,-3,0.60498,0.0791016,0.751465,-4.0625,-1.375,-1.5625,0.0787452,-0.68871,2.18951
896,-5,7,-21,5,0,-1,-2,-1,0.60498,0.0791016,0.751465,-4.0625,-1.375,-1.5625,0.0787452,-0.68871,2.18951
896,-14,17,4,-4,-1,-1,-1,-2,0.60498,0.0791016,0.751465,-4.0625,-1.375,-1.5625,0.0787452,-0.68871,2.18951
918,12,13,24,12,5,2,1,1,0.542969,0.0800781,0.747559,-7,-4,-3.9375,0.0782604,-0.688588,2.18718
918,-2,-4,-11,1,-1,-4,-2,-2,0.542969,0.0800781,0.747559,-7,-4,-3.9375,0.0782604,-0.688588,2.18718
918,-5,0,-6,-9,-7,6,0,0,0.542969,0.0800781,0.747559,-7,-4,-3.9375,0.0782604,-0.688588,2.18718
918,9,-11,12,-2,-1,-2,0,3,0.542969,0.0800781,0.747559,-7,-4,-3.9375,0.0782604,-0.688588,2.18718
941,-14,-7,-39,-13,-7,-5,-5,-5,0.544922,0.0595703,0.763184,-4.5625,-6.3125,-4.5,0.0780163,-0.689027,2.18496
941,0,10,8,11,7,2,-1,-1,0.544922,0.0595703,0.763184,-4.5625,-6.3125,-4.5,0.0780163,-0.689027,2.18496
941,-6,-2,12,1,-3,-3,2,-1,0.544922,0.0595703,0.763184,-4.5625,-6.3125,-4.5,0.0780163,-0.689027,2.18496
941,-4,-10,-5,-2,-4,-3,-1,-1,0.544922,0.0595703,0.763184,-4.5625,-6.3125,-4.5,0.0780163,-0.689027,2.18496
955,4,21,8,0,-1,0,2,3,0.561523,0.0664062,0.752441,1,-7.875,-6.0625,0.0804392,-0.690323,2.18191
955,-2,-11,-22,-6,-2,-5,-3,0,0.561523,0.0664062,0.752441,1,-7.875,-6.0625,0.0804392,-0.690323,2.18191
956,7,5,6,-3,0,0,1,1,0.561523,0.0664062,0.752441,1,-7.875,-6.0625,0.0804392,-0.690323,2.18191
956,-11,-4,-13,4,5,1,0,-1,0.561523,0.0664062,0.752441,1,-7.875,-6.0625,0.0804392,-0.690323,2.18191
978,7,-48,9,14,5,1,0,4,0.574219,0.074707,0.734375,1.6875,-7.75,-6.8125,0.0836885,-0.692149,2.17818
978,-7,37,8,-13,-12,-3,-3,-6,0.574219,0.074707,0.734375,1.6875,-7.75,-6.8125,0.0836885,-0.692149,2.17818
978,-25,-11,4,-6,-3,-7,-3,-1,0.574219,0.074707,0.734375,1.6875,-7.75,-6.8125,0.0836885,-0.692149,2.17818
978,27,-9,-5,0,1,1,0,-4,0.574219,0.074707,0.734375,1.6875,-7.75,-6.8125,0.0836885,-0.692149,2.17818
1000,-4,-7,-3,5,0,2,1,-1,0.59668,0.0527344,0.730957,3.4375,-6.1875,-7.1875,0.0866608,-0.693767,2.17494
1000,-1,-3,10,-9,-7,-5,2,3,0.59668,0.0527344,0.730957,3.4375,-6.1875,-7.1875,0.0866608,-0.693767,2.17494
1001,2,-13,-13,2,0,3,-1,-2,0.59668,0.0527344,0.730957,3.4375,-6.1875,-7.1875,0.0866608,-0.693767,2.17494
1001,-7,1,20,15,9,3,-1,0,0.59668,0.0527344,0.730957,3.4375,-6.1875,-7.1875,0.0866608,-0.693767,2.17494
1015,-5,-16,4,9,3,-1,-3,-3,0.586914,0.0458984,0.736328,1,-4.875,-4.6875,0.0879793,-0.694847,2.17299
1015,10,-3,-1,5,2,-1,2,3,0.586914,0.0458984,0.736328,1,-4.875,-4.6875,0.0879793,-0.694847,2.17299
1016,-4,14,-21,-9,-5,-1,-2,-4,0.586914,0.0458984,0.736328,1,-4.875,-4.6875,0.0879793,-0.694847,2.17299
1016,-8,-8,-4,-16,-9,-2,-2,-1,0.586914,0.0458984,0.736328,1,-4.875,-4.6875,0.0879793,-0.694847,2.17299
1039,0,45,1,-4,-5,-3,-3,-3,0.59082,0.0844727,0.73877,1.5,-4.25,-2.9375,0.0899373,-0.695585,2.1712
1039,-10,-47,-16,-4,-2,-3,-4,-3,0.59082,0.0844727,0.73877,1.5,-4.25,-2.9375,0.0899373,-0.695585,2.1712
1039,5,-11,-8,-6,-5,-2,1,2,0.59082,0.0844727,0.73877,1.5,-4.25,-2.9375,0.0899373,-0.695585,2.1712
1039,-4,17,-8,0,-1,-1,-3,-5,0.59082,0.0844727,0.73877,1.5,-4.25,-2.9375,0.0899373,-0.695585,2.1712
1061,-9,-24,-2,0,0,-2,0,-1,0.589355,0.0922852,0.733887,-3.375,-2.875,-4.875,0.0910243,-0.695901,2.16845
1061,4,8,5,6,6,2,1,2,0.589355,0.0922852,0.733887,-3.375,-2.875,-4.875,0.0910243,-0.695901,2.16845
1061,1,9,1,-1,1,-2,-3,-2,0.589355,0.0922852,0.733887,-3.375,-2.875,-4.875,0.0910243,-0.695901,2.16845
1061,10,5,5,-3,-3,-1,-2,0,0.589355,0.0922852,0.733887,-3.375,-2.875,-4.875,0.0910243,-0.695901,2.16845
1076,-7,-17,-5,-5,-5,-7,-2,0,0.584473,0.0732422,0.724121,0.8125,-1.25,-5.8125,0.0933395,-0.695737,2.16562
1076,-8,-15,-5,0,3,4,-1,-2,0.584473,0.0732422,0.724121,0.8125,-1.25,-5.8125,0.0933395,-0.695737,2.16562
1076,1,16,7,2,0,1,0,1,0.584473,0.0732422,0.724121,0.8125,-1.25,-5.8125,0.0933395,-0.695737,2.16562
1076,-5,1,-11,-6,-6,-1,1,-1,0.584473,0.0732422,0.724121,0.8125,-1.25,-5.8125,0.0933395,-0.695737,2.16562
1097,8,15,8,-7,-7,-5,-1,2,0.604492,0.0400391,0.706543,-2.75,-1.5625,-5.8125,0.0932188,-0.696424,2.1635
1097,6,43,44,21,8,3,0,0,0.604492,0.0400391,0.706543,-2.75,-1.5625,-5.8125,0.0932188,-0.696424,2.1635
1105,-11,-67,-25,0,2,3,-1,-4,0.604492,0.0400391,0.706543,-2.75,-1.5625,-5.8125,0.0932188,-0.696424,2.1635
1105,-3,-1,8,-2,-1,-1,-1,-1,0.604492,0.0400391,0.706543,-2.75,-1.5625,-5.8125,0.0932188,-0.696424,2.1635
1121,0,10,-13,0,1,2,-2,-1,0.65918,0.0673828,0.701172,0.1875,-3,-8.25,0.0957381,-0.698308,2.15958
1121,6,23,8,-6,-4,-5,0,0,0.65918,0.0673828,0.701172,0.1875,-3,-8.25,0.0957381,-0.698308,2.15958
1121,5,6,5,-1,-3,-1,-1,3,0.65918,0.0673828,0.701172,0.1875,-3,-8.25,0.0957381,-0.698308,2.15958
1121,-2,-23,-11,-2,-2,-4,-2,-3,0.65918,0.0673828,0.701172,0.1875,-3,-8.25,0.0957381,-0.698308,2.15958
1144,2,4,4,-5,-2,-1,1,-2,0.664062,0.059082,0.663086,1.25,-4.5625,-7.375,0.0982232,-0.701515,2.15617
1144,0,-16,-9,-2,2,2,0,1,0.664062,0.059082,0.663086,1.25,-4.5625,-7.375,0.0982232,-0.701515,2.15617
1144,7,2,3,1,0,-3,1,2,0.664062,0.059082,0.663086,1.25,-4.5625,-7.375,0.0982232,-0.701515,2.15617
1144,1,40,14,-6,-1,5,1,1,0.664062,0.059082,0.663086,1.25,-4.5625,-7.375,0.0982232,-0.701515,2.15617
1158,-5,47,-5,14,6,1,-1,-1,0.733887,0.0878906,0.645996,-2.5625,-6.8125,-6.8125,0.100269,-0.707009,2.15232
1158,-8,-46,-14,3,-4,-1,-2,-4,0.733887,0.0878906,0.645996,-2.5625,-6.8125,-6.8125,0.100269,-0.707009,2.15232
1166,-2,14,5,-1,-3,-2,0,0,0.733887,0.0878906,0.645996,-2.5625,-6.8125,-6.8125,0.100269,-0.707009,2.15232
1166,-3,0,-6,-9,-7,-7,-3,-1,0.733887,0.0878906,0.645996,-2.5625,-6.8125,-6.8125,0.100269,-0.707009,2.15232
1181,1,-11,2,-8,-2,-1,-1,0,0.841309,0.0947266,0.597168,-4.6875,-7.8125,-9.375,0.102804,-0.715188,2.147
1181,1,-8,-7,-4,-4,-1,-2,-1,0.841309,0.0947266,0.597168,-4.6875,-7.8125,-9.375,0.102804,-0.715188,2.147
1181,1,15,10,0,3,1,-1,-1,0.841309,0.0947266,0.597168,-4.6875,-7.8125,-9.375,0.102804,-0.715188,2.147
1181,-5,-14,4,5,3,1,0,0,0.841309,0.0947266,0.597168,-4.6875,-7.8125,-9.375,0.102804,-0.715188,2.147
1203,1,-7,2,-2,-3,-1,-2,-3,0.932129,0.109863,0.506836,-17.1875,-7.8125,-10.1875,0.101929,-0.726255,2.14072
1203,2,1,-8,-3,-2,2,0,2,0.932129,0.109863,0.506836,-17.1875,-7.8125,-10.1875,0.101929,-0.726255,2.14072
1203,5,2,6,3,0,1,-1,-1,0.932129,0.109863,0.506836,-17.1875,-7.8125,-10.1875,0.101929,-0.726255,2.14072
1203,-5,34,8,2,0,-2,-1,-1,0.932129,0.109863,0.506836,-17.1875,-7.8125,-10.1875,0.101929,-0.726255,2.14072
1218,-3,-30,-8,-1,-4,3,2,-1,0.953613,0.101562,0.490234,-26.1875,-7.9375,-8.75,0.0975529,-0.737815,2.13513
1218,3,-9,-2,0,-1,-2,0,2,0.953613,0.101562,0.490234,-26.1875,-7.9375,-8.75,0.0975529,-0.737815,2.13513
1226,-8,-23,-19,-10,-9,-5,-4,-6,0.953613,0.101562,0.490234,-26.1875,-7.9375,-8.75,0.0975529,-0.737815,2.13513
1226,-6,-8,-17,2,-2,1,0,-1,0.953613,0.101562,0.490234,-26.1875,-7.9375,-8.75,0.0975529,-0.737815,2.13513
1249,-2,-9,4,1,0,-1,-1,3,0.943359,0.0673828,0.498047,-27,-9.75,-6.9375,0.0914069,-0.749541,2.13081
1249,-5,-5,14,-6,-4,-3,-6,-6,0.943359,0.0673828,0.498047,-27,-9.75,-6.9375,0.0914069,-0.749541,2.13081
1250,0,-5,-2,6,4,2,0,-1,0.943359,0.0673828,0.498047,-27,-9.75,-6.9375,0.0914069,-0.749541,2.13081
1250,4,-11,10,2,-2,-2,-2,-1,0.943359,0.0673828,0.498047,-27,-9.75,-6.9375,0.0914069,-0.749541,2.13081
1263,0,29,-20,-10,-4,-3,-1,-3,0.974121,0.0830078,0.516113,-23.8125,-12.9375,-10.5625,0.0881545,-0.762167,2.12438
1263,4,5,-1,1,2,1,2,1,0.974121,0.0830078,0.516113,-23.8125,-12.9375,-10.5625,0.0881545,-0.762167,2.12438
1264,-4,64,13,-5,-4,-4,-2,-4,0.974121,0.0830078,0.516113,-23.8125,-12.9375,-10.5625,0.0881545,-0.762167,2.12438
1264,-4,-15,-36,0,-1,-5,-2,-3,0.974121,0.0830078,0.516113,-23.8125,-12.9375,-10.5625,0.0881545,-0.762167,2.12438
1278,4,4,23,-1,0,-1,1,3,0.980957,0.116699,0.535156,-18.25,-16.4375,-13.9375,0.0891475,-0.775304,2.11545
1278,3,23,7,1,2,-2,-4,-2,0.980957,0.116699,0.535156,-18.25,-16.4375,-13.9375,0.0891475,-0.775304,2.11545
1285,-2,10,-6,0,1,-2,-3,-1,0.980957,0.116699,0.535156,-18.25,-16.4375,-13.9375,0.0891475,-0.775304,2.11545
1285,3,23,14,0,-1,1,1,4,0.980957,0.116699,0.535156,-18.25,-16.4375,-13.9375,0.0891475,-0.775304,2.11545
1300,-2,-6,-13,-5,-1,2,-1,-2,0.92334,0.119629,0.544922,-17.8125,-26.5,-13.0625,0.0907961,-0.790427,2.10617
1300,-2,25,-10,1,-3,-3,1,-1,0.92334,0.119629,0.544922,-17.8125,-26.5,-13.0625,0.0907961,-0.790427,2.10617
1301,-2,1,12,4,-1,-2,-2,-1,0.92334,0.119629,0.544922,-17.8125,-26.5,-13.0625,0.0907961,-0.790427,2.10617
1301,1,-3,-8,-1,0,-3,-1,-1,0.92334,0.119629,0.544922,-17.8125,-26.5,-13.0625,0.0907961,-0.790427,2.10617
1323,-1,14,0,1,-1,-3,-3,-2,0.902344,0.115234,0.540527,-12.125,-39.1875,-12.8125,0.0945731,-0.809087,2.09639
1323,-2,15,0,-6,-5,-4,1,-1,0.902344,0.115234,0.540527,-12.125,-39.1875,-12.8125,0.0945731,-0.809087,2.09639
1323,-1,-11,-5,-2,0,0,0,0,0.902344,0.115234,0.540527,-12.125,-39.1875,-12.8125,0.0945731,-0.809087,2.09639
1323,3,42,6,-5,-4,-4,-3,-2,0.902344,0.115234,0.540527,-12.125,-39.1875,-12.8125,0.0945731,-0.809087,2.09639
1346,-4,8,6,-2,1,2,-1,-4,0.95459,0.140625,0.52832,-7.1875,-49.5,-17.5625,0.10346,-0.831709,2.08279
1346,1,6,-14,-1,0,3,0,-1,0.95459,0.140625,0.52832,-7.1875,-49.5,-17.5625,0.10346,-0.831709,2.08279
1346,6,-8,-16,-4,0,3,1,1,0.95459,0.140625,0.52832,-7.1875,-49.5,-17.5625,0.10346,-0.831709,2.08279
1346,4,-19,36,16,6,3,2,2,0.95459,0.140625,0.52832,-7.1875,-49.5,-17.5625,0.10346,-0.831709,2.08279
1361,-8,-59,-2,-7,-7,-6,-1,-2,0.979492,0.174805,0.536621,-6.3125,-56.5625,-22.5,0.116484,-0.856021,2.06477
1361,3,9,1,2,-1,-1,-5,-2,0.979492,0.174805,0.536621,-6.3125,-56.5625,-22.5,0.116484,-0.856021,2.06477
1361,1,-49,-16,-4,0,-1,-3,-3,0.979492,0.174805,0.536621,-6.3125,-56.5625,-22.5,0.116484,-0.856021,2.06477
1361,-7,-26,-1,-1,-1,1,-2,1,0.979492,0.174805,0.536621,-6.3125,-56.5625,-22.5,0.116484,-0.856021,2.06477
1383,2,-34,-6,2,3,-2,1,0,0.929688,0.220215,0.546875,-8.4375,-61.75,-25.625,0.132779,-0.88012,2.0427
1383,-5,-7,9,-1,-2,0,2,0,0.929688,0.220215,0.546875,-8.4375,-61.75,-25.625,0.132779,-0.88012,2.0427
1383,-2,-43,-8,0,-2,-3,1,0,0.929688,0.220215,0.546875,-8.4375,-61.75,-25.625,0.132779,-0.88012,2.0427
1383,0,-12,7,-4,-2,-3,-1,-3,0.929688,0.220215,0.546875,-8.4375,-61.75,-25.625,0.132779,-0.88012,2.0427
1414,0,-7,-8,-2,-1,1,-1,-2,0.854004,0.177734,0.533691,-10.5625,-70.4375,-25.75,0.148222,-0.90547,2.02012
1414,-3,-8,-4,3,1,2,-2,-3,0.854004,0.177734,0.533691,-10.5625,-70.4375,-25.75,0.148222,-0.90547,2.02012
1414,0,12,1,-1,0,-1,0,-1,0.854004,0.177734,0.533691,-10.5625,-70.4375,-25.75,0.148222,-0.90547,2.02012
1414,-1,-12,-4,-3,-3,-2,-2,-2,0.854004,0.177734,0.533691,-10.5625,-70.4375,-25.75,0.148222,-0.90547,2.02012
1420,1,10,1,-3,-4,-4,-1,-1,0.865723,0.13623,0.51709,-8.875,-79.125,-30.0625,0.166252,-0.933151,1.99435
1420,-3,-14,-4,-4,-1,-2,-1,-2,0.865723,0.13623,0.51709,-8.875,-79.125,-30.0625,0.166252,-0.933151,1.99435
1420,2,38,6,5,2,0,1,1,0.865723,0.13623,0.51709,-8.875,-79.125,-30.0625,0.166252,-0.933151,1.99435
1420,-5,-52,-16,-1,-2,-3,-3,-1,0.865723,0.13623,0.51709,-8.875,-79.125,-30.0625,0.166252,-0.933151,1.99435
1443,1,29,4,-5,-1,2,-3,-2,0.888184,0.151367,0.503418,-1.375,-84.75,-37.0625,0.192949,-0.961872,1.96171
1443,0,-1,-1,1,1,-1,-1,-1,0.888184,0.151367,0.503418,-1.375,-84.75,-37.0625,0.192949,-0.961872,1.96171
1443,-1,4,4,-2,-3,-1,0,-1,0.888184,0.151367,0.503418,-1.375,-84.75,-37.0625,0.192949,-0.961872,1.96171
1443,0,18,-7,-4,-5,-1,-1,0,0.888184,0.151367,0.503418,-1.375,-84.75,-37.0625,0.192949,-0.961872,1.96171
1467,3,5,0,1,0,2,-3,2,0.890625,0.1875,0.516113,3,-86.625,-42.625,0.227532,-0.989175,1.92218
1467,0,-13,2,-2,1,0,-1,0,0.890625,0.1875,0.516113,3,-86.625,-42.625,0.227532,-0.989175,1.92218
1467,2,2,-1,1,1,-1,-1,2,0.890625,0.1875,0.516113,3,-86.625,-42.625,0.227532,-0.989175,1.92218
1467,-2,15,7,-2,0,-1,1,-2,0.890625,0.1875,0.516113,3,-86.625,-42.625,0.227532,-0.989175,1.92218
1480,-5,1,3,0,-1,-1,0,-2,0.84082,0.223145,0.514648,-7.125,-91.3125,-44.125,0.264494,-1.01568,1.87688
1480,-2,-9,-4,-3,-1,0,-1,-1,0.84082,0.223145,0.514648,-7.125,-91.3125,-44.125,0.264494,-1.01568,1.87688
1481,-4,0,12,-4,-6,-5,-4,-2,0.84082,0.223145,0.514648,-7.125,-91.3125,-44.125,0.264494,-1.01568,1.87688
1481,3,3,-8,5,5,5,0,1,0.84082,0.223145,0.514648,-7.125,-91.3125,-44.125,0.264494,-1.01568,1.87688
1504,3,3,-4,0,0,2,-1,-1,0.817383,0.147949,0.491211,-8.5625,-96.25,-46.5625,0.302879,-1.04249,1.82835
1504,-3,-32,-9,-6,-3,-5,1,-1,0.817383,0.147949,0.491211,-8.5625,-96.25,-46.5625,0.302879,-1.04249,1.82835
1504,0,-8,4,0,-1,0,-1,0,0.817383,0.147949,0.491211,-8.5625,-96.25,-46.5625,0.302879,-1.04249,1.82835
1504,-2,-15,-14,-8,-4,-1,-4,-3,0.817383,0.147949,0.491211,-8.5625,-96.25,-46.5625,0.302879,-1.04249,1.82835
1526,-1,5,17,4,2,0,0,1,0.825684,0.11084,0.469727,-10.9375,-98.625,-45.6875,0.342457,-1.06949,1.77782
1526,2,-3,-3,4,3,0,0,1,0.825684,0.11084,0.469727,-10.9375,-98.625,-45.6875,0.342457,-1.06949,1.77782
1527,1,11,-1,2,0,0,2,-1,0.825684,0.11084,0.469727,-10.9375,-98.625,-45.6875,0.342457,-1.06949,1.77782
1527,-2,5,3,0,-2,-1,1,-1,0.825684,0.11084,0.469727,-10.9375,-98.625,-45.6875,0.342457,-1.06949,1.77782
1540,-1,-3,-6,-5,-4,-4,-1,0,0.807129,0.11377,0.449707,-6.625,-104.188,-46.5,0.392325,-1.09725,1.71829
1540,-1,4,-4,-3,-3,-2,0,0,0.807129,0.11377,0.449707,-6.625,-104.188,-46.5,0.392325,-1.09725,1.71829
1541,-4,1,0,-4,-2,-3,-1,-2,0.807129,0.11377,0.449707,-6.625,-104.188,-46.5,0.392325,-1.09725,1.71829
1541,0,2,3,-2,1,-2,0,1,0.807129,0.11377,0.449707,-6.625,-104.188,-46.5,0.392325,-1.09725,1.71829
1562,1,16,1,6,2,2,-1,-3,0.836426,0.111816,0.408691,-14.3125,-106.875,-53.0625,0.451367,-1.12371,1.64693
1562,-6,-12,9,-1,-2,-1,-2,-5,0.836426,0.111816,0.408691,-14.3125,-106.875,-53.0625,0.451367,-1.12371,1.64693
1564,-3,-9,-9,0,1,-1,0,-2,0.836426,0.111816,0.408691,-14.3125,-106.875,-53.0625,0.451367,-1.12371,1.64693
1564,1,6,-3,-3,-4,-1,-1,1,0.836426,0.111816,0.408691,-14.3125,-106.875,-53.0625,0.451367,-1.12371,1.64693
1586,1,-14,-4,0,-1,-1,-2,1,0.86084,0.11377,0.415527,-16.875,-104.562,-56.25,0.517912,-1.14686,1.56692
1586,2,31,12,1,1,2,-2,1,0.86084,0.11377,0.415527,-16.875,-104.562,-56.25,0.517912,-1.14686,1.56692
1587,-1,19,-2,1,0,1,-1,0,0.86084,0.11377,0.415527,-16.875,-104.562,-56.25,0.517912,-1.14686,1.56692
1587,-1,-5,-1,1,-1,-3,-3,-1,0.86084,0.11377,0.415527,-16.875,-104.562,-56.25,0.517912,-1.14686,1.56692
1601,1,4,-6,-3,-4,-3,-1,-2,0.828125,0.140625,0.384766,-22.375,-102.562,-51,0.585859,-1.16756,1.48375
1601,-4,-41,-7,-1,0,2,-1,-1,0.828125,0.140625,0.384766,-22.375,-102.562,-51,0.585859,-1.16756,1.48375
1601,-1,24,2,-3,-1,-1,1,-2,0.828125,0.140625,0.384766,-22.375,-102.562,-51,0.585859,-1.16756,1.48375
1601,0,-14,0,4,1,0,-1,0,0.828125,0.140625,0.384766,-22.375,-102.562,-51,0.585859,-1.16756,1.48375
1623,-4,-16,0,-2,0,-2,0,-3,0.811035,0.187988,0.379395,-17.375,-97.9375,-47.375,0.654676,-1.18355,1.40145
1623,1,-8,-11,-2,-3,0,-2,-1,0.811035,0.187988,0.379395,-17.375,-97.9375,-47.375,0.654676,-1.18355,1.40145
1624,-1,-23,8,0,-2,0,0,0,0.811035,0.187988,0.379395,-17.375,-97.9375,-47.375,0.654676,-1.18355,1.40145
1624,-1,0,-2,-4,-1,0,1,0,0.811035,0.187988,0.379395,-17.375,-97.9375,-47.375,0.654676,-1.18355,1.40145
1647,0,-11,-2,-2,-2,-3,0,1,0.808594,0.182129,0.309082,-26.0625,-90.125,-49.375,0.724439,-1.19604,1.31591
1647,-3,0,-7,-5,-3,-1,0,0,0.808594,0.182129,0.309082,-26.0625,-90.125,-49.375,0.724439,-1.19604,1.31591
1647,0,-9,1,1,1,0,1,1,0.808594,0.182129,0.309082,-26.0625,-90.125,-49.375,0.724439,-1.19604,1.31591
1647,1,-1,1,0,1,0,-1,-1,0.808594,0.182129,0.309082,-26.0625,-90.125,-49.375,0.724439,-1.19604,1.31591
1660,-1,5,3,1,-1,-1,-2,-1,0.828125,0.181641,0.33252,-47.0625,-77.8125,-52.25,0.782745,-1.20236,1.23491
1660,0,5,4,1,0,0,0,0,0.828125,0.181641,0.33252,-47.0625,-77.8125,-52.25,0.782745,-1.20236,1.23491
1661,1,15,-2,-3,-2,-2,0,2,0.828125,0.181641,0.33252,-47.0625,-77.8125,-52.25,0.782745,-1.20236,1.23491
1661,-5,1,-1,-1,-2,0,-1,-2,0.828125,0.181641,0.33252,-47.0625,-77.8125,-52.25,0.782745,-1.20236,1.23491
1690,-1,1,-10,1,1,-1,-1,0,0.791504,0.208496,0.34668,-54.75,-65.4375,-53.25,0.832221,-1.20289,1.16073
1690,-1,10,8,-4,-1,0,-2,-2,0.791504,0.208496,0.34668,-54.75,-65.4375,-53.25,0.832221,-1.20289,1.16073
1692,-1,-15,-2,1,-1,-2,-1,-2,0.791504,0.208496,0.34668,-54.75,-65.4375,-53.25,0.832221,-1.20289,1.16073
1692,-2,-13,-5,0,0,-1,-1,0,0.791504,0.208496,0.34668,-54.75,-65.4375,-53.25,0.832221,-1.20289,1.16073
1706,1,4,3,2,3,-1,1,-3,0.714355,0.200684,0.301758,-48.625,-55.5,-46.9375,0.874038,-1.20146,1.09647
1706,2,-9,-1,1,-1,-1,0,-1,0.714355,0.200684,0.301758,-48.625,-55.5,-46.9375,0.874038,-1.20146,1.09647
1707,-4,14,-5,-1,-2,-2,0,-1,0.714355,0.200684,0.301758,-48.625,-55.5,-46.9375,0.874038,-1.20146,1.09647
1707,-1,-6,0,-1,-1,-1,-1,-1,0.714355,0.200684,0.301758,-48.625,-55.5,-46.9375,0.874038,-1.20146,1.09647
1720,-2,-6,-1,-2,-2,-2,-2,0,0.672363,0.242676,0.286133,-45.875,-50.0625,-35.5625,0.908279,-1.20025,1.04196
1720,0,12,-2,-4,-1,-2,-1,-1,0.672363,0.242676,0.286133,-45.875,-50.0625,-35.5625,0.908279,-1.20025,1.04196
1721,-1,-2,3,-2,0,1,-2,-2,0.672363,0.242676,0.286133,-45.875,-50.0625,-35.5625,0.908279,-1.20025,1.04196
1721,0,5,-1,1,0,-1,-1,-1,0.672363,0.242676,0.286133,-45.875,-50.0625,-35.5625,0.908279,-1.20025,1.04196
1743,-2,4,1,-1,-2,0,-1,1,0.687012,0.214355,0.244141,-42.25,-39,-29.6875,0.932863,-1.19917,0.999236
1743,-1,7,-4,-1,-2,-2,-1,0,0.687012,0.214355,0.244141,-42.25,-39,-29.6875,0.932863,-1.19917,0.999236
1743,0,0,0,0,-1,-2,-3,-2,0.687012,0.214355,0.244141,-42.25,-39,-29.6875,0.932863,-1.19917,0.999236
1743,-2,6,-2,-4,-1,0,-1,-2,0.687012,0.214355,0.244141,-42.25,-39,-29.6875,0.932863,-1.19917,0.999236
1766,-1,-8,-1,-2,-4,-1,0,-1,0.705078,0.216797,0.276855,-43.9375,-25.3125,-24.8125,0.942113,-1.19585,0.971765
1766,-4,13,-1,0,-2,-2,-1,-3,0.705078,0.216797,0.276855,-43.9375,-25.3125,-24.8125,0.942113,-1.19585,0.971765
1767,0,-10,-2,0,-1,0,-4,-1,0.705078,0.216797,0.276855,-43.9375,-25.3125,-24.8125,0.942113,-1.19585,0.971765
1767,1,5,1,2,1,-1,1,-1,0.705078,0.216797,0.276855,-43.9375,-25.3125,-24.8125,0.942113,-1.19585,0.971765
1780,2,1,2,-1,-1,-1,-2,0,0.693359,0.225586,0.329102,-34.4375,-13.375,-20.25,0.941272,-1.19042,0.958178
1780,-4,-5,-5,-1,1,-1,-1,0,0.693359,0.225586,0.329102,-34.4375,-13.375,-20.25,0.941272,-1.19042,0.958178
1781,1,-6,10,2,1,0,0,0,0.693359,0.225586,0.329102,-34.4375,-13.375,-20.25,0.941272,-1.19042,0.958178
1781,0,-5,-8,0,1,0,0,-1,0.693359,0.225586,0.329102,-34.4375,-13.375,-20.25,0.941272,-1.19042,0.958178
1803,-2,-4,-3,0,2,-1,-1,-2,0.666016,0.262207,0.361816,-24.5,-4.9375,-10.8125,0.932782,-1.18508,0.957109
1803,1,24,3,-2,-1,0,-3,-1,0.666016,0.262207,0.361816,-24.5,-4.9375,-10.8125,0.932782,-1.18508,0.957109
1803,-3,-9,-6,-4,-1,-1,-2,-2,0.666016,0.262207,0.361816,-24.5,-4.9375,-10.8125,0.932782,-1.18508,0.957109
1803,0,10,-5,0,-4,1,0,0,0.666016,0.262207,0.361816,-24.5,-4.9375,-10.8125,0.932782,-1.18508,0.957109
1826,0,7,-2,1,-3,-2,-2,-2,0.651367,0.267578,0.37207,-15.125,-1.1875,-2.5625,0.921042,-1.18063,0.962481
1826,-1,2,1,-1,0,0,0,1,0.651367,0.267578,0.37207,-15.125,-1.1875,-2.5625,0.921042,-1.18063,0.962481
1827,-1,-1,-3,-4,-3,1,-2,2,0.651367,0.267578,0.37207,-15.125,-1.1875,-2.5625,0.921042,-1.18063,0.962481
1827,-1,-1,0,0,-1,1,1,-1,0.651367,0.267578,0.37207,-15.125,-1.1875,-2.5625,0.921042,-1.18063,0.962481
1840,-1,-4,-5,-2,1,3,-1,-1,0.687988,0.22168,0.396973,-11.0625,0,8,0.901672,-1.17994,0.977728
1840,0,-3,-2,1,-1,1,-2,-2,0.687988,0.22168,0.396973,-11.0625,0,8,0.901672,-1.17994,0.977728
1848,-2,-2,-2,-2,-3,3,-1,-2,0.687988,0.22168,0.396973,-11.0625,0,8,0.901672,-1.17994,0.977728
1848,0,-2,-2,-1,0,1,-3,-2,0.687988,0.22168,0.396973,-11.0625,0,8,0.901672,-1.17994,0.977728
1863,2,1,1,-2,-1,2,0,0,0.776855,0.165527,0.459473,-5.25,-1.0625,18.75,0.874586,-1.1828,1.00236
1863,-3,2,5,1,1,2,1,0,0.776855,0.165527,0.459473,-5.25,-1.0625,18.75,0.874586,-1.1828,1.00236
1863,2,-1,-1,0,-2,-2,0,-1,0.776855,0.165527,0.459473,-5.25,-1.0625,18.75,0.874586,-1.1828,1.00236
1863,-1,-2,6,1,-1,-1,-2,-2,0.776855,0.165527,0.459473,-5.25,-1.0625,18.75,0.874586,-1.1828,1.00236
1886,-3,3,-4,-3,-2,-3,-1,0,0.853027,0.132324,0.506836,5.6875,-2.75,26.5,0.844167,-1.18851,1.03447
1886,3,0,-1,-1,-3,-3,0,1,0.853027,0.132324,0.506836,5.6875,-2.75,26.5,0.844167,-1.18851,1.03447
1887,2,1,-1,0,0,-2,0,1,0.853027,0.132324,0.506836,5.6875,-2.75,26.5,0.844167,-1.18851,1.03447
1887,-1,0,1,-1,-1,-2,0,-1,0.853027,0.132324,0.506836,5.6875,-2.75,26.5,0.844167,-1.18851,1.03447
1900,2,7,4,-2,-1,-2,0,-1,0.913086,0.138184,0.495605,17.0625,-6.0625,29.625,0.818701,-1.19585,1.06583
1900,-2,-5,7,2,1,-4,-1,-3,0.913086,0.138184,0.495605,17.0625,-6.0625,29.625,0.818701,-1.19585,1.06583
1901,-2,0,-2,-1,1,-3,-1,0,0.913086,0.138184,0.495605,17.0625,-6.0625,29.625,0.818701,-1.19585,1.06583
1901,-1,-1,3,-1,0,-2,1,-1,0.913086,0.138184,0.495605,17.0625,-6.0625,29.625,0.818701,-1.19585,1.06583
1923,0,-2,-4,-2,0,-5,-1,1,0.930176,0.170898,0.476074,19.0625,-9.0625,34.1875,0.794813,-1.20453,1.09655
1923,1,-2,0,0,-1,-3,1,-1,0.930176,0.170898,0.476074,19.0625,-9.0625,34.1875,0.794813,-1.20453,1.09655
1924,-1,-2,1,2,-1,-5,-1,-2,0.930176,0.170898,0.476074,19.0625,-9.0625,34.1875,0.794813,-1.20453,1.09655
1924,1,-7,0,-1,0,-3,0,1,0.930176,0.170898,0.476074,19.0625,-9.0625,34.1875,0.794813,-1.20453,1.09655
1946,-6,-8,-6,-1,-2,-4,-3,-3,0.915527,0.154785,0.429199,21.9375,-10.8125,39.0625,0.770765,-1.21498,1.12845
1946,0,-7,-7,-3,-1,-3,-2,-2,0.915527,0.154785,0.429199,21.9375,-10.8125,39.0625,0.770765,-1.21498,1.12845
1947,-1,-4,0,-3,2,-3,-1,-1,0.915527,0.154785,0.429199,21.9375,-10.8125,39.0625,0.770765,-1.21498,1.12845
1947,2,-2,-2,-4,-3,-2,0,0,0.915527,0.154785,0.429199,21.9375,-10.8125,39.0625,0.770765,-1.21498,1.12845
1969,3,-3,0,0,-1,0,1,0,0.92334,0.0537109,0.438477,32.375,-11.5625,41.125,0.74215,-1.22719,1.16837
1969,1,-1,-3,-1,-5,-1,0,1,0.92334,0.0537109,0.438477,32.375,-11.5625,41.125,0.74215,-1.22719,1.16837
1969,-3,0,-4,-3,-4,1,0,-2,0.92334,0.0537109,0.438477,32.375,-11.5625,41.125,0.74215,-1.22719,1.16837
1969,-2,-1,1,-2,-2,-2,-2,-1,0.92334,0.0537109,0.438477,32.375,-11.5625,41.125,0.74215,-1.22719,1.16837
1983,-3,-2,2,-2,-2,-1,-2,-1,1.021,-0.0126953,0.475098,43.0625,-11.3125,32.6875,0.716915,-1.23792,1.20841
1983,0,-7,-3,1,1,-1,-3,0,1.021,-0.0126953,0.475098,43.0625,-11.3125,32.6875,0.716915,-1.23792,1.20841
1984,2,-1,2,2,-1,1,-1,0,1.021,-0.0126953,0.475098,43.0625,-11.3125,32.6875,0.716915,-1.23792,1.20841
1984,-6,0,-3,-2,0,-3,-2,-2,1.021,-0.0126953,0.475098,43.0625,-11.3125,32.6875,0.716915,-1.23792,1.20841
2006,-1,3,-2,0,1,-1,-1,-1,1.12012,-0.0239258,0.505371,50.25,-12.375,23.625,0.697878,-1.24686,1.24414
2006,-1,0,-4,-1,-1,0,-1,0,1.12012,-0.0239258,0.505371,50.25,-12.375,23.625,0.697878,-1.24686,1.24414
2007,-1,2,-1,-1,-2,-1,1,-1,1.12012,-0.0239258,0.505371,50.25,-12.375,23.625,0.697878,-1.24686,1.24414
2007,-1,2,-1,-2,-1,0,1,-1,1.12012,-0.0239258,0.505371,50.25,-12.375,23.625,0.697878,-1.24686,1.24414
2020,0,1,-1,-1,-1,2,0,-1,1.15186,0.0341797,0.466797,49.9375,-12.6875,22.8125,0.684189,-1.25547,1.27512
2020,0,4,-2,-4,-2,0,-1,-1,1.15186,0.0341797,0.466797,49.9375,-12.6875,22.8125,0.684189,-1.25547,1.27512
2028,0,1,0,0,0,1,-2,-1,1.15186,0.0341797,0.466797,49.9375,-12.6875,22.8125,0.684189,-1.25547,1.27512
2028,3,3,1,-1,1,-3,-2,-3,1.15186,0.0341797,0.466797,49.9375,-12.6875,22.8125,0.684189,-1.25547,1.27512
2043,-2,-1,0,-2,-1,-3,-1,-2,1.12256,0.12793,0.391113,33.6875,-11.75,26.5,0.670081,-1.26363,1.301
2043,-3,-2,1,-1,-1,-1,1,0,1.12256,0.12793,0.391113,33.6875,-11.75,26.5,0.670081,-1.26363,1.301
2044,-2,-1,-8,-2,-1,-2,-2,-1,1.12256,0.12793,0.391113,33.6875,-11.75,26.5,0.670081,-1.26363,1.301
2044,-1,0,-1,1,-1,-3,0,-1,1.12256,0.12793,0.391113,33.6875,-11.75,26.5,0.670081,-1.26363,1.301
2066,-2,-5,-2,-2,-4,-3,0,1,1.01904,0.182617,0.361816,3.1875,-11.5625,29,0.647209,-1.27091,1.32533
2066,-3,-4,0,0,-1,-1,-2,-2,1.01904,0.182617,0.361816,3.1875,-11.5625,29,0.647209,-1.27091,1.32533
2067,-2,-2,0,-3,-3,-1,1,0,1.01904,0.182617,0.361816,3.1875,-11.5625,29,0.647209,-1.27091,1.32533
2067,0,-3,-3,-1,-1,0,-1,-1,1.01904,0.182617,0.361816,3.1875,-11.5625,29,0.647209,-1.27091,1.32533
2080,-4,-5,-3,-2,0,-1,-2,0,0.921875,0.131836,0.370117,-18.25,-12.625,30.9375,0.611647,-1.27858,1.3551
2080,-3,-4,-2,-2,-2,-4,-1,0,0.921875,0.131836,0.370117,-18.25,-12.625,30.9375,0.611647,-1.27858,1.3551
2088,-3,-3,1,0,-1,-1,2,-1,0.921875,0.131836,0.370117,-18.25,-12.625,30.9375,0.611647,-1.27858,1.3551
2088,1,-1,0,1,-1,-2,0,-1,0.921875,0.131836,0.370117,-18.25,-12.625,30.9375,0.611647,-1.27858,1.3551
2103,1,-5,-1,3,0,0,0,0,0.869141,0.0302734,0.384277,-19.25,-14.4375,30.125,0.569008,-1.28661,1.39129
2103,2,0,-1,0,0,-1,-1,0,0.869141,0.0302734,0.384277,-19.25,-14.4375,30.125,0.569008,-1.28661,1.39129
2103,-3,1,-1,-1,-1,0,-2,-1,0.869141,0.0302734,0.384277,-19.25,-14.4375,30.125,0.569008,-1.28661,1.39129
2103,0,1,-3,-3,-1,-1,-1,0,0.869141,0.0302734,0.384277,-19.25,-14.4375,30.125,0.569008,-1.28661,1.39129
2126,-1,-1,-1,0,1,0,0,-2,0.839355,-0.0444336,0.372559,-3.375,-15.125,26.6875,0.529371,-1.29456,1.42951
2126,-1,-2,1,-1,-3,-1,1,-3,0.839355,-0.0444336,0.372559,-3.375,-15.125,26.6875,0.529371,-1.29456,1.42951
2126,1,-2,-2,-1,0,-1,0,0,0.839355,-0.0444336,0.372559,-3.375,-15.125,26.6875,0.529371,-1.29456,1.42951
2126,1,-1,1,-1,-1,-1,1,-1,0.839355,-0.0444336,0.372559,-3.375,-15.125,26.6875,0.529371,-1.29456,1.42951
2139,0,2,-3,-2,0,1,1,0,0.826172,-0.0385742,0.341309,20.3125,-12.5,23.75,0.500396,-1.30131,1.46577
2139,1,-2,-4,-2,-2,0,-1,-1,0.826172,-0.0385742,0.341309,20.3125,-12.5,23.75,0.500396,-1.30131,1.46577
2149,3,3,2,2,-1,0,0,-1,0.826172,-0.0385742,0.341309,20.3125,-12.5,23.75,0.500396,-1.30131,1.46577
2149,-6,0,-3,0,-1,0,-2,0,0.826172,-0.0385742,0.341309,20.3125,-12.5,23.75,0.500396,-1.30131,1.46577
2163,-2,-1,0,0,0,0,-1,-2,0.799316,0.050293,0.296387,33.9375,-7.5,20.375,0.484942,-1.30536,1.49357
2163,-1,1,0,-1,-1,0,0,0,0.799316,0.050293,0.296387,33.9375,-7.5,20.375,0.484942,-1.30536,1.49357
2163,0,1,3,-1,-2,-1,-1,0,0.799316,0.050293,0.296387,33.9375,-7.5,20.375,0.484942,-1.30536,1.49357
2163,0,1,0,2,-2,1,-1,-2,0.799316,0.050293,0.296387,33.9375,-7.5,20.375,0.484942,-1.30536,1.49357
2186,-1,2,0,-1,0,-1,0,0,0.777344,0.103516,0.306641,30.125,-3.1875,19.1875,0.470772,-1.30706,1.51909
2186,-1,1,0,-1,0,-2,-1,0,0.777344,0.103516,0.306641,30.125,-3.1875,19.1875,0.470772,-1.30706,1.51909
2187,0,-2,0,0,1,-1,-2,-2,0.777344,0.103516,0.306641,30.125,-3.1875,19.1875,0.470772,-1.30706,1.51909
2187,-1,-1,-1,-3,1,0,-2,-1,0.777344,0.103516,0.306641,30.125,-3.1875,19.1875,0.470772,-1.30706,1.51909
2200,-1,-1,-1,0,-2,-2,-2,-2,0.773926,0.0727539,0.310547,16.3125,-2.1875,16.8125,0.451553,-1.30772,1.54417
2200,0,1,-4,0,-1,0,0,-1,0.773926,0.0727539,0.310547,16.3125,-2.1875,16.8125,0.451553,-1.30772,1.54417
2209,-5,-4,-4,-1,-1,0,-1,-1,0.773926,0.0727539,0.310547,16.3125,-2.1875,16.8125,0.451553,-1.30772,1.54417
2209,1,2,-3,-1,-5,-1,-1,0,0.773926,0.0727539,0.310547,16.3125,-2.1875,16.8125,0.451553,-1.30772,1.54417
2223,0,2,2,-3,-3,1,0,-1,0.814453,0.0117188,0.314941,8.3125,-1.9375,12.875,0.42899,-1.30838,1.56952
2223,-5,-1,0,-2,0,1,-1,-1,0.814453,0.0117188,0.314941,8.3125,-1.9375,12.875,0.42899,-1.30838,1.56952
2224,-2,2,0,-2,1,-2,-1,-2,0.814453,0.0117188,0.314941,8.3125,-1.9375,12.875,0.42899,-1.30838,1.56952
2224,-1,1,-2,-2,2,1,0,-1,0.814453,0.0117188,0.314941,8.3125,-1.9375,12.875,0.42899,-1.30838,1.56952
2247,-1,1,2,0,-1,1,-1,0,0.845215,-0.0185547,0.317871,8.3125,-0.4375,8.1875,0.408535,-1.30871,1.59329
2247,1,0,0,0,-2,-2,-1,0,0.845215,-0.0185547,0.317871,8.3125,-0.4375,8.1875,0.408535,-1.30871,1.59329
2247,-1,-1,-2,-2,-1,-2,-1,-1,0.845215,-0.0185547,0.317871,8.3125,-0.4375,8.1875,0.408535,-1.30871,1.59329
2247,-1,-2,0,1,1,0,0,-1,0.845215,-0.0185547,0.317871,8.3125,-0.4375,8.1875,0.408535,-1.30871,1.59329
2269,1,0,2,1,-1,-2,-1,1,0.849121,-0.00292969,0.316895,12,1.125,3.375,0.396183,-1.30707,1.60914
2269,-1,0,0,-1,-2,-3,-3,-1,0.849121,-0.00292969,0.316895,12,1.125,3.375,0.396183,-1.30707,1.60914
2269,4,5,3,0,0,0,0,-1,0.849121,-0.00292969,0.316895,12,1.125,3.375,0.396183,-1.30707,1.60914
2269,-4,1,-1,-3,-3,-2,-2,-1,0.849121,-0.00292969,0.316895,12,1.125,3.375,0.396183,-1.30707,1.60914
2283,0,-3,-3,-2,-2,1,-3,-1,0.86084,0.0361328,0.311523,11.25,2.1875,-1.125,0.392099,-1.30458,1.61681
2283,2,-2,-2,-1,0,0,1,-2,0.86084,0.0361328,0.311523,11.25,2.1875,-1.125,0.392099,-1.30458,1.61681
2283,-1,0,-1,-1,-1,1,-2,1,0.86084,0.0361328,0.311523,11.25,2.1875,-1.125,0.392099,-1.30458,1.61681
2283,0,0,0,0,-1,0,0,0,0.86084,0.0361328,0.311523,11.25,2.1875,-1.125,0.392099,-1.30458,1.61681
2306,-2,1,-1,-1,-3,-3,-2,0,0.883301,0.0498047,0.295898,7.0625,3.5625,-5,0.392479,-1.30182,1.61894
2306,-3,-1,-3,-2,0,-1,-2,-1,0.883301,0.0498047,0.295898,7.0625,3.5625,-5,0.392479,-1.30182,1.61894
2307,-3,-4,-1,-1,-2,-3,-1,-1,0.883301,0.0498047,0.295898,7.0625,3.5625,-5,0.392479,-1.30182,1.61894
2307,-1,-3,2,0,0,-1,-1,-2,0.883301,0.0498047,0.295898,7.0625,3.5625,-5,0.392479,-1.30182,1.61894
2329,2,-3,2,-1,0,-3,-1,-1,0.900391,0.0600586,0.285156,0,5.5,-10.4375,0.397055,-1.29801,1.61409
2329,0,-5,-2,0,-1,1,-1,0,0.900391,0.0600586,0.285156,0,5.5,-10.4375,0.397055,-1.29801,1.61409
2329,-2,-2,0,0,-2,-2,0,-1,0.900391,0.0600586,0.285156,0,5.5,-10.4375,0.397055,-1.29801,1.61409
2329,1,-2,-4,-2,1,0,-2,0,0.900391,0.0600586,0.285156,0,5.5,-10.4375,0.397055,-1.29801,1.61409
2343,-2,-1,-3,-1,0,-1,-1,-3,0.908691,0.0703125,0.280762,-4.4375,8.4375,-14.75,0.403954,-1.29216,1.60439
2343,2,0,-1,-1,-1,-1,0,-2,0.908691,0.0703125,0.280762,-4.4375,8.4375,-14.75,0.403954,-1.29216,1.60439
2343,-1,-1,-4,1,1,0,1,-2,0.908691,0.0703125,0.280762,-4.4375,8.4375,-14.75,0.403954,-1.29216,1.60439
2343,-1,4,0,1,-3,-2,1,1,0.908691,0.0703125,0.280762,-4.4375,8.4375,-14.75,0.403954,-1.29216,1.60439
2367,0,0,-1,-1,-4,0,1,-1,0.913574,0.0874023,0.267578,-7.75,11.0625,-18.6875,0.414197,-1.28609,1.59113
2367,2,-3,-2,-2,1,1,-1,0,0.913574,0.0874023,0.267578,-7.75,11.0625,-18.6875,0.414197,-1.28609,1.59113
2367,-2,-5,-1,1,0,2,-2,-2,0.913574,0.0874023,0.267578,-7.75,11.0625,-18.6875,0.414197,-1.28609,1.59113
2367,2,-3,0,1,0,1,-1,-1,0.913574,0.0874023,0.267578,-7.75,11.0625,-18.6875,0.414197,-1.28609,1.59113
2389,0,-6,-4,-1,0,-1,-1,0,0.937012,0.123047,0.281738,-8.3125,12.0625,-21.125,0.427599,-1.27851,1.57405
2389,-10,-5,-2,-1,-1,-2,-1,-4,0.937012,0.123047,0.281738,-8.3125,12.0625,-21.125,0.427599,-1.27851,1.57405
2389,2,2,1,-3,-2,-2,-1,2,0.937012,0.123047,0.281738,-8.3125,12.0625,-21.125,0.427599,-1.27851,1.57405
2389,-1,-6,-8,-3,-1,-2,-1,0,0.937012,0.123047,0.281738,-8.3125,12.0625,-21.125,0.427599,-1.27851,1.57405
2403,-2,1,0,-2,1,-1,0,-1,0.98877,0.133789,0.294922,-5.875,11.8125,-24.6875,0.445141,-1.27095,1.55385
2403,2,-1,-3,-2,-4,-2,1,0,0.98877,0.133789,0.294922,-5.875,11.8125,-24.6875,0.445141,-1.27095,1.55385
2404,-2,1,2,0,1,0,-1,-2,0.98877,0.133789,0.294922,-5.875,11.8125,-24.6875,0.445141,-1.27095,1.55385
2404,-8,-5,0,-3,-2,-3,-4,-3,0.98877,0.133789,0.294922,-5.875,11.8125,-24.6875,0.445141,-1.27095,1.55385
2426,1,0,2,1,0,1,-2,0,1.05029,0.163086,0.264648,-11.3125,12.375,-28.5,0.465728,-1.26307,1.52812
2426,0,0,-2,0,1,-1,-2,-1,1.05029,0.163086,0.264648,-11.3125,12.375,-28.5,0.465728,-1.26307,1.52812
2426,-2,-2,-2,0,-3,-3,-1,-1,1.05029,0.163086,0.264648,-11.3125,12.375,-28.5,0.465728,-1.26307,1.52812
2426,4,2,4,1,-1,0,1,0,1.05029,0.163086,0.264648,-11.3125,12.375,-28.5,0.465728,-1.26307,1.52812
2449,0,0,1,0,-1,-1,-2,-1,0.991699,0.261719,0.180664,-22.0625,19.0625,-25.625,0.484888,-1.25402,1.501
2449,-3,-4,-16,-4,-2,0,0,-2,0.991699,0.261719,0.180664,-22.0625,19.0625,-25.625,0.484888,-1.25402,1.501
2449,-1,-1,-2,-2,-3,0,-1,-1,0.991699,0.261719,0.180664,-22.0625,19.0625,-25.625,0.484888,-1.25402,1.501
2449,1,4,2,-1,0,0,0,3,0.991699,0.261719,0.180664,-22.0625,19.0625,-25.625,0.484888,-1.25402,1.501
2463,-3,2,0,-2,1,-1,-1,-1,0.798828,0.352539,0.113281,-32.8125,28.6875,-18.25,0.49578,-1.24235,1.47945
2463,-2,-2,3,1,-1,0,0,0,0.798828,0.352539,0.113281,-32.8125,28.6875,-18.25,0.49578,-1.24235,1.47945
2463,1,-4,-4,0,0,-1,1,0,0.798828,0.352539,0.113281,-32.8125,28.6875,-18.25,0.49578,-1.24235,1.47945
2463,-2,-6,-4,-3,-3,-2,1,-2,0.798828,0.352539,0.113281,-32.8125,28.6875,-18.25,0.49578,-1.24235,1.47945
2486,2,-2,-1,0,-2,0,-2,0,0.590332,0.39502,0.12793,-30.375,36.4375,-8.9375,0.496779,-1.2275,1.46936
2486,-1,-1,1,-2,0,-1,-2,-1,0.590332,0.39502,0.12793,-30.375,36.4375,-8.9375,0.496779,-1.2275,1.46936
2486,0,-2,0,-1,0,0,0,-2,0.590332,0.39502,0.12793,-30.375,36.4375,-8.9375,0.496779,-1.2275,1.46936
2486,-1,0,4,2,-2,-1,0,-1,0.590332,0.39502,0.12793,-30.375,36.4375,-8.9375,0.496779,-1.2275,1.46936
2509,2,-1,-1,-1,0,0,0,1,0.507324,0.340332,0.230957,-11.1875,35.875,-1.3125,0.491391,-1.21229,1.47295
2509,-1,1,-2,2,-2,-1,-1,-2,0.507324,0.340332,0.230957,-11.1875,35.875,-1.3125,0.491391,-1.21229,1.47295
2509,0,-1,-3,0,1,0,-2,1,0.507324,0.340332,0.230957,-11.1875,35.875,-1.3125,0.491391,-1.21229,1.47295
2509,-3,2,-2,-1,0,0,-3,-1,0.507324,0.340332,0.230957,-11.1875,35.875,-1.3125,0.491391,-1.21229,1.47295
2523,-5,0,-2,-3,-2,-2,-2,-4,0.687012,0.21875,0.456055,25.625,23,-1.75,0.49012,-1.19957,1.48366
2523,2,4,4,-1,-1,-1,1,2,0.687012,0.21875,0.456055,25.625,23,-1.75,0.49012,-1.19957,1.48366
2524,4,14,7,-1,-2,-1,2,1,0.687012,0.21875,0.456055,25.625,23,-1.75,0.49012,-1.19957,1.48366
2524,-1,-33,-13,-1,-3,-2,-2,-3,0.687012,0.21875,0.456055,25.625,23,-1.75,0.49012,-1.19957,1.48366
2545,0,-19,-4,0,-2,-3,1,-1,1.15967,0.105957,0.59375,63,0,-4.0625,0.502209,-1.19622,1.49247
2545,2,7,1,-2,-2,-2,-2,0,1.15967,0.105957,0.59375,63,0,-4.0625,0.502209,-1.19622,1.49247
2547,0,4,-1,-2,-3,-2,-2,-1,1.15967,0.105957,0.59375,63,0,-4.0625,0.502209,-1.19622,1.49247
2547,4,11,6,-1,0,-1,0,0,1.15967,0.105957,0.59375,63,0,-4.0625,0.502209,-1.19622,1.49247
2569,2,6,-15,-1,-1,0,-1,-2,1.46387,0.233887,0.501953,68.0625,-9.4375,-2.0625,0.528406,-1.19926,1.48953
2569,-2,-3,-1,-2,0,1,0,0,1.46387,0.233887,0.501953,68.0625,-9.4375,-2.0625,0.528406,-1.19926,1.48953
2569,-1,1,0,2,-1,-1,1,-1,1.46387,0.233887,0.501953,68.0625,-9.4375,-2.0625,0.528406,-1.19926,1.48953
2569,-4,7,-2,0,-1,0,-1,-1,1.46387,0.233887,0.501953,68.0625,-9.4375,-2.0625,0.528406,-1.19926,1.48953
2591,-5,-2,9,2,2,0,-1,0,1.20264,0.442383,0.463379,43.1875,-8.25,14.75,0.544981,-1.20052,1.48893
2591,-4,-1,-2,-2,0,0,0,0,1.20264,0.442383,0.463379,43.1875,-8.25,14.75,0.544981,-1.20052,1.48893
2592,-5,-3,-6,-2,1,0,-1,-1,1.20264,0.442383,0.463379,43.1875,-8.25,14.75,0.544981,-1.20052,1.48893
2592,-6,1,5,-1,2,0,0,-1,1.20264,0.442383,0.463379,43.1875,-8.25,14.75,0.544981,-1.20052,1.48893
2606,-6,0,0,0,-1,-1,-1,0,0.95459,0.508789,0.375488,15.9375,-8.4375,21.5625,0.553905,-1.20175,1.48731
2606,-5,-5,0,1,1,-1,-3,-2,0.95459,0.508789,0.375488,15.9375,-8.4375,21.5625,0.553905,-1.20175,1.48731
2606,-6,-9,-1,-1,0,0,-1,0,0.95459,0.508789,0.375488,15.9375,-8.4375,21.5625,0.553905,-1.20175,1.48731
2606,1,-1,0,0,-1,0,0,1,0.95459,0.508789,0.375488,15.9375,-8.4375,21.5625,0.553905,-1.20175,1.48731
2636,-5,1,2,-4,-2,-2,0,-2,0.793945,0.455078,0.260254,-19.4375,-5.125,22.1875,0.549664,-1.20397,1.4872
2636,0,-6,-6,-2,-1,-1,-1,0,0.793945,0.455078,0.260254,-19.4375,-5.125,22.1875,0.549664,-1.20397,1.4872
2636,-4,-7,-3,-2,-3,0,-3,0,0.793945,0.455078,0.260254,-19.4375,-5.125,22.1875,0.549664,-1.20397,1.4872
2636,-1,0,-2,-1,-1,-1,-1,-2,0.793945,0.455078,0.260254,-19.4375,-5.125,22.1875,0.549664,-1.20397,1.4872
2643,0,-1,-2,-2,-1,0,1,1,0.622559,0.305176,0.214355,-35.0625,0.25,25.5,0.527931,-1.20604,1.49872
2643,0,-4,2,0,0,-2,-2,-1,0.622559,0.305176,0.214355,-35.0625,0.25,25.5,0.527931,-1.20604,1.49872
2643,-2,-8,0,-2,-1,-1,-1,-3,0.622559,0.305176,0.214355,-35.0625,0.25,25.5,0.527931,-1.20604,1.49872
2643,1,-4,-1,0,-3,-3,-1,-1,0.622559,0.305176,0.214355,-35.0625,0.25,25.5,0.527931,-1.20604,1.49872
2666,2,-5,-2,-3,-2,0,-2,0,0.449219,0.128906,0.208496,-8.8125,2.125,20.8125,0.508162,-1.20738,1.51704
2666,1,-1,-3,-1,-2,-1,-1,-1,0.449219,0.128906,0.208496,-8.8125,2.125,20.8125,0.508162,-1.20738,1.51704
2667,3,-3,0,0,0,0,-1,0,0.449219,0.128906,0.208496,-8.8125,2.125,20.8125,0.508162,-1.20738,1.51704
2667,3,9,2,0,1,0,-2,0,0.449219,0.128906,0.208496,-8.8125,2.125,20.8125,0.508162,-1.20738,1.51704
2689,1,9,1,-1,1,-1,-3,0,0.402832,0.0825195,0.223145,36.3125,-0.625,14.75,0.50661,-1.20802,1.53165
2689,2,6,0,-1,-1,-1,-2,0,0.402832,0.0825195,0.223145,36.3125,-0.625,14.75,0.50661,-1.20802,1.53165
2690,-1,4,-4,-1,-3,-3,0,-2,0.50293,0.141113,0.236816,68,-3.875,18.0625,0.517711,-1.21043,1.54538
2690,1,2,-3,-3,-1,0,-2,0,0.50293,0.141113,0.236816,68,-3.875,18.0625,0.517711,-1.21043,1.54538
2702,0,0,-1,1,1,0,0,-1,0.50293,0.141113,0.236816,68,-3.875,18.0625,0.517711,-1.21043,1.54538
2702,1,-1,0,-2,2,-1,0,-1,0.50293,0.141113,0.236816,68,-3.875,18.0625,0.517711,-1.21043,1.54538
2711,0,-1,-1,-1,-1,-3,-2,-1,0.622559,0.182617,0.278809,72.5,-6.375,24.25,0.527643,-1.21415,1.56177
2711,0,-2,-2,-1,-3,-2,-1,-2,0.622559,0.182617,0.278809,72.5,-6.375,24.25,0.527643,-1.21415,1.56177
2727,1,3,0,-1,0,-1,0,-1,0.622559,0.182617,0.278809,72.5,-6.375,24.25,0.527643,-1.21415,1.56177
2727,-5,-7,2,-1,-2,-1,1,-2,0.622559,0.182617,0.278809,72.5,-6.375,24.25,0.527643,-1.21415,1.56177
2728,-3,1,-2,-1,-1,-1,1,-2,0.726074,0.181641,0.327148,65.5625,-9.3125,29.5625,0.529953,-1.21984,1.58378
2728,-2,2,-2,-1,0,-1,-1,0,0.726074,0.181641,0.327148,65.5625,-9.3125,29.5625,0.529953,-1.21984,1.58378
2749,-1,0,-3,-2,-1,0,1,0,0.726074,0.181641,0.327148,65.5625,-9.3125,29.5625,0.529953,-1.21984,1.58378
2749,-3,2,0,0,-2,0,0,1,0.726074,0.181641,0.327148,65.5625,-9.3125,29.5625,0.529953,-1.21984,1.58378
2750,-2,2,0,3,-1,0,-2,-1,0.876953,0.163574,0.381836,59.8125,-13.3125,34.0625,0.525205,-1.22743,1.6106
2750,-5,0,-4,-1,0,1,-1,-3,0.876953,0.163574,0.381836,59.8125,-13.3125,34.0625,0.525205,-1.22743,1.6106
2763,3,1,1,1,-1,-1,0,1,0.876953,0.163574,0.381836,59.8125,-13.3125,34.0625,0.525205,-1.22743,1.6106
2763,-2,-1,1,0,1,-2,-1,-2,0.876953,0.163574,0.381836,59.8125,-13.3125,34.0625,0.525205,-1.22743,1.6106
2771,0,-2,-1,-2,-2,-1,2,1,1.10303,0.172363,0.371094,47.25,-17.3125,35.625,0.517022,-1.23834,1.6364
2771,4,0,0,0,0,-1,0,1,1.10303,0.172363,0.371094,47.25,-17.3125,35.625,0.517022,-1.23834,1.6364
2786,-9,-4,-6,-1,-2,-1,0,-3,1.10303,0.172363,0.371094,47.25,-17.3125,35.625,0.517022,-1.23834,1.6364
2786,-1,1,-1,-1,0,0,-1,-1,1.10303,0.172363,0.371094,47.25,-17.3125,35.625,0.517022,-1.23834,1.6364
2787,-2,-3,0,-2,-1,-2,-2,-1,1.25195,0.163574,0.398438,32.125,-19,38.5625,0.499104,-1.25019,1.66649
2787,-1,-3,-1,0,-3,-1,-1,0,1.25195,0.163574,0.398438,32.125,-19,38.5625,0.499104,-1.25019,1.66649
2809,-2,-2,1,-2,-3,-2,-1,0,1.25195,0.163574,0.398438,32.125,-19,38.5625,0.499104,-1.25019,1.66649
2809,0,-3,0,-1,0,-1,-1,-1,1.25195,0.163574,0.398438,32.125,-19,38.5625,0.499104,-1.25019,1.66649
2810,-2,-5,0,-1,0,0,-2,0,1.3667,0.0825195,0.366699,29.3125,-21.25,39.0625,0.475284,-1.26488,1.70178
2810,-2,-3,-2,0,0,-2,1,-2,1.3667,0.0825195,0.366699,29.3125,-21.25,39.0625,0.475284,-1.26488,1.70178
2823,1,-2,-1,-2,0,-1,-1,-4,1.3667,0.0825195,0.366699,29.3125,-21.25,39.0625,0.475284,-1.26488,1.70178
2823,-1,-1,2,-1,-1,-1,0,-2,1.3667,0.0825195,0.366699,29.3125,-21.25,39.0625,0.475284,-1.26488,1.70178
2831,1,-1,-3,-2,2,1,-1,-3,1.39209,0.065918,0.246094,28.125,-16.375,39.125,0.449914,-1.28006,1.73831
2831,-2,-3,-4,-2,4,-1,0,0,1.39209,0.065918,0.246094,28.125,-16.375,39.125,0.449914,-1.28006,1.73831
2846,0,-3,-3,1,0,0,-2,-1,1.39209,0.065918,0.246094,28.125,-16.375,39.125,0.449914,-1.28006,1.73831
2846,0,-5,1,-1,-2,-2,-1,0,1.39209,0.065918,0.246094,28.125,-16.375,39.125,0.449914,-1.28006,1.73831
2848,-1,-5,-1,0,-2,2,-1,-1,1.20361,0.0751953,0.137207,34.0625,-3.9375,44.4375,0.417091,-1.29212,1.78477
2848,1,-2,0,-1,-2,0,-1,0,1.20361,0.0751953,0.137207,34.0625,-3.9375,44.4375,0.417091,-1.29212,1.78477
2869,1,-5,-2,1,-1,0,0,0,1.20361,0.0751953,0.137207,34.0625,-3.9375,44.4375,0.417091,-1.29212,1.78477
2869,-1,-4,-1,1,-1,-2,-2,-2,1.20361,0.0751953,0.137207,34.0625,-3.9375,44.4375,0.417091,-1.29212,1.78477
2870,-1,-3,-3,0,0,-2,0,0,1.00195,0.0649414,0.0771484,50.6875,8.3125,44.875,0.382775,-1.29982,1.83921
2870,-2,-3,-3,-2,-2,-2,-1,-2,1.00195,0.0649414,0.0771484,50.6875,8.3125,44.875,0.382775,-1.29982,1.83921
2882,-2,-4,2,-1,-2,-2,-2,-1,1.00195,0.0649414,0.0771484,50.6875,8.3125,44.875,0.382775,-1.29982,1.83921
2882,2,-1,-2,-3,-1,-1,-2,-2,1.00195,0.0649414,0.0771484,50.6875,8.3125,44.875,0.382775,-1.29982,1.83921
2891,0,-3,1,-2,0,-1,-2,-2,0.878418,0.0253906,0.0585938,67.1875,15.9375,41.9375,0.350198,-1.30391,1.89724
2891,2,1,1,-3,-1,-1,-1,-1,0.878418,0.0253906,0.0585938,67.1875,15.9375,41.9375,0.350198,-1.30391,1.89724
2914,-1,2,-1,1,0,-2,-2,-2,0.878418,0.0253906,0.0585938,67.1875,15.9375,41.9375,0.350198,-1.30391,1.89724
2914,-1,1,0,-2,-1,0,-2,-1,0.878418,0.0253906,0.0585938,67.1875,15.9375,41.9375,0.350198,-1.30391,1.89724
2915,-1,4,0,0,-1,-1,0,-1,0.850098,-0.00146484,0.0917969,73.875,18.0625,41.8125,0.315091,-1.30616,1.96024
2915,0,1,0,0,-1,0,-2,-1,0.850098,-0.00146484,0.0917969,73.875,18.0625,41.8125,0.315091,-1.30616,1.96024
2929,1,6,-2,1,-3,1,1,2,0.850098,-0.00146484,0.0917969,73.875,18.0625,41.8125,0.315091,-1.30616,1.96024
2929,-1,5,-2,1,-3,-1,-2,-1,0.850098,-0.00146484,0.0917969,73.875,18.0625,41.8125,0.315091,-1.30616,1.96024
2931,2,3,-1,0,0,-1,0,-2,0.868652,-0.0253906,0.12793,77.4375,17.6875,41.6875,0.278349,-1.30737,2.026
2931,0,3,0,1,0,0,-1,-1,0.868652,-0.0253906,0.12793,77.4375,17.6875,41.6875,0.278349,-1.30737,2.026
2941,-1,1,1,-1,-2,-1,-1,-2,0.868652,-0.0253906,0.12793,77.4375,17.6875,41.6875,0.278349,-1.30737,2.026
2941,2,-1,-2,-2,-1,-1,0,1,0.868652,-0.0253906,0.12793,77.4375,17.6875,41.6875,0.278349,-1.30737,2.026
2952,-2,3,5,-3,-3,-1,-1,-1,0.89502,-0.0268555,0.169434,76.375,16.8125,40.375,0.24306,-1.30772,2.09024
2952,-1,1,-2,0,1,-2,-1,0,0.89502,-0.0268555,0.169434,76.375,16.8125,40.375,0.24306,-1.30772,2.09024
2966,0,1,0,1,0,0,-1,0,0.89502,-0.0268555,0.169434,76.375,16.8125,40.375,0.24306,-1.30772,2.09024
2966,1,2,-1,1,-1,1,0,0,0.89502,-0.0268555,0.169434,76.375,16.8125,40.375,0.24306,-1.30772,2.09024
2968,-1,0,-1,0,1,0,-1,0,0.921387,-0.0336914,0.205566,68.0625,16.5625,36.8125,0.20874,-1.30613,2.14962
2968,-1,1,1,-2,0,-1,2,-2,0.921387,-0.0336914,0.205566,68.0625,16.5625,36.8125,0.20874,-1.30613,2.14962
2996,-1,1,-1,-4,-1,-4,0,-1,0.921387,-0.0336914,0.205566,68.0625,16.5625,36.8125,0.20874,-1.30613,2.14962
2996,-3,5,-1,-1,-1,-1,0,0,0.921387,-0.0336914,0.205566,68.0625,16.5625,36.8125,0.20874,-1.30613,2.14962
2998,0,-2,-3,0,-2,-2,0,0,0.962891,-0.0493164,0.251465,56.5,14.875,31.6875,0.176001,-1.30374,2.20353
2998,-4,-3,-3,3,-1,1,-2,-2,0.962891,-0.0493164,0.251465,56.5,14.875,31.6875,0.176001,-1.30374,2.20353
3002,-2,-2,0,-1,1,1,-1,-3,0.962891,-0.0493164,0.251465,56.5,14.875,31.6875,0.176001,-1.30374,2.20353
3002,0,-1,1,-1,-1,1,0,0,0.962891,-0.0493164,0.251465,56.5,14.875,31.6875,0.176001,-1.30374,2.20353
3010,1,-2,-2,0,0,-2,-1,0,1.00684,-0.0961914,0.268555,49.1875,12.75,26,0.145699,-1.30161,2.25198
3010,-1,-1,1,-3,-2,-2,-2,-1,1.00684,-0.0961914,0.268555,49.1875,12.75,26,0.145699,-1.30161,2.25198
3033,3,2,-1,-1,-3,-2,-2,-2,1.00684,-0.0961914,0.268555,49.1875,12.75,26,0.145699,-1.30161,2.25198
3033,0,-4,-2,-2,-1,0,0,-2,1.00684,-0.0961914,0.268555,49.1875,12.75,26,0.145699,-1.30161,2.25198
3035,-2,1,0,-3,-1,-1,1,0,1.03906,-0.131836,0.281738,48.375,10.0625,19.25,0.121645,-1.29946,2.29314
3035,-2,-3,-2,-2,-1,0,0,-1,1.03906,-0.131836,0.281738,48.375,10.0625,19.25,0.121645,-1.29946,2.29314
3048,-1,-1,0,-1,0,-1,-1,0,1.03906,-0.131836,0.281738,48.375,10.0625,19.25,0.121645,-1.29946,2.29314
3048,-1,-1,0,2,1,-1,-1,-1,1.03906,-0.131836,0.281738,48.375,10.0625,19.25,0.121645,-1.29946,2.29314
3050,-1,-1,-5,-1,-2,-1,-3,-1,1.06348,-0.148438,0.261719,49.0625,8.125,11.9375,0.106348,-1.29821,2.32544
3050,1,0,-1,-3,-1,0,0,-1,1.06348,-0.148438,0.261719,49.0625,8.125,11.9375,0.106348,-1.29821,2.32544
3063,-2,-3,-2,-1,-1,0,-2,-1,1.06348,-0.148438,0.261719,49.0625,8.125,11.9375,0.106348,-1.29821,2.32544
3063,-2,-2,-2,-1,-1,-3,-1,-1,1.06348,-0.148438,0.261719,49.0625,8.125,11.9375,0.106348,-1.29821,2.32544
3078,-1,-3,-3,0,0,1,-1,-1,1.04785,-0.125977,0.220703,44.75,6.875,6,0.100456,-1.29853,2.34713
3078,-2,-1,1,0,1,0,-2,-1,1.04785,-0.125977,0.220703,44.75,6.875,6,0.100456,-1.29853,2.34713
3086,-3,-3,1,0,0,-1,-1,0,1.04785,-0.125977,0.220703,44.75,6.875,6,0.100456,-1.29853,2.34713
3086,-2,-2,0,-1,-2,0,-2,-1,1.04785,-0.125977,0.220703,44.75,6.875,6,0.100456,-1.29853,2.34713
3088,-1,1,-1,-3,-1,-1,-1,-2,1.00879,-0.0869141,0.180176,36,7.3125,2.8125,0.098972,-1.29854,2.36093
3088,-3,-1,0,0,-1,-1,-1,-1,1.00879,-0.0869141,0.180176,36,7.3125,2.8125,0.098972,-1.29854,2.36093
3116,-1,-2,-2,-3,-1,-2,0,0,1.00879,-0.0869141,0.180176,36,7.3125,2.8125,0.098972,-1.29854,2.36093
3116,1,0,2,-1,0,1,0,-2,1.00879,-0.0869141,0.180176,36,7.3125,2.8125,0.098972,-1.29854,2.36093
3117,0,-1,0,0,-1,1,-1,0,0.958984,-0.0532227,0.138184,24.9375,9.375,1.1875,0.0992559,-1.29828,2.36906
3117,0,-2,0,-1,-1,-1,-1,-1,0.958984,-0.0532227,0.138184,24.9375,9.375,1.1875,0.0992559,-1.29828,2.36906
3123,-2,1,0,0,0,-1,-2,-2,0.958984,-0.0532227,0.138184,24.9375,9.375,1.1875,0.0992559,-1.29828,2.36906
3123,0,-1,-2,-1,0,-1,-2,-1,0.958984,-0.0532227,0.138184,24.9375,9.375,1.1875,0.0992559,-1.29828,2.36906
3131,-1,-2,-3,-1,0,-2,-1,-2,0.924805,-0.0419922,0.115723,14.375,12.3125,0.9375,0.0964167,-1.29771,2.37701
3131,-1,-3,-2,1,-1,-2,-1,-1,0.924805,-0.0419922,0.115723,14.375,12.3125,0.9375,0.0964167,-1.29771,2.37701
3146,-1,-1,-3,-1,-2,-3,-1,-2,0.924805,-0.0419922,0.115723,14.375,12.3125,0.9375,0.0964167,-1.29771,2.37701
3146,-4,-1,0,-1,-2,-2,-2,0,0.924805,-0.0419922,0.115723,14.375,12.3125,0.9375,0.0964167,-1.29771,2.37701
3152,-3,0,-1,-2,-1,-2,0,-1,0.902344,-0.0483398,0.128906,6.875,15.4375,0.9375,0.0908471,-1.29561,2.38506
3152,-2,-1,-4,-1,-1,-3,0,-1,0.902344,-0.0483398,0.128906,6.875,15.4375,0.9375,0.0908471,-1.29561,2.38506
3169,0,-1,-3,1,-1,0,0,-1,0.902344,-0.0483398,0.128906,6.875,15.4375,0.9375,0.0908471,-1.29561,2.38506
3169,-1,0,-1,-2,0,-1,-1,0,0.902344,-0.0483398,0.128906,6.875,15.4375,0.9375,0.0908471,-1.29561,2.38506
3170,-1,-2,-1,-1,0,0,-1,-1,0.900879,-0.0742188,0.131836,4.8125,17.75,-1,0.0841709,-1.29233,2.393
3170,0,-2,0,-3,-3,-3,1,-1,0.900879,-0.0742188,0.131836,4.8125,17.75,-1,0.0841709,-1.29233,2.393
3192,-1,-1,-3,-2,-2,-1,-1,-1,0.900879,-0.0742188,0.131836,4.8125,17.75,-1,0.0841709,-1.29233,2.393
3192,0,-5,-3,-3,-3,-1,0,-3,0.900879,-0.0742188,0.131836,4.8125,17.75,-1,0.0841709,-1.29233,2.393
3193,0,-1,1,0,-3,-2,-2,1,0.910156,-0.0893555,0.162598,4.1875,20.0625,-4.6875,0.0800647,-1.28791,2.39813
3193,1,0,1,0,-3,-1,-2,0,0.910156,-0.0893555,0.162598,4.1875,20.0625,-4.6875,0.0800647,-1.28791,2.39813
3205,0,-1,1,-1,-3,-1,-2,0,0.910156,-0.0893555,0.162598,4.1875,20.0625,-4.6875,0.0800647,-1.28791,2.39813
3205,0,-2,-1,1,-1,-2,1,0,0.910156,-0.0893555,0.162598,4.1875,20.0625,-4.6875,0.0800647,-1.28791,2.39813
3212,-1,0,-1,-1,-2,-2,0,-1,0.920898,-0.0991211,0.170898,2.25,22.6875,-8.625,0.0792778,-1.28232,2.39912
3212,-1,-3,-2,0,-1,1,1,-1,0.920898,-0.0991211,0.170898,2.25,22.6875,-8.625,0.0792778,-1.28232,2.39912
3229,-1,-1,-3,-4,0,1,-1,-1,0.920898,-0.0991211,0.170898,2.25,22.6875,-8.625,0.0792778,-1.28232,2.39912
3229,-1,0,-2,2,-2,0,0,0,0.920898,-0.0991211,0.170898,2.25,22.6875,-8.625,0.0792778,-1.28232,2.39912
3230,1,-3,-4,0,-1,-1,1,-2,0.923828,-0.0913086,0.18457,-3.3125,24.4375,-11.875,0.080696,-1.27591,2.39561
3230,-2,0,-1,-2,1,0,-3,-1,0.923828,-0.0913086,0.18457,-3.3125,24.4375,-11.875,0.080696,-1.27591,2.39561
3251,-2,-2,2,-3,-2,-1,-1,-1,0.923828,-0.0913086,0.18457,-3.3125,24.4375,-11.875,0.080696,-1.27591,2.39561
3251,2,0,1,-1,0,2,-3,0,0.923828,-0.0913086,0.18457,-3.3125,24.4375,-11.875,0.080696,-1.27591,2.39561
3252,-2,0,0,-2,-2,-1,-1,0,0.926758,-0.0888672,0.206543,-13.4375,24.5,-15.8125,0.0825076,-1.26874,2.38778
3252,0,0,0,-3,-1,0,1,-1,0.926758,-0.0888672,0.206543,-13.4375,24.5,-15.8125,0.0825076,-1.26874,2.38778
3266,-1,-2,-1,-2,2,0,-1,1,0.926758,-0.0888672,0.206543,-13.4375,24.5,-15.8125,0.0825076,-1.26874,2.38778
3266,-5,-3,-2,-3,-2,-3,-1,-3,0.926758,-0.0888672,0.206543,-13.4375,24.5,-15.8125,0.0825076,-1.26874,2.38778
3273,-2,-1,1,0,0,1,0,-2,0.974609,-0.101074,0.236328,-24.6875,22.1875,-21.3125,0.085477,-1.26263,2.37496
3273,-1,0,-3,-1,0,-2,-1,1,0.974609,-0.101074,0.236328,-24.6875,22.1875,-21.3125,0.085477,-1.26263,2.37496
3288,-1,-2,-1,-1,-1,-2,0,-1,0.974609,-0.101074,0.236328,-24.6875,22.1875,-21.3125,0.085477,-1.26263,2.37496
3288,1,-1,-2,0,0,-1,1,0,0.974609,-0.101074,0.236328,-24.6875,22.1875,-21.3125,0.085477,-1.26263,2.37496
3290,-1,-1,-1,-1,-1,-1,0,-1,1.02393,-0.109375,0.261719,-33.125,19.125,-26.1875,0.0897342,-1.25702,2.35731
3290,-3,-1,1,-1,-2,0,-1,-1,1.02393,-0.109375,0.261719,-33.125,19.125,-26.1875,0.0897342,-1.25702,2.35731
3311,0,0,0,3,-1,-1,-1,-3,1.02393,-0.109375,0.261719,-33.125,19.125,-26.1875,0.0897342,-1.25702,2.35731
3311,-2,2,1,-1,-1,-2,-1,-1,1.02393,-0.109375,0.261719,-33.125,19.125,-26.1875,0.0897342,-1.25702,2.35731
3312,0,1,1,-2,-1,-1,-3,-1,1.04736,-0.090332,0.284668,-37.375,15,-29.625,0.097139,-1.2523,2.33463
3312,0,-1,-3,-2,1,-1,-2,0,1.04736,-0.090332,0.284668,-37.375,15,-29.625,0.097139,-1.2523,2.33463
3326,0,1,-3,-2,-1,0,-2,0,1.04736,-0.090332,0.284668,-37.375,15,-29.625,0.097139,-1.2523,2.33463
3326,-2,-1,-2,0,-1,-2,-1,-1,1.04736,-0.090332,0.284668,-37.375,15,-29.625,0.097139,-1.2523,2.33463
3333,0,-1,0,-2,0,-1,-2,0,1.05713,-0.0356445,0.285645,-44.1875,10.8125,-30.9375,0.108033,-1.24909,2.30645
3333,-1,2,-2,-1,0,-1,-2,-4,1.05713,-0.0356445,0.285645,-44.1875,10.8125,-30.9375,0.108033,-1.24909,2.30645
3356,0,1,-1,-2,1,-1,0,-2,1.05713,-0.0356445,0.285645,-44.1875,10.8125,-30.9375,0.108033,-1.24909,2.30645
3356,0,4,0,-2,1,-2,0,0,1.05713,-0.0356445,0.285645,-44.1875,10.8125,-30.9375,0.108033,-1.24909,2.30645
3357,1,-9,-1,0,-1,-2,0,1,1.0249,0.0405273,0.257324,-57,7.9375,-29.75,0.118338,-1.24711,2.27466
3357,0,-9,0,1,-3,-3,0,1,1.0249,0.0405273,0.257324,-57,7.9375,-29.75,0.118338,-1.24711,2.27466
3371,-1,-8,0,0,-2,-2,1,-1,1.0249,0.0405273,0.257324,-57,7.9375,-29.75,0.118338,-1.24711,2.27466
3371,1,0,-1,0,-1,-2,0,-2,1.0249,0.0405273,0.257324,-57,7.9375,-29.75,0.118338,-1.24711,2.27466
3373,-1,0,-1,0,-1,-3,-2,-1,0.962891,0.0961914,0.244141,-75.375,6.9375,-28.625,0.125691,-1.24516,2.23963
3373,1,-1,0,-2,0,-3,-1,1,0.962891,0.0961914,0.244141,-75.375,6.9375,-28.625,0.125691,-1.24516,2.23963
3386,-2,-1,0,-3,2,-3,-1,0,0.962891,0.0961914,0.244141,-75.375,6.9375,-28.625,0.125691,-1.24516,2.23963
3386,1,-4,0,0,1,1,0,-4,0.962891,0.0961914,0.244141,-75.375,6.9375,-28.625,0.125691,-1.24516,2.23963
3392,-2,-1,-4,-2,-1,-1,1,0,0.893555,0.119629,0.239746,-87.5625,7.25,-24.5625,0.125814,-1.24267,2.20804
3392,1,5,-1,0,0,0,0,0,0.893555,0.119629,0.239746,-87.5625,7.25,-24.5625,0.125814,-1.24267,2.20804
3409,-1,-1,-4,-2,-3,-1,-2,0,0.893555,0.119629,0.239746,-87.5625,7.25,-24.5625,0.125814,-1.24267,2.20804
3409,1,3,-1,-2,-1,0,-3,0,0.893555,0.119629,0.239746,-87.5625,7.25,-24.5625,0.125814,-1.24267,2.20804
3411,-2,9,1,-2,-2,-1,0,-1,0.836426,0.0869141,0.239258,-84.375,8.75,-21.8125,0.121782,-1.23968,2.18171
3411,-1,2,-1,-1,-4,1,-1,-1,0.836426,0.0869141,0.239258,-84.375,8.75,-21.8125,0.121782,-1.23968,2.18171
3431,0,1,0,0,-2,0,1,1,0.836426,0.0869141,0.239258,-84.375,8.75,-21.8125,0.121782,-1.23968,2.18171
3431,-2,-4,0,2,-2,1,0,-3,0.836426,0.0869141,0.239258,-84.375,8.75,-21.8125,0.121782,-1.23968,2.18171
3432,-2,-7,2,-2,0,2,-1,-2,0.82373,0.0488281,0.265625,-70.375,9.8125,-22,0.119176,-1.23583,2.15864
3432,-1,-5,0,-1,1,1,-2,-1,0.82373,0.0488281,0.265625,-70.375,9.8125,-22,0.119176,-1.23583,2.15864
3445,-2,-5,-1,0,0,-1,-2,-2,0.82373,0.0488281,0.265625,-70.375,9.8125,-22,0.119176,-1.23583,2.15864
3445,-2,-6,-1,-1,-3,-1,-3,-1,0.82373,0.0488281,0.265625,-70.375,9.8125,-22,0.119176,-1.23583,2.15864
3451,0,-1,1,0,-1,0,-2,-1,0.848633,0.0258789,0.305176,-45.6875,9.875,-22.0625,0.123128,-1.23113,2.13723
3451,0,0,0,1,0,0,-2,-2,0.848633,0.0258789,0.305176,-45.6875,9.875,-22.0625,0.123128,-1.23113,2.13723
3469,-1,0,-3,-2,-3,1,2,-1,0.848633,0.0258789,0.305176,-45.6875,9.875,-22.0625,0.123128,-1.23113,2.13723
3469,-4,-2,-1,0,-2,1,0,-1,0.848633,0.0258789,0.305176,-45.6875,9.875,-22.0625,0.123128,-1.23113,2.13723
3470,1,1,-2,-2,-3,0,1,-1,0.876465,0.0385742,0.332031,-19.625,7.125,-21.375,0.135741,-1.22722,2.11661
3470,-1,-2,-4,0,-2,0,-1,-1,0.876465,0.0385742,0.332031,-19.625,7.125,-21.375,0.135741,-1.22722,2.11661
3491,-2,0,1,0,1,2,-2,-2,0.876465,0.0385742,0.332031,-19.625,7.125,-21.375,0.135741,-1.22722,2.11661
3491,4,2,-3,-2,-1,0,0,0,0.876465,0.0385742,0.332031,-19.625,7.125,-21.375,0.135741,-1.22722,2.11661
3493,-2,0,2,2,-1,-1,-4,-2,0.911621,0.090332,0.342773,-6.8125,3.4375,-20.8125,0.155425,-1.22436,2.09351
3493,-1,-1,3,-1,-2,-1,-1,-1,0.911621,0.090332,0.342773,-6.8125,3.4375,-20.8125,0.155425,-1.22436,2.09351
3505,0,0,-4,-3,0,-1,-1,0,0.911621,0.090332,0.342773,-6.8125,3.4375,-20.8125,0.155425,-1.22436,2.09351
3505,-2,-2,-3,-3,0,-2,-1,0,0.911621,0.090332,0.342773,-6.8125,3.4375,-20.8125,0.155425,-1.22436,2.09351
3513,-2,-4,-4,-2,0,0,0,-1,0.919434,0.146973,0.334473,-5,0.875,-18.9375,0.177707,-1.22276,2.06892
3513,2,1,0,-1,1,-1,-1,-2,0.919434,0.146973,0.334473,-5,0.875,-18.9375,0.177707,-1.22276,2.06892
3528,0,2,0,2,-1,-1,-2,-2,0.919434,0.146973,0.334473,-5,0.875,-18.9375,0.177707,-1.22276,2.06892
3528,0,1,2,0,0,-1,1,1,0.919434,0.146973,0.334473,-5,0.875,-18.9375,0.177707,-1.22276,2.06892
3531,-4,-3,-1,1,-4,-1,1,-3,0.910156,0.195801,0.32666,-10.5,-0.3125,-16.75,0.199132,-1.2212,2.04348
3531,-1,-2,-7,-2,-1,-1,-1,0,0.910156,0.195801,0.32666,-10.5,-0.3125,-16.75,0.199132,-1.2212,2.04348
3552,-1,-2,1,-2,-1,0,-1,-1,0.910156,0.195801,0.32666,-10.5,-0.3125,-16.75,0.199132,-1.2212,2.04348
3552,-1,-2,-1,0,0,-2,-1,0,0.910156,0.195801,0.32666,-10.5,-0.3125,-16.75,0.199132,-1.2212,2.04348
3553,-1,3,-2,-1,0,-1,0,-2,0.881348,0.218262,0.328613,-12.8125,-0.3125,-12.8125,0.216862,-1.21911,2.0209
3553,-5,-1,-3,-2,-2,-2,-2,0,0.881348,0.218262,0.328613,-12.8125,-0.3125,-12.8125,0.216862,-1.21911,2.0209
3565,1,-3,-1,0,-1,-3,-1,0,0.881348,0.218262,0.328613,-12.8125,-0.3125,-12.8125,0.216862,-1.21911,2.0209
3565,-1,-1,0,1,0,-1,-2,-1,0.881348,0.218262,0.328613,-12.8125,-0.3125,-12.8125,0.216862,-1.21911,2.0209
3573,2,0,2,1,-1,-2,-1,0,0.862305,0.225586,0.324219,-12.3125,-1.125,-10.25,0.232521,-1.21768,2.001
3573,-1,-3,-1,-2,-1,-1,-1,0,0.862305,0.225586,0.324219,-12.3125,-1.125,-10.25,0.232521,-1.21768,2.001
3589,-3,1,-3,-2,-2,-1,-1,-1,0.862305,0.225586,0.324219,-12.3125,-1.125,-10.25,0.232521,-1.21768,2.001
3589,-1,-2,-1,-1,-1,0,1,-1,0.862305,0.225586,0.324219,-12.3125,-1.125,-10.25,0.232521,-1.21768,2.001
3590,-1,-1,-3,0,2,-1,0,-1,0.884277,0.231445,0.302734,-10,-1.625,-8.875,0.248228,-1.21679,1.9817
3590,1,-2,0,-1,0,-1,-2,-1,0.884277,0.231445,0.302734,-10,-1.625,-8.875,0.248228,-1.21679,1.9817
3611,0,-2,0,1,1,1,0,1,0.884277,0.231445,0.302734,-10,-1.625,-8.875,0.248228,-1.21679,1.9817
3611,0,1,0,-2,-4,1,-1,0,0.884277,0.231445,0.302734,-10,-1.625,-8.875,0.248228,-1.21679,1.9817
3613,-1,-2,-2,-2,-4,-1,-2,-1,0.888184,0.235352,0.316406,-5.5,-1.625,-5.0625,0.2617,-1.21614,1.96679
3613,0,-2,0,1,-1,1,1,0,0.888184,0.235352,0.316406,-5.5,-1.625,-5.0625,0.2617,-1.21614,1.96679
3634,-1,0,0,-1,2,0,-2,-1,0.888184,0.235352,0.316406,-5.5,-1.625,-5.0625,0.2617,-1.21614,1.96679
3634,-2,1,0,-1,1,-1,0,-1,0.888184,0.235352,0.316406,-5.5,-1.625,-5.0625,0.2617,-1.21614,1.96679
3635,-1,-2,-3,-3,0,-1,-2,1,0.878906,0.208496,0.34668,4.625,-3.75,0.5625,0.271235,-1.21601,1.95928
3635,-3,-3,-2,-1,-4,0,1,-3,0.878906,0.208496,0.34668,4.625,-3.75,0.5625,0.271235,-1.21601,1.95928
3648,1,-1,0,0,-5,-2,1,-1,0.878906,0.208496,0.34668,4.625,-3.75,0.5625,0.271235,-1.21601,1.95928
3648,-1,1,-1,-1,0,-2,0,-1,0.878906,0.208496,0.34668,4.625,-3.75,0.5625,0.271235,-1.21601,1.95928
3650,-2,1,-1,1,0,-2,-1,-1,0.900879,0.200684,0.364258,14.75,-6.5,4.875,0.280245,-1.21699,1.9561
3650,-1,-3,0,-1,0,-2,-1,-1,0.900879,0.200684,0.364258,14.75,-6.5,4.875,0.280245,-1.21699,1.9561
3671,1,-1,0,-1,-2,0,0,-1,0.900879,0.200684,0.364258,14.75,-6.5,4.875,0.280245,-1.21699,1.9561
3671,-3,-1,-1,1,0,-2,0,-3,0.900879,0.200684,0.364258,14.75,-6.5,4.875,0.280245,-1.21699,1.9561
3673,1,-3,0,1,-1,1,-1,-1,0.877441,0.203613,0.373535,22.625,-8,10.3125,0.287358,-1.21839,1.95767
3673,1,3,3,1,-1,-3,0,0,0.877441,0.203613,0.373535,22.625,-8,10.3125,0.287358,-1.21839,1.95767
3685,1,0,-3,0,-1,-2,-2,-1,0.877441,0.203613,0.373535,22.625,-8,10.3125,0.287358,-1.21839,1.95767
3685,0,-1,-1,-2,-1,-1,-3,-2,0.877441,0.203613,0.373535,22.625,-8,10.3125,0.287358,-1.21839,1.95767
3694,1,3,1,-1,-1,0,0,0,0.801758,0.207031,0.36084,27.1875,-9,14.1875,0.292974,-1.22039,1.96286
3694,-2,-5,-2,-1,-1,-2,-2,-2,0.801758,0.207031,0.36084,27.1875,-9,14.1875,0.292974,-1.22039,1.96286
3709,1,-3,-2,-1,1,-1,-2,-1,0.801758,0.207031,0.36084,27.1875,-9,14.1875,0.292974,-1.22039,1.96286
3709,1,0,0,-2,0,-1,0,0,0.801758,0.207031,0.36084,27.1875,-9,14.1875,0.292974,-1.22039,1.96286
3710,-3,-3,-2,-1,-1,-1,0,-1,0.741699,0.199707,0.343262,31.9375,-9.8125,18.5625,0.296156,-1.22253,1.97187
3710,-1,-1,-1,0,-2,0,0,1,0.741699,0.199707,0.343262,31.9375,-9.8125,18.5625,0.296156,-1.22253,1.97187
3731,-3,1,2,0,0,-2,1,-1,0.741699,0.199707,0.343262,31.9375,-9.8125,18.5625,0.296156,-1.22253,1.97187
3731,-1,-1,-2,0,-2,2,-3,0,0.741699,0.199707,0.343262,31.9375,-9.8125,18.5625,0.296156,-1.22253,1.97187
3732,0,-2,-1,-3,1,-1,-1,-1,0.731934,0.16748,0.371094,39.125,-12.0625,20.9375,0.29747,-1.22566,1.98558
3732,-4,0,0,-2,1,1,-1,-3,0.731934,0.16748,0.371094,39.125,-12.0625,20.9375,0.29747,-1.22566,1.98558
3745,0,-1,-1,0,0,-2,0,1,0.731934,0.16748,0.371094,39.125,-12.0625,20.9375,0.29747,-1.22566,1.98558
3745,0,0,2,-1,-1,-3,-1,-1,0.731934,0.16748,0.371094,39.125,-12.0625,20.9375,0.29747,-1.22566,1.98558
3754,0,3,0,0,-2,-3,-1,0,0.888184,0.111328,0.428711,45.5625,-17.75,17.625,0.300203,-1.23031,1.99928
3754,1,0,-4,-1,-1,0,-2,-1,0.888184,0.111328,0.428711,45.5625,-17.75,17.625,0.300203,-1.23031,1.99928
3769,-3,-1,-2,-2,0,1,-2,-1,0.888184,0.111328,0.428711,45.5625,-17.75,17.625,0.300203,-1.23031,1.99928
3769,3,2,1,-1,-1,0,-2,1,0.888184,0.111328,0.428711,45.5625,-17.75,17.625,0.300203,-1.23031,1.99928
3770,0,-2,-5,-1,0,1,0,-2,1.09229,0.102539,0.402832,33.6875,-19.1875,12,0.304566,-1.23716,2.00701
3770,0,0,4,-2,-2,-3,-1,0,1.09229,0.102539,0.402832,33.6875,-19.1875,12,0.304566,-1.23716,2.00701
3791,0,0,0,-1,-3,-3,0,0,1.09229,0.102539,0.402832,33.6875,-19.1875,12,0.304566,-1.23716,2.00701
3791,0,1,-2,-2,-3,-2,-1,2,1.09229,0.102539,0.402832,33.6875,-19.1875,12,0.304566,-1.23716,2.00701
3793,-1,1,1,0,-1,-1,-1,-1,1.11475,0.12207,0.342285,11.875,-14.3125,10.5,0.303938,-1.24341,2.01227
3793,0,-1,-2,0,1,0,1,0,1.11475,0.12207,0.342285,11.875,-14.3125,10.5,0.303938,-1.24341,2.01227
3805,0,0,-2,-2,2,-1,-2,0,1.11475,0.12207,0.342285,11.875,-14.3125,10.5,0.303938,-1.24341,2.01227
3805,-2,-2,1,0,1,0,-1,-3,1.11475,0.12207,0.342285,11.875,-14.3125,10.5,0.303938,-1.24341,2.01227
3814,-4,-4,-1,0,0,-2,-1,-1,0.995117,0.140137,0.270508,-2.625,-7.4375,10.9375,0.298852,-1.24762,2.01692
3814,-1,-2,1,0,0,-1,0,0,0.995117,0.140137,0.270508,-2.625,-7.4375,10.9375,0.298852,-1.24762,2.01692
3829,-3,-3,-2,0,-1,0,0,-2,0.995117,0.140137,0.270508,-2.625,-7.4375,10.9375,0.298852,-1.24762,2.01692
3829,-3,-5,0,-3,-1,-3,0,0,0.995117,0.140137,0.270508,-2.625,-7.4375,10.9375,0.298852,-1.24762,2.01692
3830,1,1,-4,-1,-2,-2,0,1,0.868652,0.133301,0.225098,-5.625,0.3125,10.6875,0.290705,-1.24967,2.0243
3830,-1,0,-2,1,-1,-1,-1,-2,0.868652,0.133301,0.225098,-5.625,0.3125,10.6875,0.290705,-1.24967,2.0243
3851,-2,-1,-4,-1,-2,-3,0,-1,0.868652,0.133301,0.225098,-5.625,0.3125,10.6875,0.290705,-1.24967,2.0243
3851,0,-1,-1,0,-2,-2,0,0,0.868652,0.133301,0.225098,-5.625,0.3125,10.6875,0.290705,-1.24967,2.0243
3852,-3,-5,1,0,-2,-2,-3,-2,0.78418,0.0883789,0.22168,-2.875,4.8125,11.125,0.279047,-1.24935,2.03545
3852,-1,-2,-2,-1,-1,-1,-1,1,0.78418,0.0883789,0.22168,-2.875,4.8125,11.125,0.279047,-1.24935,2.03545
3865,-1,0,0,1,0,1,-1,-3,0.78418,0.0883789,0.22168,-2.875,4.8125,11.125,0.279047,-1.24935,2.03545
3865,-1,-4,-4,-2,-1,-1,-1,-1,0.78418,0.0883789,0.22168,-2.875,4.8125,11.125,0.279047,-1.24935,2.03545
3873,0,0,-1,-1,-1,-2,-1,1,0.776367,0.0551758,0.23291,5.875,6.625,10.9375,0.267611,-1.24854,2.04958
3873,1,1,-1,-1,-1,-1,-2,-1,0.776367,0.0551758,0.23291,5.875,6.625,10.9375,0.267611,-1.24854,2.04958
3889,0,-1,0,0,-1,-1,-1,-1,0.776367,0.0551758,0.23291,5.875,6.625,10.9375,0.267611,-1.24854,2.04958
3889,1,1,1,0,0,0,-1,0,0.776367,0.0551758,0.23291,5.875,6.625,10.9375,0.267611,-1.24854,2.04958
3890,2,3,2,0,-1,2,-1,2,0.831055,0.0415039,0.280762,15.5,6.5,8.5625,0.260188,-1.24734,2.06311
3890,5,2,-5,-4,-3,-2,-2,-2,0.831055,0.0415039,0.280762,15.5,6.5,8.5625,0.260188,-1.24734,2.06311
3911,-2,-1,2,0,0,-1,-2,-3,0.831055,0.0415039,0.280762,15.5,6.5,8.5625,0.260188,-1.24734,2.06311
3911,-1,2,-3,-1,-1,-1,-2,0,0.831055,0.0415039,0.280762,15.5,6.5,8.5625,0.260188,-1.24734,2.06311
3913,2,-1,-2,-2,-2,-1,-2,0,0.904785,0.0512695,0.315918,18.5,7.5,7.4375,0.254546,-1.24491,2.07549
3913,0,-1,2,0,-2,0,1,-1,0.904785,0.0512695,0.315918,18.5,7.5,7.4375,0.254546,-1.24491,2.07549
3925,-1,-1,-2,-3,-1,-1,-2,-1,0.904785,0.0512695,0.315918,18.5,7.5,7.4375,0.254546,-1.24491,2.07549
3925,-3,-1,-2,0,0,-1,-1,-4,0.904785,0.0512695,0.315918,18.5,7.5,7.4375,0.254546,-1.24491,2.07549
3934,-1,-2,-3,-1,-1,0,0,-2,0.950195,0.0776367,0.324219,10.5625,9.125,6.75,0.248991,-1.24217,2.08518
3934,-2,0,-2,-1,0,-2,0,0,0.950195,0.0776367,0.324219,10.5625,9.125,6.75,0.248991,-1.24217,2.08518
3949,1,2,-4,-3,-2,-1,0,1,0.950195,0.0776367,0.324219,10.5625,9.125,6.75,0.248991,-1.24217,2.08518
3949,-2,-1,1,-2,-2,1,-1,-2,0.950195,0.0776367,0.324219,10.5625,9.125,6.75,0.248991,-1.24217,2.08518
3950,-3,-1,1,-1,-1,-3,1,-1,0.974121,0.0986328,0.323242,-3.8125,9.75,6.5625,0.240085,-1.23941,2.09348
3950,-4,-3,-1,-1,0,0,-1,-2,0.974121,0.0986328,0.323242,-3.8125,9.75,6.5625,0.240085,-1.23941,2.09348
3971,-1,-1,-3,-1,-1,-2,-2,0,0.974121,0.0986328,0.323242,-3.8125,9.75,6.5625,0.240085,-1.23941,2.09348
3971,0,-1,-3,-1,2,-1,0,0,0.974121,0.0986328,0.323242,-3.8125,9.75,6.5625,0.240085,-1.23941,2.09348
3972,0,-1,-4,-3,-1,-1,0,-3,0.979004,0.09375,0.305176,-16.1875,10.1875,7.625,0.226265,-1.23703,2.1022
3972,1,1,1,-3,-1,-2,-1,0,0.979004,0.09375,0.305176,-16.1875,10.1875,7.625,0.226265,-1.23703,2.1022
3985,-9,-7,-3,-2,-2,-2,-1,-3,0.979004,0.09375,0.305176,-16.1875,10.1875,7.625,0.226265,-1.23703,2.1022
3985,-1,-1,0,-1,-2,-2,-1,-2,0.979004,0.09375,0.305176,-16.1875,10.1875,7.625,0.226265,-1.23703,2.1022
3993,-3,-1,0,-1,0,-2,0,0,0.960938,0.0620117,0.302734,-19.3125,9.875,8.8125,0.208485,-1.23497,2.11399
3993,-3,0,-2,0,0,-1,-2,0,0.960938,0.0620117,0.302734,-19.3125,9.875,8.8125,0.208485,-1.23497,2.11399
4009,3,-2,-1,-3,-2,-1,0,0,0.960938,0.0620117,0.302734,-19.3125,9.875,8.8125,0.208485,-1.23497,2.11399
4009,1,-2,0,1,-1,-1,1,0,0.960938,0.0620117,0.302734,-19.3125,9.875,8.8125,0.208485,-1.23497,2.11399
4010,0,1,0,-1,0,1,-1,-2,0.934082,0.0229492,0.296875,-8.625,9.1875,9.1875,0.192495,-1.23332,2.12767
4010,1,-3,-1,0,1,0,1,-1,0.934082,0.0229492,0.296875,-8.625,9.1875,9.1875,0.192495,-1.23332,2.12767
4032,0,2,1,-1,0,0,0,0,0.934082,0.0229492,0.296875,-8.625,9.1875,9.1875,0.192495,-1.23332,2.12767
4032,-2,-1,-1,-1,-2,0,-3,-1,0.934082,0.0229492,0.296875,-8.625,9.1875,9.1875,0.192495,-1.23332,2.12767
4033,2,-1,-1,1,-1,-3,-2,-2,0.930664,0.0200195,0.302246,5.6875,8,7.75,0.182478,-1.23153,2.13978
4033,-3,-2,0,1,-1,0,-1,-1,0.930664,0.0200195,0.302246,5.6875,8,7.75,0.182478,-1.23153,2.13978
4045,1,-3,-1,0,-1,-2,0,-1,0.930664,0.0200195,0.302246,5.6875,8,7.75,0.182478,-1.23153,2.13978
4045,0,-1,-1,-1,1,0,-1,0,0.930664,0.0200195,0.302246,5.6875,8,7.75,0.182478,-1.23153,2.13978
4054,0,0,-1,-2,-2,-3,0,0,0.920898,0.0380859,0.30127,16.3125,7.0625,7.8125,0.178388,-1.23019,2.15024
4054,0,-3,-1,-2,-1,-1,0,-1,0.920898,0.0380859,0.30127,16.3125,7.0625,7.8125,0.178388,-1.23019,2.15024
4069,2,-2,0,-1,0,0,0,-1,0.920898,0.0380859,0.30127,16.3125,7.0625,7.8125,0.178388,-1.23019,2.15024
4069,-6,-2,-3,-1,-3,-1,-3,-3,0.920898,0.0380859,0.30127,16.3125,7.0625,7.8125,0.178388,-1.23019,2.15024
4070,0,2,-2,-1,0,-1,-1,1,0.912598,0.0678711,0.280273,16.1875,5.9375,8.5,0.175693,-1.22946,2.1592
4070,-1,-1,-3,-2,-1,-1,-2,-1,0.912598,0.0678711,0.280273,16.1875,5.9375,8.5,0.175693,-1.22946,2.1592
4091,-2,4,0,0,0,-2,-1,-1,0.912598,0.0678711,0.280273,16.1875,5.9375,8.5,0.175693,-1.22946,2.1592
4091,0,3,-1,-1,0,-2,-1,0,0.912598,0.0678711,0.280273,16.1875,5.9375,8.5,0.175693,-1.22946,2.1592
4093,1,0,-1,-2,-2,0,-2,-1,0.905273,0.0825195,0.273438,8.25,5.125,8.3125,0.172413,-1.22897,2.166
4093,-2,0,-4,0,0,0,-1,-1,0.905273,0.0825195,0.273438,8.25,5.125,8.3125,0.172413,-1.22897,2.166
4105,-1,0,-1,-2,-1,-1,-1,1,0.905273,0.0825195,0.273438,8.25,5.125,8.3125,0.172413,-1.22897,2.166
4105,-3,-4,-1,-1,-1,-2,1,-3,0.905273,0.0825195,0.273438,8.25,5.125,8.3125,0.172413,-1.22897,2.166
4114,0,-1,0,0,0,-1,1,-1,0.892578,0.0693359,0.269043,-0.1875,4.5,6.8125,0.166676,-1.22887,2.17225
4114,-2,-1,-1,0,-1,-2,-2,-1,0.892578,0.0693359,0.269043,-0.1875,4.5,6.8125,0.166676,-1.22887,2.17225
4129,-3,-1,-1,-3,-2,-1,-1,-2,0.892578,0.0693359,0.269043,-0.1875,4.5,6.8125,0.166676,-1.22887,2.17225
4129,0,2,0,-2,-2,0,0,0,0.892578,0.0693359,0.269043,-0.1875,4.5,6.8125,0.166676,-1.22887,2.17225
4130,-2,-1,1,-2,-2,-1,-2,-1,0.891113,0.0380859,0.27832,-3.1875,3.625,4.5,0.160018,-1.22868,2.17815
4130,-2,1,-1,0,0,0,-2,-1,0.891113,0.0380859,0.27832,-3.1875,3.625,4.5,0.160018,-1.22868,2.17815
4151,-1,1,-2,1,0,0,-2,0,0.891113,0.0380859,0.27832,-3.1875,3.625,4.5,0.160018,-1.22868,2.17815
4151,1,2,0,-2,-1,-4,-1,-1,0.891113,0.0380859,0.27832,-3.1875,3.625,4.5,0.160018,-1.22868,2.17815
4152,-2,-1,0,-2,-1,1,1,-1,0.899414,0.0180664,0.276855,-0.0625,2.6875,2.375,0.155477,-1.22895,2.1828
4152,-2,-2,0,0,0,-1,-1,-1,0.899414,0.0180664,0.276855,-0.0625,2.6875,2.375,0.155477,-1.22895,2.1828
4173,2,0,-1,0,0,-1,-1,1,0.899414,0.0180664,0.276855,-0.0625,2.6875,2.375,0.155477,-1.22895,2.1828
4173,3,0,-2,0,-1,-1,0,0,0.899414,0.0180664,0.276855,-0.0625,2.6875,2.375,0.155477,-1.22895,2.1828
4175,0,1,-1,-1,-1,-1,-2,0,0.909668,0.0166016,0.289551,4.3125,1.5625,0.25,0.154562,-1.22923,2.18519
4175,-2,0,0,-2,0,-3,-1,0,0.909668,0.0166016,0.289551,4.3125,1.5625,0.25,0.154562,-1.22923,2.18519
4189,-3,-1,-3,-2,-1,0,-2,-2,0.909668,0.0166016,0.289551,4.3125,1.5625,0.25,0.154562,-1.22923,2.18519
4189,2,-3,0,-1,-2,0,0,0,0.909668,0.0166016,0.289551,4.3125,1.5625,0.25,0.154562,-1.22923,2.18519
4191,-2,-1,-3,-2,-1,1,-1,-3,0.918945,0.0332031,0.304199,5.5,-0.375,-1.0625,0.156635,-1.22969,2.18495
4191,0,-3,1,-3,-2,0,-1,-1,0.918945,0.0332031,0.304199,5.5,-0.375,-1.0625,0.156635,-1.22969,2.18495
4211,1,0,1,-1,0,1,-2,0,0.918945,0.0332031,0.304199,5.5,-0.375,-1.0625,0.156635,-1.22969,2.18495
4211,-2,-2,-2,-1,1,0,-1,-1,0.918945,0.0332031,0.304199,5.5,-0.375,-1.0625,0.156635,-1.22969,2.18495
4213,-4,-1,-2,-1,0,0,0,0,0.932617,0.0546875,0.300293,2.75,-2.125,-1.5,0.159735,-1.23065,2.18246
4213,-1,0,-2,1,-2,0,1,0,0.932617,0.0546875,0.300293,2.75,-2.125,-1.5,0.159735,-1.23065,2.18246
4234,0,-1,0,0,-2,-2,1,-1,0.932617,0.0546875,0.300293,2.75,-2.125,-1.5,0.159735,-1.23065,2.18246
4234,-2,-2,-1,-2,-3,-1,-1,-3,0.932617,0.0546875,0.300293,2.75,-2.125,-1.5,0.159735,-1.23065,2.18246
4236,0,0,0,-1,-1,-1,0,-1,0.932617,0.050293,0.304688,-0.375,-3.875,-1.875,0.162168,-1.23238,2.17978
4236,-3,-1,-2,-2,-3,-1,0,-2,0.932617,0.050293,0.304688,-0.375,-3.875,-1.875,0.162168,-1.23238,2.17978
4248,1,1,-2,-1,-1,0,0,-1,0.932617,0.050293,0.304688,-0.375,-3.875,-1.875,0.162168,-1.23238,2.17978
4248,1,2,-2,1,0,-1,-1,-1,0.932617,0.050293,0.304688,-0.375,-3.875,-1.875,0.162168,-1.23238,2.17978
4251,-1,-1,-1,2,0,-1,-1,-1,0.932129,0.0458984,0.306152,-1.8125,-5.0625,-1.875,0.163673,-1.23461,2.17774
4251,0,-2,0,0,1,-2,-3,-1,0.932129,0.0458984,0.306152,-1.8125,-5.0625,-1.875,0.163673,-1.23461,2.17774
4271,-3,-2,-2,-2,-1,-2,-1,0,0.932129,0.0458984,0.306152,-1.8125,-5.0625,-1.875,0.163673,-1.23461,2.17774
4271,0,-1,2,-2,-4,-1,-1,1,0.932129,0.0458984,0.306152,-1.8125,-5.0625,-1.875,0.163673,-1.23461,2.17774
4273,-4,-6,-1,0,-1,0,-1,0,0.922363,0.0439453,0.291504,-1.0625,-5.3125,-2.0625,0.165782,-1.2368,2.17493
4273,1,0,-2,-1,-2,0,1,-1,0.922363,0.0439453,0.291504,-1.0625,-5.3125,-2.0625,0.165782,-1.2368,2.17493
4301,1,-2,1,0,-1,-1,0,0,0.922363,0.0439453,0.291504,-1.0625,-5.3125,-2.0625,0.165782,-1.2368,2.17493
4301,-2,1,-1,0,0,0,-2,-1,0.922363,0.0439453,0.291504,-1.0625,-5.3125,-2.0625,0.165782,-1.2368,2.17493
4302,-1,-1,0,-1,-1,-2,-2,0,0.914551,0.0493164,0.282715,-0.1875,-5.375,-2.5,0.169098,-1.23896,2.17135
4302,-2,-3,-2,0,-2,-1,-1,0,0.914551,0.0493164,0.282715,-0.1875,-5.375,-2.5,0.169098,-1.23896,2.17135
4309,0,-2,-1,1,-1,0,-2,-1,0.914551,0.0493164,0.282715,-0.1875,-5.375,-2.5,0.169098,-1.23896,2.17135
4309,-2,-1,-1,1,1,1,-1,-1,0.914551,0.0493164,0.282715,-0.1875,-5.375,-2.5,0.169098,-1.23896,2.17135
4311,0,1,-1,-1,-1,-1,-1,1,0.919922,0.034668,0.291016,1.75,-5.4375,-2.5,0.171947,-1.24118,2.16875
4311,2,-1,-4,-2,-1,-1,-2,-3,0.919922,0.034668,0.291016,1.75,-5.4375,-2.5,0.171947,-1.24118,2.16875
4331,-1,-3,-1,-2,-1,0,-2,-3,0.919922,0.034668,0.291016,1.75,-5.4375,-2.5,0.171947,-1.24118,2.16875
4331,-1,0,-2,-2,-2,-2,0,0,0.919922,0.034668,0.291016,1.75,-5.4375,-2.5,0.171947,-1.24118,2.16875
4332,-1,-1,2,-1,0,-2,-1,-1,0.931641,0.0361328,0.289551,1.8125,-5.625,-2.875,0.175272,-1.24375,2.16611
4332,0,2,2,-1,-1,0,1,1,0.931641,0.0361328,0.289551,1.8125,-5.625,-2.875,0.175272,-1.24375,2.16611
4354,0,0,-2,1,-1,-1,-1,0,0.931641,0.0361328,0.289551,1.8125,-5.625,-2.875,0.175272,-1.24375,2.16611
4354,-3,-7,-5,0,-1,-1,1,0,0.931641,0.0361328,0.289551,1.8125,-5.625,-2.875,0.175272,-1.24375,2.16611
4355,1,0,-3,0,0,0,-1,0,0.932617,0.0507812,0.283691,-0.9375,-5.125,-3.25,0.17918,-1.24589,2.1616
4355,0,-1,-3,-1,-2,-2,-2,-1,0.932617,0.0507812,0.283691,-0.9375,-5.125,-3.25,0.17918,-1.24589,2.1616
4368,-1,-4,0,-1,1,-2,-1,-1,0.932617,0.0507812,0.283691,-0.9375,-5.125,-3.25,0.17918,-1.24589,2.1616
4368,-1,0,1,-1,0,1,-1,0,0.932617,0.0507812,0.283691,-0.9375,-5.125,-3.25,0.17918,-1.24589,2.1616
4375,-2,0,0,-2,0,-2,-1,0,0.922852,0.0551758,0.285645,-3.875,-4.4375,-3,0.182166,-1.24753,2.15705
4375,0,1,0,-1,0,0,-1,1,0.922852,0.0551758,0.285645,-3.875,-4.4375,-3,0.182166,-1.24753,2.15705
4391,-1,0,-1,-2,-2,0,0,1,0.922852,0.0551758,0.285645,-3.875,-4.4375,-3,0.182166,-1.24753,2.15705
4391,1,0,-2,-2,0,-2,-1,2,0.922852,0.0551758,0.285645,-3.875,-4.4375,-3,0.182166,-1.24753,2.15705
4392,0,-2,-3,0,-1,-1,0,-2,0.924316,0.0458984,0.296875,-4.75,-4.3125,-3.25,0.183752,-1.24872,2.15328
4392,-1,-2,-1,0,0,0,0,0,0.924316,0.0458984,0.296875,-4.75,-4.3125,-3.25,0.183752,-1.24872,2.15328
4413,-3,-2,-1,-2,-2,-1,0,-2,0.924316,0.0458984,0.296875,-4.75,-4.3125,-3.25,0.183752,-1.24872,2.15328
4413,-1,1,-1,-2,-1,0,0,-1,0.924316,0.0458984,0.296875,-4.75,-4.3125,-3.25,0.183752,-1.24872,2.15328
4415,0,-2,0,-2,-1,-1,-3,-2,0.928223,0.0415039,0.301758,-6.125,-4.1875,-3.4375,0.184536,-1.25012,2.15027
4415,-4,-1,1,-1,1,-1,0,0,0.928223,0.0415039,0.301758,-6.125,-4.1875,-3.4375,0.184536,-1.25012,2.15027
4428,-2,1,1,0,-2,-1,-1,-1,0.928223,0.0415039,0.301758,-6.125,-4.1875,-3.4375,0.184536,-1.25012,2.15027
4428,-4,-5,-1,-1,-1,-3,-1,-2,0.928223,0.0415039,0.301758,-6.125,-4.1875,-3.4375,0.184536,-1.25012,2.15027
4435,3,1,-3,-3,-1,0,1,2,0.930664,0.0419922,0.302246,-6,-4.5,-3.1875,0.185626,-1.25159,2.14688
4435,1,1,-1,-1,-1,-1,-1,-1,0.930664,0.0419922,0.302246,-6,-4.5,-3.1875,0.185626,-1.25159,2.14688
4451,-4,-3,-3,-4,1,-1,-3,-2,0.930664,0.0419922,0.302246,-6,-4.5,-3.1875,0.185626,-1.25159,2.14688
4451,3,4,1,-3,1,0,-1,-1,0.930664,0.0419922,0.302246,-6,-4.5,-3.1875,0.185626,-1.25159,2.14688
4453,-2,-1,0,-1,-1,-1,-1,-2,0.94043,0.0454102,0.304199,-4.125,-4.75,-2.5,0.186566,-1.25277,2.14396
4453,-2,0,0,0,-1,-3,-1,-2,0.94043,0.0454102,0.304199,-4.125,-4.75,-2.5,0.186566,-1.25277,2.14396
4474,2,0,-2,0,0,-1,0,0,0.94043,0.0454102,0.304199,-4.125,-4.75,-2.5,0.186566,-1.25277,2.14396
4474,-3,-1,0,0,-2,-1,-2,0,0.94043,0.0454102,0.304199,-4.125,-4.75,-2.5,0.186566,-1.25277,2.14396
4475,-4,-2,-3,-1,-2,-1,0,-1,0.9375,0.050293,0.299805,-3.375,-4.4375,-1.625,0.18761,-1.25446,2.14179
4475,-3,-4,1,-2,-1,-1,-2,-2,0.9375,0.050293,0.299805,-3.375,-4.4375,-1.625,0.18761,-1.25446,2.14179
4488,-1,-2,-2,-1,1,-1,-1,0,0.9375,0.050293,0.299805,-3.375,-4.4375,-1.625,0.18761,-1.25446,2.14179
4488,-1,-2,-1,-3,0,-3,-1,0,0.9375,0.050293,0.299805,-3.375,-4.4375,-1.625,0.18761,-1.25446,2.14179
4494,0,1,-2,0,2,-2,1,-1,0.92627,0.0507812,0.29541,-2.0625,-3.75,-1,0.1882,-1.25556,2.14024
4494,-1,0,-2,-1,-3,-1,0,-4,0.92627,0.0507812,0.29541,-2.0625,-3.75,-1,0.1882,-1.25556,2.14024
4511,0,-1,0,0,-1,0,0,1,0.92627,0.0507812,0.29541,-2.0625,-3.75,-1,0.1882,-1.25556,2.14024
4511,0,-1,1,-1,-2,-1,0,-1,0.92627,0.0507812,0.29541,-2.0625,-3.75,-1,0.1882,-1.25556,2.14024
4513,-3,0,0,-1,0,0,0,-1,0.925781,0.0605469,0.29541,-2.9375,-2.8125,-0.75,0.188929,-1.25655,2.13855
4513,1,-1,-1,0,-2,-1,-2,-1,0.925781,0.0605469,0.29541,-2.9375,-2.8125,-0.75,0.188929,-1.25655,2.13855
4534,-4,-1,0,0,-1,-3,-2,-3,0.925781,0.0605469,0.29541,-2.9375,-2.8125,-0.75,0.188929,-1.25655,2.13855
4534,3,2,-2,1,-2,-1,-1,-2,0.925781,0.0605469,0.29541,-2.9375,-2.8125,-0.75,0.188929,-1.25655,2.13855
4536,-1,0,0,-1,-1,-3,-4,-2,0.917969,0.0620117,0.287598,-4.0625,-2.1875,-0.1875,0.188693,-1.25746,2.13739
4536,0,0,-3,0,0,-1,-4,-1,0.917969,0.0620117,0.287598,-4.0625,-2.1875,-0.1875,0.188693,-1.25746,2.13739
4556,-1,-2,2,0,-1,0,-1,-1,0.917969,0.0620117,0.287598,-4.0625,-2.1875,-0.1875,0.188693,-1.25746,2.13739
4556,-3,-1,0,0,-3,-2,0,0,0.917969,0.0620117,0.287598,-4.0625,-2.1875,-0.1875,0.188693,-1.25746,2.13739
4557,-1,-1,-2,-1,-3,-1,-2,-1,0.91748,0.0527344,0.293945,-5.1875,-1.625,-0.0625,0.186931,-1.25771,2.13721
4557,-1,1,-2,0,-1,-1,0,-1,0.91748,0.0527344,0.293945,-5.1875,-1.625,-0.0625,0.186931,-1.25771,2.13721
4571,1,0,-3,-1,-1,-1,-2,1,0.91748,0.0527344,0.293945,-5.1875,-1.625,-0.0625,0.186931,-1.25771,2.13721
4571,-2,-3,-3,-1,-1,-1,-1,-3,0.91748,0.0527344,0.293945,-5.1875,-1.625,-0.0625,0.186931,-1.25771,2.13721
4572,0,-2,0,-2,-1,0,1,-1,0.920898,0.0522461,0.29834,-4.875,-1.0625,-0.125,0.185338,-1.25804,2.13718
4572,-1,-2,-2,-1,1,0,-1,1,0.920898,0.0522461,0.29834,-4.875,-1.0625,-0.125,0.185338,-1.25804,2.13718
4594,-1,0,-1,-1,0,-1,1,-3,0.920898,0.0522461,0.29834,-4.875,-1.0625,-0.125,0.185338,-1.25804,2.13718
4594,1,3,0,-1,-2,0,0,0,0.920898,0.0522461,0.29834,-4.875,-1.0625,-0.125,0.185338,-1.25804,2.13718
4596,1,-1,1,-1,-1,-2,-1,1,0.923828,0.0546875,0.303711,-4.625,-1.3125,0,0.183745,-1.25839,2.13717
4596,-1,-2,-1,0,0,-2,0,-1,0.923828,0.0546875,0.303711,-4.625,-1.3125,0,0.183745,-1.25839,2.13717
4608,2,0,0,0,-1,-2,-1,-1,0.923828,0.0546875,0.303711,-4.625,-1.3125,0,0.183745,-1.25839,2.13717
4608,0,-2,-2,0,0,0,-2,-1,0.923828,0.0546875,0.303711,-4.625,-1.3125,0,0.183745,-1.25839,2.13717
4614,1,-3,-4,-2,0,0,-2,1,0.922852,0.0634766,0.30127,-4.9375,-1.25,0.375,0.182193,-1.25831,2.13685
4614,-1,2,0,-1,0,1,-2,-1,0.922852,0.0634766,0.30127,-4.9375,-1.25,0.375,0.182193,-1.25831,2.13685
4639,-3,0,0,-1,-1,0,0,1,0.922852,0.0634766,0.30127,-4.9375,-1.25,0.375,0.182193,-1.25831,2.13685
4639,-4,-1,0,-1,-1,-1,0,-2,0.922852,0.0634766,0.30127,-4.9375,-1.25,0.375,0.182193,-1.25831,2.13685
4641,-1,-1,1,-2,-3,-2,0,0,0.92041,0.0615234,0.301758,-3.9375,-1.5625,0.9375,0.180806,-1.25872,2.13709
4641,0,-2,-2,-2,1,0,0,-2,0.92041,0.0615234,0.301758,-3.9375,-1.5625,0.9375,0.180806,-1.25872,2.13709
4654,0,-1,-3,0,-3,-1,-2,-1,0.92041,0.0615234,0.301758,-3.9375,-1.5625,0.9375,0.180806,-1.25872,2.13709
4654,-1,0,-1,-2,0,1,0,0,0.92041,0.0615234,0.301758,-3.9375,-1.5625,0.9375,0.180806,-1.25872,2.13709
4656,-2,-1,-1,0,-3,0,0,-1,0.922363,0.0629883,0.305176,-2.9375,-1.5625,1.25,0.179624,-1.25921,2.13759
4656,6,1,1,-2,-2,0,2,2,0.922363,0.0629883,0.305176,-2.9375,-1.5625,1.25,0.179624,-1.25921,2.13759
4668,-3,-2,-2,-2,-1,-1,-3,-3,0.922363,0.0629883,0.305176,-2.9375,-1.5625,1.25,0.179624,-1.25921,2.13759
4668,0,2,2,0,0,0,0,-1,0.922363,0.0629883,0.305176,-2.9375,-1.5625,1.25,0.179624,-1.25921,2.13759
4675,-2,-2,1,1,-1,0,-3,-1,0.918457,0.0668945,0.300781,-2.125,-1.4375,1.25,0.178522,-1.25924,2.13787
4675,-1,-2,-1,-1,1,0,-3,-1,0.918457,0.0668945,0.300781,-2.125,-1.4375,1.25,0.178522,-1.25924,2.13787
4691,1,-2,-1,-2,0,-2,-2,-1,0.918457,0.0668945,0.300781,-2.125,-1.4375,1.25,0.178522,-1.25924,2.13787
4691,0,-1,-1,-1,2,-1,1,-1,0.918457,0.0668945,0.300781,-2.125,-1.4375,1.25,0.178522,-1.25924,2.13787
4693,2,2,-1,0,0,-1,0,-1,0.92334,0.065918,0.300781,-2.3125,-1.5,1.4375,0.177589,-1.2598,2.13831
4693,-2,-3,0,-1,-1,-2,-1,-3,0.92334,0.065918,0.300781,-2.3125,-1.5,1.4375,0.177589,-1.2598,2.13831
4714,-2,1,0,-3,-2,-1,-1,0,0.92334,0.065918,0.300781,-2.3125,-1.5,1.4375,0.177589,-1.2598,2.13831
4714,0,-3,-2,-1,0,-1,-2,-1,0.92334,0.065918,0.300781,-2.3125,-1.5,1.4375,0.177589,-1.2598,2.13831
4715,-1,-6,-4,0,0,0,0,0,0.921387,0.0654297,0.298828,-2.3125,-1.3125,1.375,0.176444,-1.26006,2.13871
4715,-4,0,-3,0,0,0,0,-1,0.921387,0.0654297,0.298828,-2.3125,-1.3125,1.375,0.176444,-1.26006,2.13871
4728,0,1,-4,-2,-2,-2,1,0,0.921387,0.0654297,0.298828,-2.3125,-1.3125,1.375,0.176444,-1.26006,2.13871
4728,1,1,-1,-2,-3,-2,-3,0,0.921387,0.0654297,0.298828,-2.3125,-1.3125,1.375,0.176444,-1.26006,2.13871
4743,3,4,1,-1,-1,-1,-1,0,0.913574,0.0668945,0.29834,-2.75,-1.75,1.5625,0.175128,-1.26024,2.13895
4743,-4,0,0,-3,0,-2,0,-3,0.913574,0.0668945,0.29834,-2.75,-1.75,1.5625,0.175128,-1.26024,2.13895
4754,-1,-2,-2,2,-1,-1,0,-1,0.913574,0.0668945,0.29834,-2.75,-1.75,1.5625,0.175128,-1.26024,2.13895
4754,0,-3,-3,1,-2,1,-1,-2,0.913574,0.0668945,0.29834,-2.75,-1.75,1.5625,0.175128,-1.26024,2.13895
4754,-2,-3,-2,-1,0,0,-1,-1,0.904785,0.0693359,0.307617,-2.1875,-1.875,1.625,0.174151,-1.26059,2.1395
4754,0,-5,-4,1,-2,-2,-1,1,0.904785,0.0693359,0.307617,-2.1875,-1.875,1.625,0.174151,-1.26059,2.1395
4774,1,0,1,1,1,-2,-2,-1,0.904785,0.0693359,0.307617,-2.1875,-1.875,1.625,0.174151,-1.26059,2.1395
4774,1,0,-1,-2,-2,-2,-2,0,0.904785,0.0693359,0.307617,-2.1875,-1.875,1.625,0.174151,-1.26059,2.1395
4776,-3,-1,1,-1,-1,1,0,0,0.897949,0.0722656,0.304688,-0.6875,-2.5,1.1875,0.174489,-1.26087,2.13903
4776,0,2,0,-2,-1,-2,-1,0,0.897949,0.0722656,0.304688,-0.6875,-2.5,1.1875,0.174489,-1.26087,2.13903
4788,0,1,0,-2,0,0,2,-1,0.897949,0.0722656,0.304688,-0.6875,-2.5,1.1875,0.174489,-1.26087,2.13903
4788,2,-1,-2,1,0,-3,0,-2,0.897949,0.0722656,0.304688,-0.6875,-2.5,1.1875,0.174489,-1.26087,2.13903
4796,-3,-2,-1,1,-1,0,0,0,0.88916,0.0664062,0.318359,0.3125,-3.0625,1.1875,0.175039,-1.26101,2.13859
4796,-1,-1,-1,-2,-2,0,1,-1,0.88916,0.0664062,0.318359,0.3125,-3.0625,1.1875,0.175039,-1.26101,2.13859
4811,-1,0,0,-2,-2,0,0,-1,0.88916,0.0664062,0.318359,0.3125,-3.0625,1.1875,0.175039,-1.26101,2.13859
4811,-4,-1,2,-2,1,-1,-1,-1,0.88916,0.0664062,0.318359,0.3125,-3.0625,1.1875,0.175039,-1.26101,2.13859
4813,-1,-1,0,-3,-1,-1,-3,-1,0.877441,0.0693359,0.322754,1.4375,-4,1.5,0.175579,-1.26112,2.13856
4813,-2,-1,0,0,-1,-2,0,-1,0.877441,0.0693359,0.322754,1.4375,-4,1.5,0.175579,-1.26112,2.13856
4833,1,-3,0,-1,0,-1,-1,1,0.877441,0.0693359,0.322754,1.4375,-4,1.5,0.175579,-1.26112,2.13856
4833,-3,0,-1,0,-2,1,-2,-1,0.877441,0.0693359,0.322754,1.4375,-4,1.5,0.175579,-1.26112,2.13856
4835,1,4,-3,-1,-1,-2,-1,-2,0.874023,0.0751953,0.329102,2.8125,-5.4375,1.5625,0.177353,-1.26183,2.13792
4835,-7,-5,-1,1,-2,0,-3,-3,0.874023,0.0751953,0.329102,2.8125,-5.4375,1.5625,0.177353,-1.26183,2.13792
4856,-3,-1,-1,-1,-1,0,-2,0,0.874023,0.0751953,0.329102,2.8125,-5.4375,1.5625,0.177353,-1.26183,2.13792
4856,-1,0,0,0,-2,-3,0,0,0.874023,0.0751953,0.329102,2.8125,-5.4375,1.5625,0.177353,-1.26183,2.13792
4857,0,2,3,2,0,-2,0,1,0.862305,0.0712891,0.333984,5.1875,-6.6875,1.3125,0.179629,-1.26265,2.13757
4857,-3,-7,-6,-1,0,-1,-2,2,0.862305,0.0712891,0.333984,5.1875,-6.6875,1.3125,0.179629,-1.26265,2.13757
4871,-5,2,0,-1,1,-1,-2,-2,0.862305,0.0712891,0.333984,5.1875,-6.6875,1.3125,0.179629,-1.26265,2.13757
4871,-2,-4,0,-1,-1,-1,-1,-3,0.862305,0.0712891,0.333984,5.1875,-6.6875,1.3125,0.179629,-1.26265,2.13757
4873,2,4,2,0,0,-1,-1,0,0.859863,0.0693359,0.338867,7.25,-8.0625,1,0.183238,-1.26362,2.13637
4873,1,0,1,-2,-1,-1,0,-1,0.859863,0.0693359,0.338867,7.25,-8.0625,1,0.183238,-1.26362,2.13637
4894,1,0,-5,-1,-1,-1,-2,-2,0.859863,0.0693359,0.338867,7.25,-8.0625,1,0.183238,-1.26362,2.13637
4894,1,-1,-3,0,0,-1,-1,1,0.859863,0.0693359,0.338867,7.25,-8.0625,1,0.183238,-1.26362,2.13637
4896,0,0,1,-2,-2,-2,-1,-2,0.851562,0.0810547,0.330078,8,-8.5625,0.125,0.189164,-1.26487,2.13327
4896,3,6,2,0,0,0,0,0,0.851562,0.0810547,0.330078,8,-8.5625,0.125,0.189164,-1.26487,2.13327
4907,3,0,0,0,0,-1,-1,0,0.851562,0.0810547,0.330078,8,-8.5625,0.125,0.189164,-1.26487,2.13327
4907,2,7,1,-1,2,-1,1,0,0.851562,0.0810547,0.330078,8,-8.5625,0.125,0.189164,-1.26487,2.13327
4916,-4,-7,-4,-4,-2,-4,0,-3,0.844727,0.0888672,0.331055,4.375,-8.875,-1.1875,0.195735,-1.26613,2.12826
4916,-6,-18,-4,-3,-2,-1,-2,-1,0.844727,0.0888672,0.331055,4.375,-8.875,-1.1875,0.195735,-1.26613,2.12826
4931,1,3,3,0,-1,-2,0,-1,0.844727,0.0888672,0.331055,4.375,-8.875,-1.1875,0.195735,-1.26613,2.12826
4931,-9,4,-4,-4,-2,-1,-3,-4,0.844727,0.0888672,0.331055,4.375,-8.875,-1.1875,0.195735,-1.26613,2.12826
4932,-2,-13,-4,1,-1,-1,0,-1,0.824219,0.0825195,0.342285,3.6875,-9.3125,-0.9375,0.200985,-1.26701,2.12427
4932,3,13,5,0,0,-1,0,1,0.824219,0.0825195,0.342285,3.6875,-9.3125,-0.9375,0.200985,-1.26701,2.12427
4953,-1,-4,-4,-1,-1,-1,0,-1,0.824219,0.0825195,0.342285,3.6875,-9.3125,-0.9375,0.200985,-1.26701,2.12427
4953,-1,-9,4,1,-3,1,1,0,0.824219,0.0825195,0.342285,3.6875,-9.3125,-0.9375,0.200985,-1.26701,2.12427
4955,-1,3,-3,-1,-3,2,1,1,0.830078,0.0737305,0.321289,4.6875,-10,-1.6875,0.207281,-1.26874,2.11938
4955,1,1,-1,0,-2,-4,-13,-7,0.830078,0.0737305,0.321289,4.6875,-10,-1.6875,0.207281,-1.26874,2.11938
4967,0,-1,-2,-1,-2,-3,0,-1,0.830078,0.0737305,0.321289,4.6875,-10,-1.6875,0.207281,-1.26874,2.11938
4967,-2,2,-5,-3,-1,-2,-1,-1,0.830078,0.0737305,0.321289,4.6875,-10,-1.6875,0.207281,-1.26874,2.11938
4976,-1,1,1,-1,0,1,0,-1,0.818359,0.0864258,0.318848,4.1875,-9.8125,-2.125,0.214625,-1.26993,2.11327
4976,-2,-1,0,0,0,-1,3,0,0.818359,0.0864258,0.318848,4.1875,-9.8125,-2.125,0.214625,-1.26993,2.11327
4991,0,-2,-1,0,0,0,-1,0,0.818359,0.0864258,0.318848,4.1875,-9.8125,-2.125,0.214625,-1.26993,2.11327
4991,0,2,1,0,1,-1,-2,-1,0.818359,0.0864258,0.318848,4.1875,-9.8125,-2.125,0.214625,-1.26993,2.11327
4993,3,9,4,1,-2,-1,-1,-1,0.802734,0.0854492,0.310059,3.5625,-9.5,-1.5625,0.221251,-1.27132,2.10772
4993,0,-5,-1,0,-3,0,0,2,0.802734,0.0854492,0.310059,3.5625,-9.5,-1.5625,0.221251,-1.27132,2.10772
5021,-3,1,2,-4,-3,-2,-3,-2,0.802734,0.0854492,0.310059,3.5625,-9.5,-1.5625,0.221251,-1.27132,2.10772
5021,-7,3,0,0,0,-1,2,-2,0.802734,0.0854492,0.310059,3.5625,-9.5,-1.5625,0.221251,-1.27132,2.10772
5023,2,16,3,3,2,-1,-2,0,0.780273,0.0883789,0.291016,2.3125,-8.8125,0.4375,0.225413,-1.27278,2.1043
5023,0,-24,3,1,1,0,6,0,0.780273,0.0883789,0.291016,2.3125,-8.8125,0.4375,0.225413,-1.27278,2.1043
5028,-7,-3,-9,-1,-2,0,1,-1,0.780273,0.0883789,0.291016,2.3125,-8.8125,0.4375,0.225413,-1.27278,2.1043
5028,1,-14,-1,-2,-1,1,-1,0,0.780273,0.0883789,0.291016,2.3125,-8.8125,0.4375,0.225413,-1.27278,2.1043
5037,-2,2,-2,-3,0,-2,0,0,0.752441,0.0756836,0.285156,1.75,-8.5625,1.125,0.227959,-1.27444,2.10264
5037,-2,8,4,-2,0,0,5,2,0.752441,0.0756836,0.285156,1.75,-8.5625,1.125,0.227959,-1.27444,2.10264
5050,-3,1,3,-1,-2,-1,-6,-4,0.752441,0.0756836,0.285156,1.75,-8.5625,1.125,0.227959,-1.27444,2.10264
5050,-2,-12,-2,-1,-2,-2,-1,-2,0.752441,0.0756836,0.285156,1.75,-8.5625,1.125,0.227959,-1.27444,2.10264
5058,-6,-6,-1,0,1,0,1,-4,0.737793,0.0585938,0.272461,-1.9375,-9.625,1.25,0.227999,-1.27651,2.10188
5058,0,-4,-6,-1,0,1,5,5,0.737793,0.0585938,0.272461,-1.9375,-9.625,1.25,0.227999,-1.27651,2.10188
5074,0,-6,1,1,-3,-2,0,0,0.737793,0.0585938,0.272461,-1.9375,-9.625,1.25,0.227999,-1.27651,2.10188
5074,-1,21,1,-1,-3,-2,-1,-1,0.737793,0.0585938,0.272461,-1.9375,-9.625,1.25,0.227999,-1.27651,2.10188
5075,-5,-30,-11,0,-2,1,-3,-1,0.70166,0.0458984,0.243164,-1,-9.6875,4.0625,0.224735,-1.27928,2.10488
5075,-1,8,0,0,0,-2,-5,0,0.70166,0.0458984,0.243164,-1,-9.6875,4.0625,0.224735,-1.27928,2.10488
5097,-7,-3,-7,-6,0,1,-1,-2,0.70166,0.0458984,0.243164,-1,-9.6875,4.0625,0.224735,-1.27928,2.10488
5097,4,2,1,0,-2,0,-2,3,0.70166,0.0458984,0.243164,-1,-9.6875,4.0625,0.224735,-1.27928,2.10488
5098,1,9,1,-3,-3,-1,0,0,0.668457,0.0488281,0.243652,2.75,-10.25,6.1875,0.22101,-1.28194,2.10963
5098,-2,-22,-9,-2,0,-1,-4,-1,0.668457,0.0488281,0.243652,2.75,-10.25,6.1875,0.22101,-1.28194,2.10963
5111,2,7,3,0,2,-2,-1,0,0.668457,0.0488281,0.243652,2.75,-10.25,6.1875,0.22101,-1.28194,2.10963
5111,4,4,1,2,0,0,2,1,0.668457,0.0488281,0.243652,2.75,-10.25,6.1875,0.22101,-1.28194,2.10963
5112,0,2,3,1,0,-3,-2,0,0.656738,0.0385742,0.26709,6.125,-12.5,5.5625,0.217916,-1.28506,2.11514
5112,5,-8,-2,1,-3,-1,0,-1,0.656738,0.0385742,0.26709,6.125,-12.5,5.5625,0.217916,-1.28506,2.11514
5134,-1,3,1,-1,-3,2,0,0,0.656738,0.0385742,0.26709,6.125,-12.5,5.5625,0.217916,-1.28506,2.11514
5134,-2,-18,1,-2,0,-1,0,-2,0.656738,0.0385742,0.26709,6.125,-12.5,5.5625,0.217916,-1.28506,2.11514
5136,1,-1,1,-1,-2,-1,0,0,0.692871,-0.00585938,0.287109,11.4375,-16.75,6.125,0.213126,-1.28909,2.12353
5136,4,19,-1,-1,-2,-2,-1,-1,0.692871,-0.00585938,0.287109,11.4375,-16.75,6.125,0.213126,-1.28909,2.12353
5156,-2,-30,-1,0,0,0,-1,0,0.692871,-0.00585938,0.287109,11.4375,-16.75,6.125,0.213126,-1.28909,2.12353
5156,1,-4,-4,0,2,0,-3,0,0.692871,-0.00585938,0.287109,11.4375,-16.75,6.125,0.213126,-1.28909,2.12353
5157,-4,11,-4,-2,0,0,-2,-1,0.750488,-0.012207,0.247559,15.9375,-19.1875,7.625,0.208915,-1.29538,2.13312
5157,2,-34,-4,-4,1,-1,4,-1,0.750488,-0.012207,0.247559,15.9375,-19.1875,7.625,0.208915,-1.29538,2.13312
5170,4,12,-3,-2,0,-1,0,1,0.750488,-0.012207,0.247559,15.9375,-19.1875,7.625,0.208915,-1.29538,2.13312
5170,-5,4,3,-2,-3,1,-2,-3,0.750488,-0.012207,0.247559,15.9375,-19.1875,7.625,0.208915,-1.29538,2.13312
5178,3,13,4,1,0,-2,-1,-2,0.745117,0.00830078,0.190918,17.75,-18,7.875,0.207025,-1.30256,2.14157
5178,1,-2,-4,1,-1,0,-1,0,0.745117,0.00830078,0.190918,17.75,-18,7.875,0.207025,-1.30256,2.14157
5194,-2,3,2,-2,-4,-3,-2,-3,0.745117,0.00830078,0.190918,17.75,-18,7.875,0.207025,-1.30256,2.14157
5194,4,3,-3,-3,-2,1,-3,1,0.745117,0.00830078,0.190918,17.75,-18,7.875,0.207025,-1.30256,2.14157
5195,-4,-2,2,-1,-1,-1,0,-1,0.694824,0.0415039,0.19873,14,-16.25,6.875,0.207471,-1.30814,2.14606
5195,-5,22,-7,0,-2,-2,-3,-4,0.694824,0.0415039,0.19873,14,-16.25,6.875,0.207471,-1.30814,2.14606
5216,0,-17,7,-1,-3,-2,-3,0,0.694824,0.0415039,0.19873,14,-16.25,6.875,0.207471,-1.30814,2.14606
5216,1,-8,14,3,1,-1,1,0,0.694824,0.0415039,0.19873,14,-16.25,6.875,0.207471,-1.30814,2.14606
5218,-4,-24,-21,-2,-2,-3,-3,-2,0.724121,-0.00390625,0.219238,20.4375,-18.75,8.5,0.204036,-1.31468,2.15687
5218,-1,39,9,0,-1,-1,-2,-1,0.724121,-0.00390625,0.219238,20.4375,-18.75,8.5,0.204036,-1.31468,2.15687
5230,2,-6,-3,-1,0,0,-1,-2,0.724121,-0.00390625,0.219238,20.4375,-18.75,8.5,0.204036,-1.31468,2.15687
5230,-2,-17,-7,-2,-1,-2,1,-1,0.724121,-0.00390625,0.219238,20.4375,-18.75,8.5,0.204036,-1.31468,2.15687
5237,-3,-18,0,0,-2,0,1,0,0.84668,-0.019043,0.225586,27,-21.625,7.1875,0.203559,-1.32249,2.16659
5237,-1,14,4,0,0,0,-3,0,0.84668,-0.019043,0.225586,27,-21.625,7.1875,0.203559,-1.32249,2.16659
5254,3,4,0,0,-1,0,2,3,0.84668,-0.019043,0.225586,27,-21.625,7.1875,0.203559,-1.32249,2.16659
5254,0,13,-1,-1,1,0,-1,0,0.84668,-0.019043,0.225586,27,-21.625,7.1875,0.203559,-1.32249,2.16659
5255,0,0,-11,-2,-1,-1,-2,-2,0.919434,0.0131836,0.194824,23.1875,-20.3125,6.25,0.206095,-1.33057,2.17205
5255,-4,8,2,-2,-3,0,1,0,0.919434,0.0131836,0.194824,23.1875,-20.3125,6.25,0.206095,-1.33057,2.17205
5276,-7,-12,-14,-2,0,-3,-13,-8,0.919434,0.0131836,0.194824,23.1875,-20.3125,6.25,0.206095,-1.33057,2.17205
5276,0,-4,4,0,1,-2,0,2,0.919434,0.0131836,0.194824,23.1875,-20.3125,6.25,0.206095,-1.33057,2.17205
5277,2,14,7,0,-1,-1,-2,1,0.887207,0.0327148,0.185547,20.1875,-17.5625,6.3125,0.208824,-1.33723,2.17629
5277,0,5,-7,0,-3,-2,-2,-2,0.887207,0.0327148,0.185547,20.1875,-17.5625,6.3125,0.208824,-1.33723,2.17629
5298,0,-12,-2,0,2,1,4,4,0.887207,0.0327148,0.185547,20.1875,-17.5625,6.3125,0.208824,-1.33723,2.17629
5298,0,31,0,1,0,-2,-1,-3,0.887207,0.0327148,0.185547,20.1875,-17.5625,6.3125,0.208824,-1.33723,2.17629
5300,-8,-24,1,-6,-2,-2,-2,-2,0.869141,0.0410156,0.162598,18.875,-13.1875,8.5,0.207536,-1.3431,2.18433
5300,-3,10,4,-4,-1,1,-3,-2,0.869141,0.0410156,0.162598,18.875,-13.1875,8.5,0.207536,-1.3431,2.18433
5313,5,37,31,9,2,4,13,7,0.869141,0.0410156,0.162598,18.875,-13.1875,8.5,0.207536,-1.3431,2.18433
5313,-18,-82,-60,-12,-8,-7,-18,-14,0.869141,0.0410156,0.162598,18.875,-13.1875,8.5,0.207536,-1.3431,2.18433
5315,0,16,11,-1,-1,-1,9,3,0.904297,0.027832,0.166504,19.1875,-10.4375,9.5,0.202818,-1.3488,2.19669
5315,-13,-17,-10,-2,-3,-1,-3,-5,0.904297,0.027832,0.166504,19.1875,-10.4375,9.5,0.202818,-1.3488,2.19669
5336,3,1,8,3,0,1,-3,-2,0.904297,0.027832,0.166504,19.1875,-10.4375,9.5,0.202818,-1.3488,2.19669
5336,-2,5,9,0,-1,1,-1,2,0.904297,0.027832,0.166504,19.1875,-10.4375,9.5,0.202818,-1.3488,2.19669
5337,3,26,4,1,0,-1,-1,-1,0.977051,0.00732422,0.147461,20.125,-8.875,7.5625,0.198358,-1.35356,2.20794
5337,3,-8,-9,-1,0,0,-4,-1,0.977051,0.00732422,0.147461,20.125,-8.875,7.5625,0.198358,-1.35356,2.20794
5350,-12,-43,-18,-5,-3,-2,-3,-3,0.977051,0.00732422,0.147461,20.125,-8.875,7.5625,0.198358,-1.35356,2.20794
5350,10,63,13,4,1,1,6,6,0.977051,0.00732422,0.147461,20.125,-8.875,7.5625,0.198358,-1.35356,2.20794
5357,-2,31,-11,-3,-4,0,-3,-5,1.00684,0.0317383,0.16748,16.6875,-6.25,5.125,0.197816,-1.35736,2.21454
5357,6,34,18,3,3,1,6,6,1.00684,0.0317383,0.16748,16.6875,-6.25,5.125,0.197816,-1.35736,2.21454
5374,4,39,10,4,3,0,2,3,1.00684,0.0317383,0.16748,16.6875,-6.25,5.125,0.197816,-1.35736,2.21454
5374,2,-1,-13,-2,-3,-2,-1,-2,1.00684,0.0317383,0.16748,16.6875,-6.25,5.125,0.197816,-1.35736,2.21454
5375,-4,-29,5,-2,-3,-4,-2,-3,1.02686,0.0214844,0.165039,9.1875,-5,4.6875,0.193798,-1.36027,2.22161
5375,7,7,-7,-1,1,0,-1,1,1.02686,0.0214844,0.165039,9.1875,-5,4.6875,0.193798,-1.36027,2.22161
5396,-5,-3,-12,-8,-4,-5,-4,4,1.02686,0.0214844,0.165039,9.1875,-5,4.6875,0.193798,-1.36027,2.22161
5396,-4,-10,18,0,-1,1,3,2,1.02686,0.0214844,0.165039,9.1875,-5,4.6875,0.193798,-1.36027,2.22161
5398,2,21,4,2,1,1,-1,0,1.05615,0.000488281,0.15332,6,-3.75,5.1875,0.185689,-1.36388,2.23211
5398,0,-26,-3,4,3,1,-2,-1,1.05615,0.000488281,0.15332,6,-3.75,5.1875,0.185689,-1.36388,2.23211
5410,-2,-9,-3,-2,-2,-2,5,-4,1.05615,0.000488281,0.15332,6,-3.75,5.1875,0.185689,-1.36388,2.23211
5410,-3,56,2,-3,-5,-3,2,-1,1.05615,0.000488281,0.15332,6,-3.75,5.1875,0.185689,-1.36388,2.23211
5418,-1,-2,-12,-1,-1,0,-9,3,1.08691,0.000976562,0.134766,7.25,-4.0625,4.5,0.178812,-1.36765,2.24166
5418,0,10,-1,-2,-1,-3,-7,8,1.08691,0.000976562,0.134766,7.25,-4.0625,4.5,0.178812,-1.36765,2.24166
5433,-3,-19,-12,-3,-1,-1,-3,-39,1.08691,0.000976562,0.134766,7.25,-4.0625,4.5,0.178812,-1.36765,2.24166
5433,-6,-36,2,-1,-2,-5,-5,6,1.08691,0.000976562,0.134766,7.25,-4.0625,4.5,0.178812,-1.36765,2.24166
5435,0,-26,2,2,2,1,-11,-12,1.10547,0.0185547,0.097168,7.5625,-4.25,2.875,0.178042,-1.3722,2.24505
5435,3,-21,14,2,-1,0,2,4,1.10547,0.0185547,0.097168,7.5625,-4.25,2.875,0.178042,-1.3722,2.24505
5456,-8,-25,-34,-5,-1,-4,-4,11,1.10547,0.0185547,0.097168,7.5625,-4.25,2.875,0.178042,-1.3722,2.24505
5456,2,-6,4,-1,-2,2,-2,-12,1.10547,0.0185547,0.097168,7.5625,-4.25,2.875,0.178042,-1.3722,2.24505
5457,1,5,-1,-2,-1,-1,11,-7,1.11133,0.0727539,0.114746,7.9375,-3.9375,1.75,0.185397,-1.37557,2.24031
5457,-2,-25,0,-2,-3,0,-3,-3,1.11133,0.0727539,0.114746,7.9375,-3.9375,1.75,0.185397,-1.37557,2.24031
5471,10,9,17,2,0,3,5,-5,1.11133,0.0727539,0.114746,7.9375,-3.9375,1.75,0.185397,-1.37557,2.24031
5471,-6,-8,-13,-3,2,6,15,20,1.11133,0.0727539,0.114746,7.9375,-3.9375,1.75,0.185397,-1.37557,2.24031
5478,-6,-13,-2,-2,-2,-9,-6,6,1.11523,0.108887,0.102051,-8.3125,-5.25,-0.875,0.196386,-1.37993,2.22692
5478,3,-14,-8,1,1,-2,1,-2,1.11523,0.108887,0.102051,-8.3125,-5.25,-0.875,0.196386,-1.37993,2.22692
5494,0,29,14,1,-2,-3,-3,11,1.11523,0.108887,0.102051,-8.3125,-5.25,-0.875,0.196386,-1.37993,2.22692
5494,-2,13,-2,0,3,4,-1,1,1.11523,0.108887,0.102051,-8.3125,-5.25,-0.875,0.196386,-1.37993,2.22692
5496,0,11,-2,0,1,4,2,-9,1.15186,0.0957031,0.0805664,-23.25,-6,-4.5625,0.20885,-1.38479,2.20655
5496,-1,5,-5,-3,-2,-3,-1,-21,1.15186,0.0957031,0.0805664,-23.25,-6,-4.5625,0.20885,-1.38479,2.20655
5516,-3,0,-5,-3,-3,-2,4,48,1.15186,0.0957031,0.0805664,-23.25,-6,-4.5625,0.20885,-1.38479,2.20655
5516,-1,-10,7,2,-2,-11,-40,4,1.15186,0.0957031,0.0805664,-23.25,-6,-4.5625,0.20885,-1.38479,2.20655
5518,-15,-30,-3,-2,-7,-5,4,-8,1.19141,0.120605,0.101562,-26.6875,-6.0625,-9.5,0.232143,-1.38849,2.17399
5518,15,23,24,4,5,3,3,-3,1.19141,0.120605,0.101562,-26.6875,-6.0625,-9.5,0.232143,-1.38849,2.17399
5530,-23,-37,-38,-12,-7,-1,-10,-21,1.19141,0.120605,0.101562,-26.6875,-6.0625,-9.5,0.232143,-1.38849,2.17399
5530,-6,-17,-2,-4,-2,3,10,-2,1.19141,0.120605,0.101562,-26.6875,-6.0625,-9.5,0.232143,-1.38849,2.17399
5539,4,4,3,-2,-3,2,-4,-2,1.2041,0.0805664,0.114746,-26.3125,-5.1875,-8.0625,0.246956,-1.3917,2.14977
5539,-10,14,2,-2,-8,-8,-7,4,1.2041,0.0805664,0.114746,-26.3125,-5.1875,-8.0625,0.246956,-1.3917,2.14977
5553,17,30,10,6,4,-4,6,-19,1.2041,0.0805664,0.114746,-26.3125,-5.1875,-8.0625,0.246956,-1.3917,2.14977
5553,11,-9,4,1,-3,-9,0,-5,1.2041,0.0805664,0.114746,-26.3125,-5.1875,-8.0625,0.246956,-1.3917,2.14977
5555,0,7,-4,2,5,-3,-6,-6,1.23584,0.0820312,0.0385742,-37.375,-6.125,-5.1875,0.25621,-1.39698,2.12735
5555,-8,-5,-5,-3,-3,1,4,8,1.23584,0.0820312,0.0385742,-37.375,-6.125,-5.1875,0.25621,-1.39698,2.12735
5584,-2,-6,-7,-2,0,-1,1,9,1.23584,0.0820312,0.0385742,-37.375,-6.125,-5.1875,0.25621,-1.39698,2.12735
5584,0,12,-4,1,-3,-2,0,-20,1.23584,0.0820312,0.0385742,-37.375,-6.125,-5.1875,0.25621,-1.39698,2.12735
5585,7,-13,-1,-3,-5,-5,-3,9,1.21045,0.0556641,0.0234375,-42.375,-8.6875,-6,0.264166,-1.40336,2.10416
5585,-2,-14,-7,1,2,4,2,-6,1.21045,0.0556641,0.0234375,-42.375,-8.6875,-6,0.264166,-1.40336,2.10416
5590,17,1,10,1,1,1,-6,11,1.21045,0.0556641,0.0234375,-42.375,-8.6875,-6,0.264166,-1.40336,2.10416
5590,-26,10,3,-3,-1,0,-8,-24,1.21045,0.0556641,0.0234375,-42.375,-8.6875,-6,0.264166,-1.40336,2.10416
5598,8,0,1,0,1,6,4,20,1.2002,0.0356445,0.0341797,-47.25,-9.375,-8.8125,0.274145,-1.40951,2.07761
5598,1,-9,-5,-5,-1,-1,5,-4,1.2002,0.0356445,0.0341797,-47.25,-9.375,-8.8125,0.274145,-1.40951,2.07761
5614,5,16,12,-1,-4,-1,-18,17,1.2002,0.0356445,0.0341797,-47.25,-9.375,-8.8125,0.274145,-1.40951,2.07761
5614,-2,11,0,0,2,0,-1,-19,1.2002,0.0356445,0.0341797,-47.25,-9.375,-8.8125,0.274145,-1.40951,2.07761
5615,0,6,-1,0,0,0,0,9,1.20996,0.074707,0.0512695,-44.4375,-8.5625,-9.4375,0.291671,-1.41403,2.04394
5615,12,-10,-6,1,1,0,3,21,1.20996,0.074707,0.0512695,-44.4375,-8.5625,-9.4375,0.291671,-1.41403,2.04394
5636,5,-1,2,2,3,5,7,-4,1.20996,0.074707,0.0512695,-44.4375,-8.5625,-9.4375,0.291671,-1.41403,2.04394
5636,17,4,2,2,0,2,10,54,1.20996,0.074707,0.0512695,-44.4375,-8.5625,-9.4375,0.291671,-1.41403,2.04394
5637,31,8,3,2,3,5,9,4,1.22168,0.185547,0.112793,-44.0625,-7.375,-13.75,0.33276,-1.41513,1.98672
5637,-70,-14,-6,-4,-7,-11,-35,-91,1.22168,0.185547,0.112793,-44.0625,-7.375,-13.75,0.33276,-1.41513,1.98672
5650,-65,10,-10,-7,-8,-6,-19,-40,1.22168,0.185547,0.112793,-44.0625,-7.375,-13.75,0.33276,-1.41513,1.98672
5650,45,101,82,15,11,14,17,45,1.22168,0.185547,0.112793,-44.0625,-7.375,-13.75,0.33276,-1.41513,1.98672
5659,47,-26,-69,-2,4,6,8,-1,1.16357,0.152832,0.169922,-48.75,-7.625,-11.0625,0.358322,-1.4161,1.94463
5659,-34,-39,-33,-17,-12,-10,-9,-43,1.16357,0.152832,0.169922,-48.75,-7.625,-11.0625,0.358322,-1.4161,1.94463
5674,7,99,86,17,10,6,24,11,1.16357,0.152832,0.169922,-48.75,-7.625,-11.0625,0.358322,-1.4161,1.94463
5674,-33,-124,-98,-13,-6,-9,-9,-29,1.16357,0.152832,0.169922,-48.75,-7.625,-11.0625,0.358322,-1.4161,1.94463
5676,-24,-4,44,-17,-15,-12,-7,20,1.14355,-0.0625,0.175293,-25.75,-8.1875,2.5625,0.331663,-1.41998,1.96233
5676,51,89,2,3,3,6,14,48,1.14355,-0.0625,0.175293,-25.75,-8.1875,2.5625,0.331663,-1.41998,1.96233
5696,23,15,-18,-5,1,-1,-8,-4,1.14355,-0.0625,0.175293,-25.75,-8.1875,2.5625,0.331663,-1.41998,1.96233
5696,25,91,56,16,12,13,36,11,1.14355,-0.0625,0.175293,-25.75,-8.1875,2.5625,0.331663,-1.41998,1.96233
5698,53,53,23,13,7,7,-1,81,1.20703,0.03125,0.132324,-12.125,-1,5,0.315195,-1.42197,1.97468
5698,20,-51,-19,-1,-2,1,17,24,1.20703,0.03125,0.132324,-12.125,-1,5,0.315195,-1.42197,1.97468
5710,-32,-7,19,0,-7,-9,-27,-59,1.20703,0.03125,0.132324,-12.125,-1,5,0.315195,-1.42197,1.97468
5710,-20,-52,-29,-12,-11,-10,-52,-79,1.20703,0.03125,0.132324,-12.125,-1,5,0.315195,-1.42197,1.97468
5718,-16,-32,-10,-7,-4,-5,-13,-6,1.03564,-0.0605469,0.274414,26.5625,7.875,16.25,0.26138,-1.41856,2.03772
5718,49,-13,25,5,6,7,22,-13,1.03564,-0.0605469,0.274414,26.5625,7.875,16.25,0.26138,-1.41856,2.03772
5733,-65,-19,-12,-5,-5,-8,-25,-35,1.03564,-0.0605469,0.274414,26.5625,7.875,16.25,0.26138,-1.41856,2.03772
5733,69,-43,-9,-5,-5,-6,-6,39,1.03564,-0.0605469,0.274414,26.5625,7.875,16.25,0.26138,-1.41856,2.03772
5735,-72,-16,-11,-3,-3,-2,12,-21,0.996094,0.0537109,0.266602,19.5,6.0625,20.8125,0.217621,-1.41606,2.08964
5735,69,4,15,8,9,12,16,60,0.996094,0.0537109,0.266602,19.5,6.0625,20.8125,0.217621,-1.41606,2.08964
5755,-34,-79,-6,5,4,5,12,-12,0.996094,0.0537109,0.266602,19.5,6.0625,20.8125,0.217621,-1.41606,2.08964
5755,-98,3,-17,-12,-15,-21,-11,-43,0.996094,0.0537109,0.266602,19.5,6.0625,20.8125,0.217621,-1.41606,2.08964
5765,4,58,14,-1,0,-2,4,19,1.00488,0.240723,0.168945,18.4375,-1.125,-6.6875,0.269003,-1.414,2.04455
5765,100,14,31,21,26,69,117,127,1.00488,0.240723,0.168945,18.4375,-1.125,-6.6875,0.269003,-1.414,2.04455
5770,58,3,8,10,3,-25,-29,-30,1.00488,0.240723,0.168945,18.4375,-1.125,-6.6875,0.269003,-1.414,2.04455
5770,-106,-98,-79,-26,-28,-39,-94,-95,1.00488,0.240723,0.168945,18.4375,-1.125,-6.6875,0.269003,-1.414,2.04455
5779,32,-33,5,-10,-7,-9,-29,52,1.08203,0.21582,0.142578,5.375,-8.125,-14.5625,0.33185,-1.41409,1.98293
5779,-13,38,-12,-8,-5,-4,-7,-3,1.08203,0.21582,0.142578,5.375,-8.125,-14.5625,0.33185,-1.41409,1.98293
5794,72,-22,11,5,9,28,64,84,1.08203,0.21582,0.142578,5.375,-8.125,-14.5625,0.33185,-1.41409,1.98293
5794,107,26,46,24,26,48,109,90,1.08203,0.21582,0.142578,5.375,-8.125,-14.5625,0.33185,-1.41409,1.98293
5795,-8,71,-7,6,5,2,-38,-83,1.06104,0.154785,0.108398,-22.625,-3.5625,-14.25,0.372791,-1.41366,1.93372
5795,-128,-44,-26,-17,-12,1,-35,-119,1.06104,0.154785,0.108398,-22.625,-3.5625,-14.25,0.372791,-1.41366,1.93372
5816,38,32,-1,-11,-34,-93,-57,58,1.06104,0.154785,0.108398,-22.625,-3.5625,-14.25,0.372791,-1.41366,1.93372
5816,4,20,9,-2,-5,-9,-17,19,1.06104,0.154785,0.108398,-22.625,-3.5625,-14.25,0.372791,-1.41366,1.93372
5817,-9,-21,-7,0,2,16,16,-6,1.02344,0.0893555,0.175781,-19.625,-4.5,-16.75,0.405618,-1.4125,1.89413
5817,-6,-14,14,4,6,16,66,8,1.02344,0.0893555,0.175781,-19.625,-4.5,-16.75,0.405618,-1.4125,1.89413
5829,-16,-32,-24,-7,6,40,40,-17,1.02344,0.0893555,0.175781,-19.625,-4.5,-16.75,0.405618,-1.4125,1.89413
5829,16,40,3,-2,-6,-10,-36,51,1.02344,0.0893555,0.175781,-19.625,-4.5,-16.75,0.405618,-1.4125,1.89413
5838,-14,23,9,3,-7,-14,-26,-19,1.02148,0.135254,0.104492,-17.6875,-12.3125,-20.875,0.464188,-1.41346,1.82874
5838,5,22,-1,-1,-2,-10,-49,-31,1.02148,0.135254,0.104492,-17.6875,-12.3125,-20.875,0.464188,-1.41346,1.82874
5853,-3,-33,-15,-3,0,10,13,-3,1.02148,0.135254,0.104492,-17.6875,-12.3125,-20.875,0.464188,-1.41346,1.82874
5853,29,-3,10,10,11,8,27,17,1.02148,0.135254,0.104492,-17.6875,-12.3125,-20.875,0.464188,-1.41346,1.82874
5856,-12,-6,0,1,4,3,25,-9,1.12305,0.192383,0.0292969,-5.625,-11.5625,-21.1875,0.538995,-1.41484,1.75145
5856,-5,-14,-2,-3,-6,-37,-50,-9,1.12305,0.192383,0.0292969,-5.625,-11.5625,-21.1875,0.538995,-1.41484,1.75145
5876,4,-57,-31,-14,-5,1,-3,16,1.12305,0.192383,0.0292969,-5.625,-11.5625,-21.1875,0.538995,-1.41484,1.75145
5876,-2,24,23,-2,5,4,15,-13,1.12305,0.192383,0.0292969,-5.625,-11.5625,-21.1875,0.538995,-1.41484,1.75145
5878,-12,-31,-3,-1,-5,-24,-21,-16,1.11035,0.280762,0.00927734,-14.3125,-5.625,-21.25,0.615556,-1.41285,1.66985
5878,-19,-28,3,11,0,-15,-20,9,1.11035,0.280762,0.00927734,-14.3125,-5.625,-21.25,0.615556,-1.41285,1.66985
5890,6,12,4,17,10,8,-2,11,1.11035,0.280762,0.00927734,-14.3125,-5.625,-21.25,0.615556,-1.41285,1.66985
5890,-7,8,-4,-3,0,-10,3,0,1.11035,0.280762,0.00927734,-14.3125,-5.625,-21.25,0.615556,-1.41285,1.66985
5899,5,62,1,-7,-5,-5,13,-5,1.10059,0.152832,-0.000976562,-32.3125,0.0625,-14.6875,0.649282,-1.41218,1.62529
5899,-5,10,-1,-11,7,25,10,12,1.10059,0.152832,-0.000976562,-32.3125,0.0625,-14.6875,0.649282,-1.41218,1.62529
5913,4,26,10,-6,-8,-17,-54,1,1.10059,0.152832,-0.000976562,-32.3125,0.0625,-14.6875,0.649282,-1.41218,1.62529
5913,3,-7,-3,-4,-7,-3,89,-3,1.10059,0.152832,-0.000976562,-32.3125,0.0625,-14.6875,0.649282,-1.41218,1.62529
5915,-5,8,9,9,3,-8,-27,0,1.06152,0.00439453,0.0634766,-31.125,7,-8.0625,0.637735,-1.41092,1.62496
5915,-4,-1,5,7,4,54,-5,-5,1.06152,0.00439453,0.0634766,-31.125,7,-8.0625,0.637735,-1.41092,1.62496
5936,-22,26,-9,-5,-14,-51,-17,-22,1.06152,0.00439453,0.0634766,-31.125,7,-8.0625,0.637735,-1.41092,1.62496
5936,7,6,10,-2,-7,-1,-46,-13,1.06152,0.00439453,0.0634766,-31.125,7,-8.0625,0.637735,-1.41092,1.62496
5938,1,-14,2,-4,0,15,18,-5,0.994629,-0.0200195,-0.00195312,-4.5625,9.375,-2.3125,0.625414,-1.41166,1.6354
5938,-9,16,-3,-8,-14,-37,-44,-20,0.994629,-0.0200195,-0.00195312,-4.5625,9.375,-2.3125,0.625414,-1.41166,1.6354
5950,0,9,7,0,16,40,26,13,0.994629,-0.0200195,-0.00195312,-4.5625,9.375,-2.3125,0.625414,-1.41166,1.6354
5950,7,9,11,1,3,5,-13,1,0.994629,-0.0200195,-0.00195312,-4.5625,9.375,-2.3125,0.625414,-1.41166,1.6354
