0,0,-23,26,5,-2,-2,-4,6,0.768555,-0.313965,0.512695,26.125,-5.1875,35.1875,-0.523562,-0.913331,1.79267
0,-3,1,-37,-4,-2,-4,-1,-1,0.768555,-0.313965,0.512695,26.125,-5.1875,35.1875,-0.523562,-0.913331,1.79267
0,-3,-3,12,2,1,0,0,-3,0.768555,-0.313965,0.512695,26.125,-5.1875,35.1875,-0.523562,-0.913331,1.79267
0,-6,-10,-15,-5,-3,-1,2,4,0.768555,-0.313965,0.512695,26.125,-5.1875,35.1875,-0.523562,-0.913331,1.79267
1,7,13,2,-2,0,-6,-3,-7,0.768555,-0.313965,0.512695,26.125,-5.1875,35.1875,-0.523562,-0.913331,1.79267
1,0,0,6,-2,-3,-5,-9,-2,0.768555,-0.313965,0.512695,26.125,-5.1875,35.1875,-0.523562,-0.913331,1.79267
4,-5,-3,0,2,1,-1,-5,-6,0.768555,-0.313965,0.512695,26.125,-5.1875,35.1875,-0.523562,-0.913331,1.79267
4,0,9,-1,-1,-2,-2,-3,-2,0.768555,-0.313965,0.512695,26.125,-5.1875,35.1875,-0.523562,-0.913331,1.79267
11,-1,3,-1,0,0,4,1,-4,0.791992,-0.266113,0.51416,17.875,-4.8125,40.625,-0.532813,-0.908312,1.81282
11,-2,-3,-5,-5,-2,3,1,-7,0.791992,-0.266113,0.51416,17.875,-4.8125,40.625,-0.532813,-0.908312,1.81282
28,1,3,-1,1,1,-4,-3,15,0.791992,-0.266113,0.51416,17.875,-4.8125,40.625,-0.532813,-0.908312,1.81282
28,2,-7,-5,6,0,1,1,-5,0.791992,-0.266113,0.51416,17.875,-4.8125,40.625,-0.532813,-0.908312,1.81282
29,1,-2,-4,-1,-2,-2,1,6,0.782715,-0.276367,0.527344,4.875,-5.625,41.3125,-0.546617,-0.903024,1.83334
29,1,10,3,-1,1,-2,2,5,0.782715,-0.276367,0.527344,4.875,-5.625,41.3125,-0.546617,-0.903024,1.83334
42,0,-18,-1,-3,-3,1,2,-25,0.782715,-0.276367,0.527344,4.875,-5.625,41.3125,-0.546617,-0.903024,1.83334
42,1,8,14,-1,-2,-1,-1,2,0.782715,-0.276367,0.527344,4.875,-5.625,41.3125,-0.546617,-0.903024,1.83334
50,2,0,-25,-4,-2,-2,0,4,0.775391,-0.350586,0.529297,1.875,-7.25,41.0625,-0.563556,-0.897283,1.85556
50,3,-6,-2,4,3,3,1,4,0.775391,-0.350586,0.529297,1.875,-7.25,41.0625,-0.563556,-0.897283,1.85556
72,-8,-2,-4,-7,-5,0,0,-8,0.775391,-0.350586,0.529297,1.875,-7.25,41.0625,-0.563556,-0.897283,1.85556
72,4,4,13,4,2,0,-2,-4,0.775391,-0.350586,0.529297,1.875,-7.25,41.0625,-0.563556,-0.897283,1.85556
75,-2,-4,-9,-6,0,0,-5,0,0.766113,-0.361328,0.530273,8.3125,-8.9375,39.75,-0.577784,-0.891875,1.87718
75,-2,1,13,5,1,-1,-4,-8,0.766113,-0.361328,0.530273,8.3125,-8.9375,39.75,-0.577784,-0.891875,1.87718
86,9,13,-10,0,1,0,-2,8,0.766113,-0.361328,0.530273,8.3125,-8.9375,39.75,-0.577784,-0.891875,1.87718
86,-3,-7,1,-4,-1,-5,-6,0,0.766113,-0.361328,0.530273,8.3125,-8.9375,39.75,-0.577784,-0.891875,1.87718
129,10,-9,2,0,-1,0,7,13,0.765137,-0.349609,0.548828,22.1875,-12,39.0625,-0.606341,-0.877232,1.93991
129,-9,-2,-3,-7,-4,-4,2,-6,0.765137,-0.349609,0.548828,22.1875,-12,39.0625,-0.606341,-0.877232,1.93991
132,0,3,34,7,1,1,3,1,0.765137,-0.349609,0.548828,22.1875,-12,39.0625,-0.606341,-0.877232,1.93991
132,9,1,-43,2,0,-4,0,1,0.765137,-0.349609,0.548828,22.1875,-12,39.0625,-0.606341,-0.877232,1.93991
133,-13,-7,4,-5,-1,-1,-2,-1,0.765137,-0.349609,0.548828,22.1875,-12,39.0625,-0.606341,-0.877232,1.93991
133,-4,-5,2,-1,2,2,2,2,0.765137,-0.349609,0.548828,22.1875,-12,39.0625,-0.606341,-0.877232,1.93991
134,4,8,-1,0,0,1,3,-2,0.765137,-0.349609,0.548828,22.1875,-12,39.0625,-0.606341,-0.877232,1.93991
134,-5,-6,8,-3,-2,-2,-3,-3,0.765137,-0.349609,0.548828,22.1875,-12,39.0625,-0.606341,-0.877232,1.93991
139,5,9,-4,3,0,1,1,-4,0.765137,-0.349609,0.548828,22.1875,-12,39.0625,-0.606341,-0.877232,1.93991
139,-9,-20,-2,-3,-1,-3,-2,-8,0.765137,-0.349609,0.548828,22.1875,-12,39.0625,-0.606341,-0.877232,1.93991
146,6,12,9,-3,-3,-1,-3,14,0.801758,-0.37207,0.571289,28.0625,-13.875,35.25,-0.611147,-0.874044,1.95947
146,-2,-15,-24,-4,0,3,3,11,0.801758,-0.37207,0.571289,28.0625,-13.875,35.25,-0.611147,-0.874044,1.95947
153,1,13,1,0,-1,-7,-6,-2,0.801758,-0.37207,0.571289,28.0625,-13.875,35.25,-0.611147,-0.874044,1.95947
153,1,-4,0,-5,-1,0,0,-17,0.801758,-0.37207,0.571289,28.0625,-13.875,35.25,-0.611147,-0.874044,1.95947
168,-2,2,-1,0,1,2,0,-3,0.828613,-0.394043,0.584473,33.6875,-15.0625,30.25,-0.612624,-0.871996,1.97711
168,1,6,0,1,-1,0,-2,5,0.828613,-0.394043,0.584473,33.6875,-15.0625,30.25,-0.612624,-0.871996,1.97711
176,-2,-3,17,-3,0,2,1,-3,0.828613,-0.394043,0.584473,33.6875,-15.0625,30.25,-0.612624,-0.871996,1.97711
176,1,3,-16,5,2,1,-3,-1,0.828613,-0.394043,0.584473,33.6875,-15.0625,30.25,-0.612624,-0.871996,1.97711
200,-3,-7,-13,-5,-2,-3,-2,1,0.852539,-0.395996,0.557617,36.0625,-14.9375,25.25,-0.612224,-0.871771,1.99292
200,-6,-2,8,-2,-2,-2,-1,-6,0.852539,-0.395996,0.557617,36.0625,-14.9375,25.25,-0.612224,-0.871771,1.99292
200,-6,-5,-15,-5,-1,0,0,-2,0.852539,-0.395996,0.557617,36.0625,-14.9375,25.25,-0.612224,-0.871771,1.99292
200,10,12,17,-1,-4,0,0,6,0.852539,-0.395996,0.557617,36.0625,-14.9375,25.25,-0.612224,-0.871771,1.99292
214,-2,-18,-23,0,-3,-1,-1,-13,0.853027,-0.364258,0.529785,34.6875,-12,20.5,-0.609796,-0.872472,2.0057
214,2,13,20,0,3,0,-1,-5,0.853027,-0.364258,0.529785,34.6875,-12,20.5,-0.609796,-0.872472,2.0057
222,4,-14,-5,-1,-2,0,0,-1,0.853027,-0.364258,0.529785,34.6875,-12,20.5,-0.609796,-0.872472,2.0057
222,1,2,8,-1,-1,3,-1,17,0.853027,-0.364258,0.529785,34.6875,-12,20.5,-0.609796,-0.872472,2.0057
237,-5,-5,-17,-5,-2,-4,-3,-34,0.848145,-0.321777,0.519531,28.875,-6.9375,15.3125,-0.605499,-0.873368,2.01387
237,-6,8,12,2,-2,-3,-2,3,0.848145,-0.321777,0.519531,28.875,-6.9375,15.3125,-0.605499,-0.873368,2.01387
238,-4,-7,-5,2,-3,-5,-5,-8,0.848145,-0.321777,0.519531,28.875,-6.9375,15.3125,-0.605499,-0.873368,2.01387
238,5,2,-5,-2,0,-1,3,4,0.848145,-0.321777,0.519531,28.875,-6.9375,15.3125,-0.605499,-0.873368,2.01387
260,-3,-6,4,-2,3,1,2,6,0.83252,-0.316895,0.509766,21.3125,-1.6875,7.5,-0.599879,-0.874214,2.01692
260,-3,-3,-3,-10,-1,-1,2,-14,0.83252,-0.316895,0.509766,21.3125,-1.6875,7.5,-0.599879,-0.874214,2.01692
261,1,5,28,8,1,6,4,18,0.83252,-0.316895,0.509766,21.3125,-1.6875,7.5,-0.599879,-0.874214,2.01692
261,-2,-2,-29,7,2,-6,0,-18,0.83252,-0.316895,0.509766,21.3125,-1.6875,7.5,-0.599879,-0.874214,2.01692
274,-7,-5,8,-4,-2,-3,-2,-2,0.818359,-0.32373,0.501953,19.1875,2.6875,0.875,-0.59235,-0.874808,2.01611
274,1,5,6,0,1,2,1,3,0.818359,-0.32373,0.501953,19.1875,2.6875,0.875,-0.59235,-0.874808,2.01611
282,-1,-1,-20,-4,-1,-10,-5,2,0.818359,-0.32373,0.501953,19.1875,2.6875,0.875,-0.59235,-0.874808,2.01611
282,-3,-1,6,-1,-5,-2,-3,0,0.818359,-0.32373,0.501953,19.1875,2.6875,0.875,-0.59235,-0.874808,2.01611
298,-2,2,-11,-5,-3,-5,1,6,0.797363,-0.320801,0.505859,16.3125,5.375,-4,-0.583644,-0.875264,2.01236
298,0,-3,13,4,0,1,1,-9,0.797363,-0.320801,0.505859,16.3125,5.375,-4,-0.583644,-0.875264,2.01236
298,-1,3,9,4,1,1,2,2,0.797363,-0.320801,0.505859,16.3125,5.375,-4,-0.583644,-0.875264,2.01236
298,6,-6,-13,-4,-1,0,-2,5,0.797363,-0.320801,0.505859,16.3125,5.375,-4,-0.583644,-0.875264,2.01236
320,1,2,-7,-3,-2,-3,-2,9,0.789551,-0.337402,0.505371,13.3125,5.9375,-7.875,-0.57511,-0.875998,2.00725
320,-6,-1,12,3,-3,0,0,-14,0.789551,-0.337402,0.505371,13.3125,5.9375,-7.875,-0.57511,-0.875998,2.00725
320,-3,-10,-7,-1,-2,-1,0,-6,0.789551,-0.337402,0.505371,13.3125,5.9375,-7.875,-0.57511,-0.875998,2.00725
320,4,13,5,2,0,-6,-2,4,0.789551,-0.337402,0.505371,13.3125,5.9375,-7.875,-0.57511,-0.875998,2.00725
333,7,0,5,-1,-1,2,-3,5,0.785156,-0.359863,0.48877,12.375,5.8125,-12.125,-0.566786,-0.877492,2.00125
333,-13,-7,7,6,-2,-2,-3,3,0.785156,-0.359863,0.48877,12.375,5.8125,-12.125,-0.566786,-0.877492,2.00125
342,0,1,-33,-9,-1,0,1,1,0.785156,-0.359863,0.48877,12.375,5.8125,-12.125,-0.566786,-0.877492,2.00125
342,-2,-5,14,2,-1,1,-1,-4,0.785156,-0.359863,0.48877,12.375,5.8125,-12.125,-0.566786,-0.877492,2.00125
365,-1,-2,-6,-1,-1,7,1,11,0.755371,-0.381836,0.479492,15.1875,5.0625,-14.9375,-0.557707,-0.879028,1.99486
365,9,1,3,-1,-3,-1,-4,-44,0.755371,-0.381836,0.479492,15.1875,5.0625,-14.9375,-0.557707,-0.879028,1.99486
365,-18,-15,2,-1,-3,-3,-5,4,0.755371,-0.381836,0.479492,15.1875,5.0625,-14.9375,-0.557707,-0.879028,1.99486
365,-5,2,11,-3,0,-2,-1,4,0.755371,-0.381836,0.479492,15.1875,5.0625,-14.9375,-0.557707,-0.879028,1.99486
380,-3,1,-11,0,-1,2,2,0,0.766602,-0.349609,0.484863,22.9375,3.25,-16.8125,-0.544728,-0.881777,1.9876
380,7,-5,1,7,2,1,2,10,0.766602,-0.349609,0.484863,22.9375,3.25,-16.8125,-0.544728,-0.881777,1.9876
380,4,-6,-12,-2,-2,0,-2,-5,0.766602,-0.349609,0.484863,22.9375,3.25,-16.8125,-0.544728,-0.881777,1.9876
380,1,1,4,-4,0,-4,-3,-3,0.766602,-0.349609,0.484863,22.9375,3.25,-16.8125,-0.544728,-0.881777,1.9876
394,3,-2,3,-5,0,-2,-1,9,0.769043,-0.308105,0.513184,14.3125,2.9375,-14.125,-0.534088,-0.883991,1.98005
394,4,3,-2,2,0,-2,-2,10,0.769043,-0.308105,0.513184,14.3125,2.9375,-14.125,-0.534088,-0.883991,1.98005
410,3,2,11,0,-1,2,1,-9,0.769043,-0.308105,0.513184,14.3125,2.9375,-14.125,-0.534088,-0.883991,1.98005
410,1,7,-11,2,-3,-1,0,11,0.769043,-0.308105,0.513184,14.3125,2.9375,-14.125,-0.534088,-0.883991,1.98005
417,-5,-14,12,0,-2,-2,-1,-13,0.760254,-0.327148,0.511719,1.9375,-0.5625,-13.5625,-0.529375,-0.886769,1.97445
417,-1,10,-27,-7,-3,-1,-1,7,0.760254,-0.327148,0.511719,1.9375,-0.5625,-13.5625,-0.529375,-0.886769,1.97445
417,-13,-14,15,0,1,-2,-1,1,0.760254,-0.327148,0.511719,1.9375,-0.5625,-13.5625,-0.529375,-0.886769,1.97445
417,-9,-12,-10,0,-2,-1,0,-5,0.760254,-0.327148,0.511719,1.9375,-0.5625,-13.5625,-0.529375,-0.886769,1.97445
440,8,12,8,2,0,0,0,1,0.757812,-0.371094,0.520508,-0.6875,-3.375,-12.6875,-0.528,-0.889579,1.97123
440,-1,-6,-2,-5,0,0,0,-3,0.757812,-0.371094,0.520508,-0.6875,-3.375,-12.6875,-0.528,-0.889579,1.97123
441,-3,6,-10,-3,1,-2,-2,0,0.757812,-0.371094,0.520508,-0.6875,-3.375,-12.6875,-0.528,-0.889579,1.97123
441,5,3,9,3,-1,4,-2,-1,0.757812,-0.371094,0.520508,-0.6875,-3.375,-12.6875,-0.528,-0.889579,1.97123
454,-7,-4,-7,3,0,-3,-3,0,0.755371,-0.36084,0.517578,2.875,-4.8125,-11.9375,-0.525617,-0.892751,1.96847
454,-7,-14,-1,-5,-4,-3,-1,-11,0.755371,-0.36084,0.517578,2.875,-4.8125,-11.9375,-0.525617,-0.892751,1.96847
469,11,19,21,-3,-3,-11,-5,-22,0.755371,-0.36084,0.517578,2.875,-4.8125,-11.9375,-0.525617,-0.892751,1.96847
469,-5,-11,-35,0,4,3,-1,6,0.755371,-0.36084,0.517578,2.875,-4.8125,-11.9375,-0.525617,-0.892751,1.96847
477,-4,-9,3,-3,-3,-4,-5,-17,0.737793,-0.32959,0.509766,3.3125,-6.0625,-10,-0.523166,-0.895908,1.96614
477,4,9,-4,2,-2,-1,3,11,0.737793,-0.32959,0.509766,3.3125,-6.0625,-10,-0.523166,-0.895908,1.96614
478,0,2,-4,-1,-2,4,2,1,0.737793,-0.32959,0.509766,3.3125,-6.0625,-10,-0.523166,-0.895908,1.96614
478,1,-3,13,0,-3,-3,2,-6,0.737793,-0.32959,0.509766,3.3125,-6.0625,-10,-0.523166,-0.895908,1.96614
500,-1,7,-7,3,-1,-6,-3,3,0.725098,-0.307129,0.498047,2,-6.6875,-7.75,-0.521794,-0.899228,1.96498
500,-17,-21,-7,-4,0,-2,0,6,0.725098,-0.307129,0.498047,2,-6.6875,-7.75,-0.521794,-0.899228,1.96498
501,-3,3,7,2,1,6,4,1,0.725098,-0.307129,0.498047,2,-6.6875,-7.75,-0.521794,-0.899228,1.96498
501,1,3,6,-7,0,-1,1,9,0.725098,-0.307129,0.498047,2,-6.6875,-7.75,-0.521794,-0.899228,1.96498
522,-1,7,-19,-4,-2,-3,1,-4,0.721191,-0.306641,0.512207,1.125,-7.0625,-5.5625,-0.521256,-0.901813,1.96462
522,11,7,4,4,1,0,-3,4,0.721191,-0.306641,0.512207,1.125,-7.0625,-5.5625,-0.521256,-0.901813,1.96462
523,-11,-5,-4,1,-1,1,0,7,0.721191,-0.306641,0.512207,1.125,-7.0625,-5.5625,-0.521256,-0.901813,1.96462
523,-8,-4,-4,-2,-1,0,-3,-6,0.721191,-0.306641,0.512207,1.125,-7.0625,-5.5625,-0.521256,-0.901813,1.96462
537,3,-1,9,0,-2,0,-4,-5,0.723145,-0.318359,0.510742,2.5,-9,-3.0625,-0.521963,-0.904334,1.96625
537,-2,0,-5,-3,-2,-4,-2,-8,0.723145,-0.318359,0.510742,2.5,-9,-3.0625,-0.521963,-0.904334,1.96625
538,20,7,-4,-1,-2,-1,-1,4,0.723145,-0.318359,0.510742,2.5,-9,-3.0625,-0.521963,-0.904334,1.96625
538,-26,0,6,-3,0,3,6,20,0.723145,-0.318359,0.510742,2.5,-9,-3.0625,-0.521963,-0.904334,1.96625
561,0,5,-15,-2,-3,4,-1,-26,0.733398,-0.328613,0.510254,3.5625,-10.5,-1.5,-0.523618,-0.907087,1.96938
561,-4,2,16,5,0,-5,-4,8,0.733398,-0.328613,0.510254,3.5625,-10.5,-1.5,-0.523618,-0.907087,1.96938
561,-11,-10,-9,2,-3,-2,-3,-5,0.733398,-0.328613,0.510254,3.5625,-10.5,-1.5,-0.523618,-0.907087,1.96938
561,2,-16,0,0,-1,1,-2,2,0.733398,-0.328613,0.510254,3.5625,-10.5,-1.5,-0.523618,-0.907087,1.96938
574,1,-2,7,-2,0,1,3,8,0.746094,-0.315918,0.509766,3.6875,-11.75,0.125,-0.525671,-0.910388,1.97337
574,0,1,-7,-5,-3,0,2,-2,0.746094,-0.315918,0.509766,3.6875,-11.75,0.125,-0.525671,-0.910388,1.97337
582,3,3,0,1,0,-1,-2,3,0.746094,-0.315918,0.509766,3.6875,-11.75,0.125,-0.525671,-0.910388,1.97337
582,4,8,-3,-4,-4,-2,-4,-15,0.746094,-0.315918,0.509766,3.6875,-11.75,0.125,-0.525671,-0.910388,1.97337
597,-4,0,2,0,3,2,1,3,0.762207,-0.311523,0.506348,0.5625,-12.125,1.6875,-0.529286,-0.913528,1.97797
597,5,0,28,2,-1,-4,1,9,0.762207,-0.311523,0.506348,0.5625,-12.125,1.6875,-0.529286,-0.913528,1.97797
598,-3,-2,-25,0,-2,-5,-6,8,0.762207,-0.311523,0.506348,0.5625,-12.125,1.6875,-0.529286,-0.913528,1.97797
598,2,-15,4,2,-2,-1,-3,-6,0.762207,-0.311523,0.506348,0.5625,-12.125,1.6875,-0.529286,-0.913528,1.97797
620,-2,-5,1,-2,0,-3,0,-3,0.771973,-0.30127,0.508301,-2.0625,-12.25,3,-0.533979,-0.916708,1.98292
620,-1,-5,-10,-3,1,1,1,4,0.771973,-0.30127,0.508301,-2.0625,-12.25,3,-0.533979,-0.916708,1.98292
620,3,4,9,-1,1,2,2,-3,0.771973,-0.30127,0.508301,-2.0625,-12.25,3,-0.533979,-0.916708,1.98292
620,2,10,-4,0,-1,-1,-1,-5,0.771973,-0.30127,0.508301,-2.0625,-12.25,3,-0.533979,-0.916708,1.98292
643,7,-12,5,-1,1,-2,-1,9,0.769043,-0.312988,0.504883,-2.75,-12.5625,4.25,-0.539925,-0.919489,1.98913
643,6,8,-11,-2,-1,3,3,4,0.769043,-0.312988,0.504883,-2.75,-12.5625,4.25,-0.539925,-0.919489,1.98913
644,-6,-10,7,-1,1,-1,-1,-29,0.769043,-0.312988,0.504883,-2.75,-12.5625,4.25,-0.539925,-0.919489,1.98913
644,4,2,-17,0,0,6,-2,9,0.769043,-0.312988,0.504883,-2.75,-12.5625,4.25,-0.539925,-0.919489,1.98913
657,-6,-3,6,-1,-2,-8,-4,-2,0.771973,-0.297363,0.5,-4.9375,-12.625,5.0625,-0.54651,-0.922358,1.99522
657,0,-10,-12,-10,-1,3,-1,10,0.771973,-0.297363,0.5,-4.9375,-12.625,5.0625,-0.54651,-0.922358,1.99522
657,4,8,-10,-1,-1,-1,-2,-1,0.771973,-0.297363,0.5,-4.9375,-12.625,5.0625,-0.54651,-0.922358,1.99522
657,2,8,24,4,-1,-4,1,1,0.771973,-0.297363,0.5,-4.9375,-12.625,5.0625,-0.54651,-0.922358,1.99522
679,2,-4,-13,0,-1,3,1,5,0.762695,-0.280273,0.506348,-5.4375,-13.125,5.125,-0.552449,-0.925319,2.0009
679,-6,-6,-8,-2,-2,-3,-5,-4,0.762695,-0.280273,0.506348,-5.4375,-13.125,5.125,-0.552449,-0.925319,2.0009
687,-3,-4,-3,-5,-1,1,1,5,0.762695,-0.280273,0.506348,-5.4375,-13.125,5.125,-0.552449,-0.925319,2.0009
687,-3,-5,13,-1,0,0,0,-8,0.762695,-0.280273,0.506348,-5.4375,-13.125,5.125,-0.552449,-0.925319,2.0009
703,-1,10,-18,-1,-4,-2,-3,-31,0.77002,-0.269531,0.518066,-4.9375,-14.1875,5.125,-0.557801,-0.928446,2.0063
703,-2,-2,15,1,0,-1,0,-3,0.77002,-0.269531,0.518066,-4.9375,-14.1875,5.125,-0.557801,-0.928446,2.0063
704,-4,0,-13,3,0,1,0,0,0.77002,-0.269531,0.518066,-4.9375,-14.1875,5.125,-0.557801,-0.928446,2.0063
704,1,11,2,0,-3,-6,-2,-6,0.77002,-0.269531,0.518066,-4.9375,-14.1875,5.125,-0.557801,-0.928446,2.0063
717,-12,-21,0,-4,-3,0,-3,3,0.779297,-0.276855,0.519043,-6.4375,-15.125,5.5625,-0.564246,-0.931694,2.01227
717,7,2,4,1,3,2,0,0,0.779297,-0.276855,0.519043,-6.4375,-15.125,5.5625,-0.564246,-0.931694,2.01227
718,-1,4,6,-9,-4,-2,-1,-4,0.779297,-0.276855,0.519043,-6.4375,-15.125,5.5625,-0.564246,-0.931694,2.01227
718,6,1,-31,4,2,0,-1,1,0.779297,-0.276855,0.519043,-6.4375,-15.125,5.5625,-0.564246,-0.931694,2.01227
740,6,-5,12,0,6,6,3,10,0.791504,-0.288086,0.536621,-5.5,-16.6875,5.25,-0.570396,-0.935113,2.01852
740,-5,11,-17,-3,-5,-2,-3,10,0.791504,-0.288086,0.536621,-5.5,-16.6875,5.25,-0.570396,-0.935113,2.01852
740,-4,-7,7,-1,-2,-9,-2,-6,0.791504,-0.288086,0.536621,-5.5,-16.6875,5.25,-0.570396,-0.935113,2.01852
740,-3,-1,-6,-9,-5,-8,-4,-13,0.791504,-0.288086,0.536621,-5.5,-16.6875,5.25,-0.570396,-0.935113,2.01852
763,0,4,13,0,-2,-4,-1,9,0.786621,-0.301758,0.541016,-3,-19.0625,5,-0.576751,-0.938889,2.02584
763,4,-3,-7,1,1,-1,1,-1,0.786621,-0.301758,0.541016,-3,-19.0625,5,-0.576751,-0.938889,2.02584
764,4,1,4,-3,3,2,1,1,0.786621,-0.301758,0.541016,-3,-19.0625,5,-0.576751,-0.938889,2.02584
764,-2,1,1,1,-1,-1,0,-1,0.786621,-0.301758,0.541016,-3,-19.0625,5,-0.576751,-0.938889,2.02584
777,1,4,-5,-1,2,1,2,-9,0.785645,-0.31543,0.539062,1.5,-19.625,4.6875,-0.581679,-0.942649,2.03319
777,-3,1,11,4,-1,-1,1,2,0.785645,-0.31543,0.539062,1.5,-19.625,4.6875,-0.581679,-0.942649,2.03319
777,-4,-11,-26,-5,-2,0,0,4,0.785645,-0.31543,0.539062,1.5,-19.625,4.6875,-0.581679,-0.942649,2.03319
777,9,2,10,-3,-3,0,-2,1,0.785645,-0.31543,0.539062,1.5,-19.625,4.6875,-0.581679,-0.942649,2.03319
800,-7,1,-3,-4,0,-2,-4,3,0.788086,-0.296387,0.532227,3.5625,-19.5,4.0625,-0.585173,-0.946679,2.03989
800,-1,-5,-7,-1,-1,-2,-2,-11,0.788086,-0.296387,0.532227,3.5625,-19.5,4.0625,-0.585173,-0.946679,2.03989
801,1,10,23,-1,-1,-3,2,3,0.788086,-0.296387,0.532227,3.5625,-19.5,4.0625,-0.585173,-0.946679,2.03989
801,-1,-9,-12,8,3,1,0,2,0.788086,-0.296387,0.532227,3.5625,-19.5,4.0625,-0.585173,-0.946679,2.03989
823,7,3,1,-8,-5,-3,0,4,0.780762,-0.298828,0.512695,4.5,-19,4.0625,-0.58895,-0.950726,2.04713
823,-4,-4,-10,-1,-1,-1,-4,0,0.780762,-0.298828,0.512695,4.5,-19,4.0625,-0.58895,-0.950726,2.04713
824,1,3,15,3,1,1,-2,2,0.780762,-0.298828,0.512695,4.5,-19,4.0625,-0.58895,-0.950726,2.04713
824,-8,-1,0,-5,-2,-1,3,22,0.780762,-0.298828,0.512695,4.5,-19,4.0625,-0.58895,-0.950726,2.04713
837,-3,2,-1,2,-2,-1,-1,-16,0.77832,-0.310059,0.508789,5.6875,-18.375,4.125,-0.592614,-0.954463,2.05459
837,-4,-5,-3,1,0,-1,-2,2,0.77832,-0.310059,0.508789,5.6875,-18.375,4.125,-0.592614,-0.954463,2.05459
838,8,0,4,-5,-3,2,-1,-15,0.77832,-0.310059,0.508789,5.6875,-18.375,4.125,-0.592614,-0.954463,2.05459
838,-8,4,-22,-9,-3,-3,3,22,0.77832,-0.310059,0.508789,5.6875,-18.375,4.125,-0.592614,-0.954463,2.05459
860,5,-17,10,16,2,0,-2,15,0.770996,-0.328613,0.496094,7.3125,-17.3125,4.3125,-0.596136,-0.957406,2.06214
860,-15,2,18,1,-2,-4,-2,-10,0.770996,-0.328613,0.496094,7.3125,-17.3125,4.3125,-0.596136,-0.957406,2.06214
860,-3,3,-3,-2,-2,-1,-2,-3,0.770996,-0.328613,0.496094,7.3125,-17.3125,4.3125,-0.596136,-0.957406,2.06214
860,-5,-11,5,-2,-1,1,-1,-20,0.770996,-0.328613,0.496094,7.3125,-17.3125,4.3125,-0.596136,-0.957406,2.06214
882,2,10,-8,-1,0,-3,-1,1,0.778809,-0.338379,0.486328,12.125,-16.625,3.75,-0.598236,-0.960525,2.06981
882,-5,-3,-11,-5,-3,0,-2,-8,0.778809,-0.338379,0.486328,12.125,-16.625,3.75,-0.598236,-0.960525,2.06981
882,6,10,4,4,1,2,1,4,0.778809,-0.338379,0.486328,12.125,-16.625,3.75,-0.598236,-0.960525,2.06981
882,6,-5,-22,-2,-1,0,-1,-7,0.778809,-0.338379,0.486328,12.125,-16.625,3.75,-0.598236,-0.960525,2.06981
896,-2,-1,0,-2,1,1,1,2,0.796875,-0.345703,0.490234,17.3125,-15.3125,3.1875,-0.598357,-0.963407,2.07718
896,3,2,-7,-1,-1,2,1,3,0.796875,-0.345703,0.490234,17.3125,-15.3125,3.1875,-0.598357,-0.963407,2.07718
906,1,-12,13,-2,0,-1,1,-14,0.81543,-0.334961,0.474121,15,-14.4375,2.5,-0.598749,-0.966667,2.08375
906,-5,3,-9,-2,-3,-5,-5,-10,0.81543,-0.334961,0.474121,15,-14.4375,2.5,-0.598749,-0.966667,2.08375
920,-5,1,-13,-6,-2,-2,-2,2,0.81543,-0.334961,0.474121,15,-14.4375,2.5,-0.598749,-0.966667,2.08375
920,-1,-4,20,11,2,1,-1,1,0.81543,-0.334961,0.474121,15,-14.4375,2.5,-0.598749,-0.966667,2.08375
922,4,2,0,7,0,0,2,2,0.824219,-0.330078,0.470215,11.0625,-13.25,1.125,-0.599457,-0.970209,2.08934
922,-5,0,7,0,1,3,0,-14,0.824219,-0.330078,0.470215,11.0625,-13.25,1.125,-0.599457,-0.970209,2.08934
943,-4,0,1,-5,-4,-3,-4,-37,0.824219,-0.330078,0.470215,11.0625,-13.25,1.125,-0.599457,-0.970209,2.08934
943,7,5,-8,-6,0,-3,-4,7,0.824219,-0.330078,0.470215,11.0625,-13.25,1.125,-0.599457,-0.970209,2.08934
944,-7,-2,-14,0,0,1,-1,3,0.827637,-0.341797,0.460938,7.875,-12.0625,-0.375,-0.600847,-0.973315,2.0939
944,1,-7,35,1,-1,1,0,1,0.827637,-0.341797,0.460938,7.875,-12.0625,-0.375,-0.600847,-0.973315,2.0939
956,-3,-7,-29,-1,-1,0,-1,6,0.827637,-0.341797,0.460938,7.875,-12.0625,-0.375,-0.600847,-0.973315,2.0939
956,20,15,1,-4,-3,-6,3,0,0.827637,-0.341797,0.460938,7.875,-12.0625,-0.375,-0.600847,-0.973315,2.0939
965,-8,-10,-7,-2,-2,-1,-4,-2,0.834473,-0.342285,0.458008,5.625,-10.1875,-0.75,-0.602367,-0.976264,2.09791
965,1,4,25,4,0,0,0,8,0.834473,-0.342285,0.458008,5.625,-10.1875,-0.75,-0.602367,-0.976264,2.09791
980,-5,-1,-11,-3,-1,0,-1,-8,0.834473,-0.342285,0.458008,5.625,-10.1875,-0.75,-0.602367,-0.976264,2.09791
980,-3,-8,-1,-1,1,-1,0,-4,0.834473,-0.342285,0.458008,5.625,-10.1875,-0.75,-0.602367,-0.976264,2.09791
982,3,2,-12,-8,-4,-5,-1,6,0.840332,-0.332031,0.45166,5.25,-9.0625,-2.3125,-0.603099,-0.979515,2.10067
982,-5,1,14,10,0,0,-1,-6,0.840332,-0.332031,0.45166,5.25,-9.0625,-2.3125,-0.603099,-0.979515,2.10067
1003,-4,-1,-3,-3,-2,2,2,16,0.840332,-0.332031,0.45166,5.25,-9.0625,-2.3125,-0.603099,-0.979515,2.10067
1003,-2,3,12,-2,-2,-1,-3,-33,0.840332,-0.332031,0.45166,5.25,-9.0625,-2.3125,-0.603099,-0.979515,2.10067
1004,-7,1,-4,1,-1,0,0,-1,0.848633,-0.319336,0.452148,5.875,-8.75,-3.5625,-0.602328,-0.982959,2.10214
1004,10,1,-14,-1,-2,1,2,4,0.848633,-0.319336,0.452148,5.875,-8.75,-3.5625,-0.602328,-0.982959,2.10214
1016,8,2,-1,-2,1,0,0,21,0.848633,-0.319336,0.452148,5.875,-8.75,-3.5625,-0.602328,-0.982959,2.10214
1016,-14,-17,3,-5,-2,-1,-3,-3,0.848633,-0.319336,0.452148,5.875,-8.75,-3.5625,-0.602328,-0.982959,2.10214
1025,10,7,-11,0,1,-4,1,9,0.84375,-0.310059,0.450195,6.5625,-8.5,-5.0625,-0.600278,-0.986461,2.10243
1025,1,-9,-6,-5,-3,-4,-2,-11,0.84375,-0.310059,0.450195,6.5625,-8.5,-5.0625,-0.600278,-0.986461,2.10243
1041,12,16,9,0,-1,2,-1,6,0.84375,-0.310059,0.450195,6.5625,-8.5,-5.0625,-0.600278,-0.986461,2.10243
1041,-2,-4,-8,-6,-3,1,1,4,0.84375,-0.310059,0.450195,6.5625,-8.5,-5.0625,-0.600278,-0.986461,2.10243
1042,-5,-2,12,9,3,1,1,-13,0.845215,-0.300781,0.45752,7.0625,-7.375,-7.0625,-0.596649,-0.990065,2.10112
1042,1,1,-7,-7,1,0,-1,13,0.845215,-0.300781,0.45752,7.0625,-7.375,-7.0625,-0.596649,-0.990065,2.10112
1063,0,-3,-22,-2,-2,1,-1,6,0.845215,-0.300781,0.45752,7.0625,-7.375,-7.0625,-0.596649,-0.990065,2.10112
1063,-2,-6,1,2,0,-8,-1,-10,0.845215,-0.300781,0.45752,7.0625,-7.375,-7.0625,-0.596649,-0.990065,2.10112
1064,2,-4,-3,1,-1,0,-3,5,0.837402,-0.288574,0.465332,9.625,-6.4375,-10.1875,-0.589872,-0.993944,2.09733
1064,3,8,20,-8,-2,-3,-1,0,0.837402,-0.288574,0.465332,9.625,-6.4375,-10.1875,-0.589872,-0.993944,2.09733
1077,-6,-2,-9,4,-1,-1,-3,-13,0.837402,-0.288574,0.465332,9.625,-6.4375,-10.1875,-0.589872,-0.993944,2.09733
1077,7,-1,2,2,-2,2,1,1,0.837402,-0.288574,0.465332,9.625,-6.4375,-10.1875,-0.589872,-0.993944,2.09733
1085,-9,0,-20,-8,-1,-2,-2,3,0.850586,-0.282227,0.469727,10.25,-4.9375,-13.8125,-0.580552,-0.99799,2.09084
1085,-2,-17,1,4,-1,-2,-1,-11,0.850586,-0.282227,0.469727,10.25,-4.9375,-13.8125,-0.580552,-0.99799,2.09084
1107,-6,-9,7,-1,0,0,3,21,0.850586,-0.282227,0.469727,10.25,-4.9375,-13.8125,-0.580552,-0.99799,2.09084
1107,-3,-2,-8,-2,2,1,-2,-25,0.850586,-0.282227,0.469727,10.25,-4.9375,-13.8125,-0.580552,-0.99799,2.09084
1109,4,4,-2,-5,-3,-3,-2,-5,0.858398,-0.275879,0.464355,10.25,-2.125,-20,-0.56766,-1.00267,2.08012
1109,-1,1,-29,1,0,5,0,1,0.858398,-0.275879,0.464355,10.25,-2.125,-20,-0.56766,-1.00267,2.08012
1122,-7,-4,36,7,0,0,-1,0,0.858398,-0.275879,0.464355,10.25,-2.125,-20,-0.56766,-1.00267,2.08012
1122,2,-2,-1,-4,-5,-3,-3,7,0.858398,-0.275879,0.464355,10.25,-2.125,-20,-0.56766,-1.00267,2.08012
1129,-3,1,-4,-3,1,2,1,17,0.858398,-0.245605,0.481445,8.5,1.1875,-27.5625,-0.549552,-1.00746,2.0628
1129,0,-1,-26,-4,-1,-4,-1,-7,0.858398,-0.245605,0.481445,8.5,1.1875,-27.5625,-0.549552,-1.00746,2.0628
1145,1,-3,6,-3,-2,-4,-3,-7,0.858398,-0.245605,0.481445,8.5,1.1875,-27.5625,-0.549552,-1.00746,2.0628
1145,-4,5,4,0,-1,0,2,4,0.858398,-0.245605,0.481445,8.5,1.1875,-27.5625,-0.549552,-1.00746,2.0628
1146,-1,-5,2,-4,-5,-5,-2,11,0.884277,-0.231934,0.496094,4.6875,3.875,-35.6875,-0.527516,-1.0128,2.03957
1146,-3,2,25,0,-2,9,-2,0,0.884277,-0.231934,0.496094,4.6875,3.875,-35.6875,-0.527516,-1.0128,2.03957
1168,4,3,-8,-4,-3,-4,-1,-13,0.884277,-0.231934,0.496094,4.6875,3.875,-35.6875,-0.527516,-1.0128,2.03957
1168,-1,2,-16,4,1,0,-3,4,0.884277,-0.231934,0.496094,4.6875,3.875,-35.6875,-0.527516,-1.0128,2.03957
1169,-2,-1,12,3,0,-4,-1,5,0.910645,-0.23877,0.510254,-3.3125,5.375,-43.0625,-0.504182,-1.01868,2.01134
1169,4,-4,-22,-1,1,-1,1,-4,0.910645,-0.23877,0.510254,-3.3125,5.375,-43.0625,-0.504182,-1.01868,2.01134
1182,-5,4,26,-6,-3,-1,0,-5,0.910645,-0.23877,0.510254,-3.3125,5.375,-43.0625,-0.504182,-1.01868,2.01134
1182,6,8,-14,5,1,0,-1,5,0.910645,-0.23877,0.510254,-3.3125,5.375,-43.0625,-0.504182,-1.01868,2.01134
1196,-4,-14,-11,2,3,4,1,-12,0.931641,-0.239258,0.48584,-14.875,5.6875,-49.1875,-0.482576,-1.02559,1.98022
1196,3,1,13,0,0,-3,1,1,0.931641,-0.239258,0.48584,-14.875,5.6875,-49.1875,-0.482576,-1.02559,1.98022
1205,-7,-2,-10,-2,-2,-5,-4,-9,0.931641,-0.239258,0.48584,-14.875,5.6875,-49.1875,-0.482576,-1.02559,1.98022
1205,-6,-5,1,-6,-4,0,-1,10,0.931641,-0.239258,0.48584,-14.875,5.6875,-49.1875,-0.482576,-1.02559,1.98022
1207,0,1,0,-1,-3,-3,-4,-10,0.93457,-0.23877,0.466797,-25.5625,6.875,-51.875,-0.463117,-1.03224,1.94697
1207,-5,1,-11,-5,0,-1,-4,-6,0.93457,-0.23877,0.466797,-25.5625,6.875,-51.875,-0.463117,-1.03224,1.94697
1227,-3,-10,6,4,-3,-2,0,16,0.93457,-0.23877,0.466797,-25.5625,6.875,-51.875,-0.463117,-1.03224,1.94697
1227,-6,1,-3,-6,0,2,0,-21,0.93457,-0.23877,0.466797,-25.5625,6.875,-51.875,-0.463117,-1.03224,1.94697
1230,1,-7,1,0,-3,-4,-5,-11,0.88623,-0.211914,0.417969,-31.625,9.3125,-53.25,-0.444136,-1.03858,1.91188
1230,-10,0,12,1,-1,-4,1,1,0.88623,-0.211914,0.417969,-31.625,9.3125,-53.25,-0.444136,-1.03858,1.91188
1242,3,0,1,4,2,2,3,-9,0.88623,-0.211914,0.417969,-31.625,9.3125,-53.25,-0.444136,-1.03858,1.91188
1242,3,-2,-20,-4,-2,-1,1,21,0.88623,-0.211914,0.417969,-31.625,9.3125,-53.25,-0.444136,-1.03858,1.91188
1248,-1,3,26,-5,-4,-3,-3,-30,0.840332,-0.17627,0.387207,-33.25,11.9375,-53.1875,-0.424131,-1.04402,1.87534
1248,0,-4,-24,1,-1,-3,-5,-3,0.840332,-0.17627,0.387207,-33.25,11.9375,-53.1875,-0.424131,-1.04402,1.87534
1265,4,-4,-14,-8,-1,-1,0,7,0.840332,-0.17627,0.387207,-33.25,11.9375,-53.1875,-0.424131,-1.04402,1.87534
1265,4,3,4,1,0,4,2,3,0.840332,-0.17627,0.387207,-33.25,11.9375,-53.1875,-0.424131,-1.04402,1.87534
1267,2,3,-5,-1,-1,0,3,1,0.79248,-0.165527,0.383301,-29.0625,12.9375,-48.3125,-0.404558,-1.04748,1.84104
1267,-1,2,3,-5,-5,-7,-5,1,0.79248,-0.165527,0.383301,-29.0625,12.9375,-48.3125,-0.404558,-1.04748,1.84104
1288,-5,3,8,3,1,0,2,-8,0.79248,-0.165527,0.383301,-29.0625,12.9375,-48.3125,-0.404558,-1.04748,1.84104
1288,-5,-7,4,-5,-1,-1,-2,2,0.79248,-0.165527,0.383301,-29.0625,12.9375,-48.3125,-0.404558,-1.04748,1.84104
1289,1,6,-1,6,3,2,1,9,0.772461,-0.190918,0.398438,-21.8125,13.0625,-37.375,-0.389382,-1.04823,1.81429
1289,-6,2,11,-2,0,5,-1,-4,0.772461,-0.190918,0.398438,-21.8125,13.0625,-37.375,-0.389382,-1.04823,1.81429
1301,1,3,-20,-2,-1,-7,-3,1,0.772461,-0.190918,0.398438,-21.8125,13.0625,-37.375,-0.389382,-1.04823,1.81429
1301,3,-6,6,1,2,-1,-2,-4,0.772461,-0.190918,0.398438,-21.8125,13.0625,-37.375,-0.389382,-1.04823,1.81429
1310,-4,0,-16,-5,0,2,1,9,0.76416,-0.203125,0.418457,-7.75,10.25,-28.1875,-0.375635,-1.04811,1.79493
1310,-6,-4,29,-1,1,1,-2,-27,0.76416,-0.203125,0.418457,-7.75,10.25,-28.1875,-0.375635,-1.04811,1.79493
1325,4,-1,-7,2,-2,-2,0,1,0.76416,-0.203125,0.418457,-7.75,10.25,-28.1875,-0.375635,-1.04811,1.79493
1325,1,-6,8,-1,-1,-3,-3,19,0.76416,-0.203125,0.418457,-7.75,10.25,-28.1875,-0.375635,-1.04811,1.79493
1327,-3,0,-7,2,-2,0,0,6,0.756836,-0.220703,0.44043,5.1875,6.0625,-26.6875,-0.359831,-1.0484,1.77801
1327,-1,-2,-11,-6,-1,-8,-3,-14,0.756836,-0.220703,0.44043,5.1875,6.0625,-26.6875,-0.359831,-1.0484,1.77801
1349,-1,1,7,-2,-3,1,0,-5,0.756836,-0.220703,0.44043,5.1875,6.0625,-26.6875,-0.359831,-1.0484,1.77801
1349,1,17,21,3,-1,-3,-1,2,0.756836,-0.220703,0.44043,5.1875,6.0625,-26.6875,-0.359831,-1.0484,1.77801
1349,-5,-12,-26,5,3,-1,0,1,0.788574,-0.208008,0.443848,12,0.75,-23,-0.344792,-1.05018,1.76494
1349,3,3,-9,-2,0,0,1,7,0.788574,-0.208008,0.443848,12,0.75,-23,-0.344792,-1.05018,1.76494
1361,-2,-6,-1,-2,-2,-1,-4,6,0.788574,-0.208008,0.443848,12,0.75,-23,-0.344792,-1.05018,1.76494
1361,-3,-3,-8,-2,-1,0,-1,-9,0.788574,-0.208008,0.443848,12,0.75,-23,-0.344792,-1.05018,1.76494
1371,-2,0,7,-10,-7,-3,-2,1,0.803711,-0.19873,0.438477,12.75,-4.5625,-20.9375,-0.331384,-1.05356,1.75394
1371,6,3,1,14,1,-1,0,4,0.803711,-0.19873,0.438477,12.75,-4.5625,-20.9375,-0.331384,-1.05356,1.75394
1385,-7,-2,7,-3,0,1,-2,-8,0.803711,-0.19873,0.438477,12.75,-4.5625,-20.9375,-0.331384,-1.05356,1.75394
1385,-2,-2,-12,5,0,1,0,-3,0.803711,-0.19873,0.438477,12.75,-4.5625,-20.9375,-0.331384,-1.05356,1.75394
1387,-4,-7,-7,-7,0,-1,1,-4,0.842773,-0.180664,0.424316,10.625,-9.375,-13.875,-0.32326,-1.05848,1.74831
1387,2,2,-14,-5,-3,-1,3,12,0.842773,-0.180664,0.424316,10.625,-9.375,-13.875,-0.32326,-1.05848,1.74831
1407,1,2,9,4,1,4,2,9,0.842773,-0.180664,0.424316,10.625,-9.375,-13.875,-0.32326,-1.05848,1.74831
1407,-5,1,15,-2,-2,-7,0,-3,0.842773,-0.180664,0.424316,10.625,-9.375,-13.875,-0.32326,-1.05848,1.74831
1409,-1,1,-4,0,-1,1,2,1,0.856445,-0.178223,0.396484,10.4375,-13.625,-8.3125,-0.319522,-1.06483,1.74777
1409,2,-4,-15,4,-1,1,1,3,0.856445,-0.178223,0.396484,10.4375,-13.625,-8.3125,-0.319522,-1.06483,1.74777
1421,-3,-2,3,-3,0,-2,-2,-3,0.856445,-0.178223,0.396484,10.4375,-13.625,-8.3125,-0.319522,-1.06483,1.74777
1421,-4,3,-8,-9,-4,-2,-3,13,0.856445,-0.178223,0.396484,10.4375,-13.625,-8.3125,-0.319522,-1.06483,1.74777
1430,0,-2,21,7,1,-2,-2,-4,0.873047,-0.172363,0.37207,14.75,-16.5625,-2.1875,-0.318749,-1.07191,1.75199
1430,3,0,-20,-12,-5,-2,-1,4,0.873047,-0.172363,0.37207,14.75,-16.5625,-2.1875,-0.318749,-1.07191,1.75199
1445,-8,-3,3,-2,-2,0,0,-2,0.873047,-0.172363,0.37207,14.75,-16.5625,-2.1875,-0.318749,-1.07191,1.75199
1445,-3,-9,18,8,1,0,0,-1,0.873047,-0.172363,0.37207,14.75,-16.5625,-2.1875,-0.318749,-1.07191,1.75199
1447,1,1,-9,-2,-3,0,1,2,0.87207,-0.152344,0.344238,23.9375,-17.875,3.625,-0.318126,-1.0795,1.76035
1447,4,6,9,-1,-1,-1,-3,2,0.87207,-0.152344,0.344238,23.9375,-17.875,3.625,-0.318126,-1.0795,1.76035
1467,1,2,-17,-6,-1,0,-2,-4,0.87207,-0.152344,0.344238,23.9375,-17.875,3.625,-0.318126,-1.0795,1.76035
1467,-2,0,-4,-5,-3,-6,-1,-11,0.87207,-0.152344,0.344238,23.9375,-17.875,3.625,-0.318126,-1.0795,1.76035
1469,4,2,28,3,0,0,-3,-5,0.884766,-0.111816,0.337402,33.75,-18.6875,8.0625,-0.315264,-1.08713,1.77046
1469,-9,-13,-29,-4,0,0,0,-4,0.884766,-0.111816,0.337402,33.75,-18.6875,8.0625,-0.315264,-1.08713,1.77046
1481,4,5,6,2,-1,-1,0,-7,0.884766,-0.111816,0.337402,33.75,-18.6875,8.0625,-0.315264,-1.08713,1.77046
1481,3,-4,-13,2,2,4,2,9,0.884766,-0.111816,0.337402,33.75,-18.6875,8.0625,-0.315264,-1.08713,1.77046
1490,3,-3,-4,-3,-1,-4,-3,-4,0.90332,-0.081543,0.320312,38.375,-19.25,11.0625,-0.311829,-1.09538,1.78205
1490,-8,-4,15,8,0,0,6,39,0.90332,-0.081543,0.320312,38.375,-19.25,11.0625,-0.311829,-1.09538,1.78205
1505,-5,-3,2,1,1,7,-5,-46,0.90332,-0.081543,0.320312,38.375,-19.25,11.0625,-0.311829,-1.09538,1.78205
1505,-1,-1,-17,-5,-1,-2,6,5,0.90332,-0.081543,0.320312,38.375,-19.25,11.0625,-0.311829,-1.09538,1.78205
1506,6,-5,-14,-5,-1,0,-5,11,0.922852,-0.0600586,0.33252,34.3125,-18.375,12.625,-0.309341,-1.10292,1.79327
1506,-7,0,30,3,0,-2,-14,-35,0.922852,-0.0600586,0.33252,34.3125,-18.375,12.625,-0.309341,-1.10292,1.79327
1528,11,9,19,-6,-5,-4,-13,10,0.922852,-0.0600586,0.33252,34.3125,-18.375,12.625,-0.309341,-1.10292,1.79327
1528,-11,-7,-43,0,-1,0,-8,-8,0.922852,-0.0600586,0.33252,34.3125,-18.375,12.625,-0.309341,-1.10292,1.79327
1529,-4,-2,4,-3,-4,-2,-2,-1,0.916992,-0.0517578,0.331055,27.1875,-17.0625,14.25,-0.310072,-1.10961,1.80527
1529,-2,-9,2,-6,-1,0,4,1,0.916992,-0.0517578,0.331055,27.1875,-17.0625,14.25,-0.310072,-1.10961,1.80527
1542,1,-1,-5,3,-2,-2,5,8,0.916992,-0.0517578,0.331055,27.1875,-17.0625,14.25,-0.310072,-1.10961,1.80527
1542,10,1,9,-3,-2,1,1,-18,0.916992,-0.0517578,0.331055,27.1875,-17.0625,14.25,-0.310072,-1.10961,1.80527
1551,-21,-4,-15,2,0,-2,5,4,0.898438,-0.0263672,0.318359,20.375,-15.625,13,-0.310961,-1.11644,1.81516
1551,2,10,4,-3,-3,-1,1,-6,0.898438,-0.0263672,0.318359,20.375,-15.625,13,-0.310961,-1.11644,1.81516
1565,-6,-1,-5,-1,-1,-2,3,3,0.898438,-0.0263672,0.318359,20.375,-15.625,13,-0.310961,-1.11644,1.81516
1565,9,-1,8,-5,-1,1,1,2,0.898438,-0.0263672,0.318359,20.375,-15.625,13,-0.310961,-1.11644,1.81516
1566,-12,-6,-14,1,-2,1,0,-4,0.894043,0.00244141,0.324219,12.5,-12.875,10,-0.310454,-1.12225,1.82064
1566,1,-2,26,-2,-1,0,1,-4,0.894043,0.00244141,0.324219,12.5,-12.875,10,-0.310454,-1.12225,1.82064
1588,-2,1,-27,4,1,2,3,2,0.894043,0.00244141,0.324219,12.5,-12.875,10,-0.310454,-1.12225,1.82064
1588,1,-1,14,0,-1,-9,-1,22,0.894043,0.00244141,0.324219,12.5,-12.875,10,-0.310454,-1.12225,1.82064
1589,5,3,4,-5,-1,-3,-4,-15,0.889648,0.0322266,0.331055,3.125,-9.5625,7.5,-0.309235,-1.12714,1.82203
1589,5,7,-7,0,-1,-2,-2,2,0.889648,0.0322266,0.331055,3.125,-9.5625,7.5,-0.309235,-1.12714,1.82203
1601,0,-21,0,0,2,3,3,11,0.889648,0.0322266,0.331055,3.125,-9.5625,7.5,-0.309235,-1.12714,1.82203
1601,-1,9,-24,-8,-5,3,-3,1,0.889648,0.0322266,0.331055,3.125,-9.5625,7.5,-0.309235,-1.12714,1.82203
1610,0,-7,7,6,1,-4,-5,-24,0.894531,0.0439453,0.359863,-5.5625,-6.1875,4.875,-0.307599,-1.13077,1.8199
1610,2,1,-5,-1,-1,-1,-1,3,0.894531,0.0439453,0.359863,-5.5625,-6.1875,4.875,-0.307599,-1.13077,1.8199
1625,1,1,5,2,2,-2,-1,7,0.894531,0.0439453,0.359863,-5.5625,-6.1875,4.875,-0.307599,-1.13077,1.8199
1625,0,0,15,2,4,5,-2,-9,0.894531,0.0439453,0.359863,-5.5625,-6.1875,4.875,-0.307599,-1.13077,1.8199
1627,3,1,-4,-3,-1,-2,-2,4,0.896973,0.0166016,0.387695,-7.9375,-3.5625,2,-0.30481,-1.13298,1.81531
1627,2,-4,-11,-3,1,1,0,1,0.896973,0.0166016,0.387695,-7.9375,-3.5625,2,-0.30481,-1.13298,1.81531
1647,1,-1,-15,-5,-2,-4,-4,-4,0.896973,0.0166016,0.387695,-7.9375,-3.5625,2,-0.30481,-1.13298,1.81531
1647,-5,-3,-1,-2,0,-1,-1,-4,0.896973,0.0166016,0.387695,-7.9375,-3.5625,2,-0.30481,-1.13298,1.81531
1649,5,5,8,-5,2,2,0,7,0.887695,-0.0273438,0.414551,-4.125,-1.4375,-0.375,-0.300716,-1.13367,1.81034
1649,-4,-2,13,11,3,0,2,-7,0.887695,-0.0273438,0.414551,-4.125,-1.4375,-0.375,-0.300716,-1.13367,1.81034
1661,-4,-2,-13,-6,0,0,1,5,0.887695,-0.0273438,0.414551,-4.125,-1.4375,-0.375,-0.300716,-1.13367,1.81034
1661,-4,-2,23,-2,-5,-6,-6,-10,0.887695,-0.0273438,0.414551,-4.125,-1.4375,-0.375,-0.300716,-1.13367,1.81034
1670,1,2,-25,4,2,0,-1,2,0.887695,-0.065918,0.421875,8.8125,-1.4375,-0.375,-0.294311,-1.13417,1.80744
1670,1,0,4,-5,-1,0,-2,1,0.887695,-0.065918,0.421875,8.8125,-1.4375,-0.375,-0.294311,-1.13417,1.80744
1685,-3,1,1,2,1,0,-1,-6,0.887695,-0.065918,0.421875,8.8125,-1.4375,-0.375,-0.294311,-1.13417,1.80744
1685,-1,4,-1,0,-1,2,2,5,0.887695,-0.065918,0.421875,8.8125,-1.4375,-0.375,-0.294311,-1.13417,1.80744
1687,3,6,22,-3,0,1,0,16,0.882812,-0.0703125,0.429199,23.6875,-2.6875,0.9375,-0.283962,-1.13436,1.80576
1687,-6,-6,-29,-1,1,1,1,-20,0.882812,-0.0703125,0.429199,23.6875,-2.6875,0.9375,-0.283962,-1.13436,1.80576
1707,-3,-4,3,-1,-1,-4,0,-5,0.882812,-0.0703125,0.429199,23.6875,-2.6875,0.9375,-0.283962,-1.13436,1.80576
1707,-1,-4,-7,-4,-2,-3,1,-2,0.882812,-0.0703125,0.429199,23.6875,-2.6875,0.9375,-0.283962,-1.13436,1.80576
1709,0,2,11,-1,-5,-2,1,4,0.882324,-0.0585938,0.428711,33,-5.25,2.625,-0.272106,-1.13543,1.80605
1709,-1,-3,-15,-3,-3,-5,-1,4,0.882324,-0.0585938,0.428711,33,-5.25,2.625,-0.272106,-1.13543,1.80605
1722,-1,0,3,0,2,2,3,6,0.882324,-0.0585938,0.428711,33,-5.25,2.625,-0.272106,-1.13543,1.80605
1722,-3,-5,-4,1,0,-2,-2,-26,0.882324,-0.0585938,0.428711,33,-5.25,2.625,-0.272106,-1.13543,1.80605
1736,-1,-4,5,-1,0,2,1,-2,0.884766,-0.0673828,0.399902,41.375,-7.9375,4.75,-0.260423,-1.13765,1.80949
1736,0,1,-3,-5,-6,-6,-6,2,0.884766,-0.0673828,0.399902,41.375,-7.9375,4.75,-0.260423,-1.13765,1.80949
1745,-1,-1,5,-2,-3,-2,1,-3,0.884766,-0.0673828,0.399902,41.375,-7.9375,4.75,-0.260423,-1.13765,1.80949
1745,-1,-3,4,2,-1,1,4,13,0.884766,-0.0673828,0.399902,41.375,-7.9375,4.75,-0.260423,-1.13765,1.80949
1746,-4,1,-6,-1,0,-1,-4,-15,0.888184,-0.0771484,0.376953,48.4375,-9.5,7.4375,-0.249884,-1.14096,1.81681
1746,-2,-1,3,-5,-3,-3,0,0,0.888184,-0.0771484,0.376953,48.4375,-9.5,7.4375,-0.249884,-1.14096,1.81681
1768,-2,5,32,7,-2,-1,-2,4,0.888184,-0.0771484,0.376953,48.4375,-9.5,7.4375,-0.249884,-1.14096,1.81681
1768,-3,-11,-29,0,-1,-1,-2,-5,0.888184,-0.0771484,0.376953,48.4375,-9.5,7.4375,-0.249884,-1.14096,1.81681
1770,0,-2,4,1,0,1,3,-2,0.89209,-0.0756836,0.369141,54.3125,-10.5,9.3125,-0.238618,-1.14421,1.82533
1770,-3,0,-13,-2,-2,1,-1,5,0.89209,-0.0756836,0.369141,54.3125,-10.5,9.3125,-0.238618,-1.14421,1.82533
1781,0,0,5,-3,-4,-11,-5,-7,0.89209,-0.0756836,0.369141,54.3125,-10.5,9.3125,-0.238618,-1.14421,1.82533
1781,-46,-2,-1,-4,-3,-3,-1,3,0.89209,-0.0756836,0.369141,54.3125,-10.5,9.3125,-0.238618,-1.14421,1.82533
1790,-3,4,-4,2,-3,-2,-2,1,0.90625,-0.0883789,0.359375,57.1875,-11.6875,11.125,-0.229346,-1.14812,1.83708
1790,1,-4,3,1,0,1,1,-2,0.90625,-0.0883789,0.359375,57.1875,-11.6875,11.125,-0.229346,-1.14812,1.83708
1805,-16,-1,-9,-1,-1,0,-2,-2,0.90625,-0.0883789,0.359375,57.1875,-11.6875,11.125,-0.229346,-1.14812,1.83708
1805,-82,0,17,0,-1,-2,-3,-14,0.90625,-0.0883789,0.359375,57.1875,-11.6875,11.125,-0.229346,-1.14812,1.83708
1807,12,-5,-15,-6,-1,-1,0,4,0.910645,-0.0932617,0.34082,57.75,-10.625,12.9375,-0.222047,-1.15188,1.85096
1807,10,9,15,2,-2,1,-2,4,0.910645,-0.0932617,0.34082,57.75,-10.625,12.9375,-0.222047,-1.15188,1.85096
1827,9,-13,-25,-5,0,1,-2,5,0.910645,-0.0932617,0.34082,57.75,-10.625,12.9375,-0.222047,-1.15188,1.85096
1827,10,-1,17,-2,-4,0,-1,-9,0.910645,-0.0932617,0.34082,57.75,-10.625,12.9375,-0.222047,-1.15188,1.85096
1830,-13,-4,-1,8,-3,-1,-1,-8,0.905273,-0.081543,0.332031,54.3125,-8.125,14,-0.215484,-1.15486,1.86451
1830,2,1,-7,0,-1,1,2,-4,0.905273,-0.081543,0.332031,54.3125,-8.125,14,-0.215484,-1.15486,1.86451
1841,-3,0,12,1,-1,-4,-1,-2,0.905273,-0.081543,0.332031,54.3125,-8.125,14,-0.215484,-1.15486,1.86451
1841,27,3,-5,-3,-1,-1,2,21,0.905273,-0.081543,0.332031,54.3125,-8.125,14,-0.215484,-1.15486,1.86451
1850,5,-4,-6,0,3,6,0,2,0.892578,-0.0732422,0.333984,51.1875,-5.5,13.0625,-0.208913,-1.15676,1.87681
1850,7,5,-4,-2,1,-3,-1,-2,0.892578,-0.0732422,0.333984,51.1875,-5.5,13.0625,-0.208913,-1.15676,1.87681
1866,0,-5,0,-5,-4,-2,-2,6,0.892578,-0.0732422,0.333984,51.1875,-5.5,13.0625,-0.208913,-1.15676,1.87681
1866,14,-2,-3,-2,-2,-3,-3,-4,0.892578,-0.0732422,0.333984,51.1875,-5.5,13.0625,-0.208913,-1.15676,1.87681
1867,-5,5,8,-2,-1,1,-1,-9,0.897461,-0.0644531,0.327148,44.0625,-2.75,11.5,-0.202676,-1.15834,1.88687
1867,-18,-9,-9,0,1,-1,2,4,0.897461,-0.0644531,0.327148,44.0625,-2.75,11.5,-0.202676,-1.15834,1.88687
1888,-1,7,-8,0,-2,1,2,9,0.897461,-0.0644531,0.327148,44.0625,-2.75,11.5,-0.202676,-1.15834,1.88687
1888,19,2,6,3,0,2,1,5,0.897461,-0.0644531,0.327148,44.0625,-2.75,11.5,-0.202676,-1.15834,1.88687
1890,-1,1,-8,-6,-4,3,-3,-5,0.895508,-0.078125,0.323242,38.4375,0.625,10.375,-0.198205,-1.15863,1.89636
1890,-1,3,18,7,-1,-1,-1,5,0.895508,-0.078125,0.323242,38.4375,0.625,10.375,-0.198205,-1.15863,1.89636
1902,-1,-6,-10,-2,0,-3,1,-11,0.895508,-0.078125,0.323242,38.4375,0.625,10.375,-0.198205,-1.15863,1.89636
1902,15,-4,-19,2,0,-2,-1,3,0.895508,-0.078125,0.323242,38.4375,0.625,10.375,-0.198205,-1.15863,1.89636
1910,-1,-2,-6,-6,-1,-3,3,2,0.888184,-0.0922852,0.314941,40.3125,3.8125,9.625,-0.192663,-1.15801,1.90542
1910,-6,-6,14,0,-1,-1,1,2,0.888184,-0.0922852,0.314941,40.3125,3.8125,9.625,-0.192663,-1.15801,1.90542
1925,5,7,-4,-1,0,1,-1,3,0.888184,-0.0922852,0.314941,40.3125,3.8125,9.625,-0.192663,-1.15801,1.90542
1925,1,0,2,-1,0,-2,0,-9,0.888184,-0.0922852,0.314941,40.3125,3.8125,9.625,-0.192663,-1.15801,1.90542
1931,-3,1,-8,0,0,-3,-2,4,0.878906,-0.0893555,0.316406,44.875,6.8125,9.0625,-0.184992,-1.15664,1.91405
1931,8,10,-2,-1,2,1,-1,2,0.878906,-0.0893555,0.316406,44.875,6.8125,9.0625,-0.184992,-1.15664,1.91405
1947,5,-2,-8,-3,0,3,2,13,0.878906,-0.0893555,0.316406,44.875,6.8125,9.0625,-0.184992,-1.15664,1.91405
1947,-24,-16,3,4,-1,-9,-5,-6,0.878906,-0.0893555,0.316406,44.875,6.8125,9.0625,-0.184992,-1.15664,1.91405
1949,1,0,17,0,-2,-7,-2,-1,0.87793,-0.0683594,0.317383,50.25,8.8125,10.4375,-0.174896,-1.1542,1.92197
1949,-2,-6,-14,-5,0,-1,-2,-4,0.87793,-0.0683594,0.317383,50.25,8.8125,10.4375,-0.174896,-1.1542,1.92197
1962,2,7,18,3,-1,0,1,8,0.87793,-0.0683594,0.317383,50.25,8.8125,10.4375,-0.174896,-1.1542,1.92197
1962,16,6,-34,-11,-1,3,1,5,0.87793,-0.0683594,0.317383,50.25,8.8125,10.4375,-0.174896,-1.1542,1.92197
1970,-2,1,8,7,-1,-5,-1,-4,0.904297,-0.0566406,0.336426,57.75,8.75,13.125,-0.163965,-1.15191,1.93211
1970,-10,-8,-6,5,1,-2,1,8,0.904297,-0.0566406,0.336426,57.75,8.75,13.125,-0.163965,-1.15191,1.93211
1984,-1,-1,-14,-8,-4,-2,-2,-10,0.904297,-0.0566406,0.336426,57.75,8.75,13.125,-0.163965,-1.15191,1.93211
1984,6,-4,-5,6,0,8,1,-6,0.904297,-0.0566406,0.336426,57.75,8.75,13.125,-0.163965,-1.15191,1.93211
1991,1,5,15,0,1,-4,1,4,0.929688,-0.0512695,0.342285,56.75,6.4375,14.0625,-0.153979,-1.15048,1.94301
1991,-2,-1,-3,-4,-5,-3,-2,-1,0.929688,-0.0512695,0.342285,56.75,6.4375,14.0625,-0.153979,-1.15048,1.94301
2007,-3,-5,-5,-1,0,4,-1,-13,0.929688,-0.0512695,0.342285,56.75,6.4375,14.0625,-0.153979,-1.15048,1.94301
2007,6,1,14,-2,-1,-8,-5,8,0.929688,-0.0512695,0.342285,56.75,6.4375,14.0625,-0.153979,-1.15048,1.94301
2008,-1,1,-9,0,-1,2,0,7,0.920898,-0.0581055,0.334473,47.625,4.3125,11.8125,-0.146533,-1.1499,1.95278
2008,-2,-1,3,-2,0,0,-2,-11,0.920898,-0.0581055,0.334473,47.625,4.3125,11.8125,-0.146533,-1.1499,1.95278
2021,-5,-2,14,0,-1,-1,2,11,0.920898,-0.0581055,0.334473,47.625,4.3125,11.8125,-0.146533,-1.1499,1.95278
2021,3,1,-16,-1,-2,-2,-3,-30,0.920898,-0.0581055,0.334473,47.625,4.3125,11.8125,-0.146533,-1.1499,1.95278
2030,-2,-2,-3,-1,-2,0,-2,-2,0.911621,-0.0429688,0.328613,36.625,3,9.3125,-0.140281,-1.14985,1.95991
2030,-4,-5,2,-1,-4,-4,-1,-2,0.911621,-0.0429688,0.328613,36.625,3,9.3125,-0.140281,-1.14985,1.95991
2045,-2,2,4,0,-3,0,1,-1,0.911621,-0.0429688,0.328613,36.625,3,9.3125,-0.140281,-1.14985,1.95991
2045,6,-1,-8,-1,-2,-9,-2,23,0.911621,-0.0429688,0.328613,36.625,3,9.3125,-0.140281,-1.14985,1.95991
2051,-3,-6,-11,-6,-1,-7,-3,-18,0.900391,-0.0507812,0.309082,28.875,2.1875,7.5625,-0.136367,-1.15098,1.96674
2051,4,1,-1,-2,0,2,-2,14,0.900391,-0.0507812,0.309082,28.875,2.1875,7.5625,-0.136367,-1.15098,1.96674
2066,0,5,2,1,-2,-4,-3,-36,0.900391,-0.0507812,0.309082,28.875,2.1875,7.5625,-0.136367,-1.15098,1.96674
2066,7,-3,24,-1,-2,1,0,8,0.900391,-0.0507812,0.309082,28.875,2.1875,7.5625,-0.136367,-1.15098,1.96674
2075,-14,-19,-17,-6,-2,2,0,0,0.891113,-0.0859375,0.282715,24.9375,0.9375,8.1875,-0.136666,-1.15268,1.97621
2075,8,9,-8,1,3,2,-1,4,0.891113,-0.0859375,0.282715,24.9375,0.9375,8.1875,-0.136666,-1.15268,1.97621
2089,-11,-11,-2,-3,4,1,0,5,0.891113,-0.0859375,0.282715,24.9375,0.9375,8.1875,-0.136666,-1.15268,1.97621
2089,10,7,-8,-4,-2,-2,1,-3,0.891113,-0.0859375,0.282715,24.9375,0.9375,8.1875,-0.136666,-1.15268,1.97621
2097,-17,3,6,6,1,0,-3,-15,0.897949,-0.0727539,0.313965,14.875,2.4375,10.0625,-0.14065,-1.15309,1.98591
2097,0,-16,2,-5,0,0,2,-3,0.897949,-0.0727539,0.313965,14.875,2.4375,10.0625,-0.14065,-1.15309,1.98591
2105,-12,5,-22,0,1,0,-6,2,0.897949,-0.0727539,0.313965,14.875,2.4375,10.0625,-0.14065,-1.15309,1.98591
2105,-3,-9,-4,-7,0,-2,-3,10,0.897949,-0.0727539,0.313965,14.875,2.4375,10.0625,-0.14065,-1.15309,1.98591
2112,4,2,-1,-4,2,2,1,-9,0.880859,-0.0615234,0.342773,0.0625,3.0625,13.6875,-0.151449,-1.1521,1.99766
2112,-3,4,18,4,-1,4,-3,-4,0.880859,-0.0615234,0.342773,0.0625,3.0625,13.6875,-0.151449,-1.1521,1.99766
2127,4,1,3,3,-1,-3,-3,-5,0.880859,-0.0615234,0.342773,0.0625,3.0625,13.6875,-0.151449,-1.1521,1.99766
2127,-2,-3,-2,2,0,2,0,5,0.880859,-0.0615234,0.342773,0.0625,3.0625,13.6875,-0.151449,-1.1521,1.99766
2129,5,0,-5,-1,-2,0,0,9,0.867676,-0.104004,0.347168,-2.9375,1.4375,15.5625,-0.166953,-1.15142,2.01307
2129,-5,1,-2,-3,-2,-1,-2,-8,0.867676,-0.104004,0.347168,-2.9375,1.4375,15.5625,-0.166953,-1.15142,2.01307
2150,10,-2,-7,2,-2,-6,1,28,0.867676,-0.104004,0.347168,-2.9375,1.4375,15.5625,-0.166953,-1.15142,2.01307
2150,-5,10,-5,-6,-3,3,-5,-74,0.867676,-0.104004,0.347168,-2.9375,1.4375,15.5625,-0.166953,-1.15142,2.01307
2152,-10,-10,36,1,-3,6,0,9,0.875977,-0.0644531,0.370117,-6.375,1.8125,14.0625,-0.179763,-1.15025,2.02462
2152,3,3,-19,5,-3,-6,-2,-5,0.875977,-0.0644531,0.370117,-6.375,1.8125,14.0625,-0.179763,-1.15025,2.02462
2166,-10,-8,-10,-2,-2,1,1,7,0.875977,-0.0644531,0.370117,-6.375,1.8125,14.0625,-0.179763,-1.15025,2.02462
2166,-1,-8,-3,-3,3,-2,1,6,0.875977,-0.0644531,0.370117,-6.375,1.8125,14.0625,-0.179763,-1.15025,2.02462
2167,9,7,-6,-2,-1,-1,-1,2,0.851562,-0.0288086,0.340332,-14.0625,2.75,13.3125,-0.19222,-1.14941,2.03334
2167,0,4,13,-8,-1,-4,-1,0,0.851562,-0.0288086,0.340332,-14.0625,2.75,13.3125,-0.19222,-1.14941,2.03334
2187,-4,-5,9,0,0,-3,-2,-9,0.851562,-0.0288086,0.340332,-14.0625,2.75,13.3125,-0.19222,-1.14941,2.03334
2187,1,2,-10,6,4,5,1,18,0.851562,-0.0288086,0.340332,-14.0625,2.75,13.3125,-0.19222,-1.14941,2.03334
2194,0,0,13,2,0,-7,-4,-13,0.854004,-0.122559,0.28418,-15.375,6.25,19.125,-0.214789,-1.14762,2.05142
2194,-2,-12,-6,-3,1,0,-1,9,0.854004,-0.122559,0.28418,-15.375,6.25,19.125,-0.214789,-1.14762,2.05142
2210,12,7,-1,-7,1,-4,-3,-8,0.854004,-0.122559,0.28418,-15.375,6.25,19.125,-0.214789,-1.14762,2.05142
2210,11,7,8,-1,6,3,-1,8,0.854004,-0.122559,0.28418,-15.375,6.25,19.125,-0.214789,-1.14762,2.05142
2211,-19,-11,-13,9,7,-2,-2,6,0.872559,-0.115234,0.288086,-9.6875,16.8125,25.4375,-0.236626,-1.14196,2.07123
2211,-4,2,-3,-5,4,0,0,-3,0.872559,-0.115234,0.288086,-9.6875,16.8125,25.4375,-0.236626,-1.14196,2.07123
2223,1,-2,1,-1,1,-8,-3,-7,0.872559,-0.115234,0.288086,-9.6875,16.8125,25.4375,-0.236626,-1.14196,2.07123
2223,-5,1,39,0,-4,0,0,2,0.872559,-0.115234,0.288086,-9.6875,16.8125,25.4375,-0.236626,-1.14196,2.07123
2232,10,4,-38,-3,-5,-4,-1,11,0.851074,-0.0839844,0.369629,6.3125,21.375,25.6875,-0.248812,-1.13306,2.08731
2232,-2,-2,-5,-1,-1,-1,0,-3,0.851074,-0.0839844,0.369629,6.3125,21.375,25.6875,-0.248812,-1.13306,2.08731
2247,0,0,6,0,-1,8,1,14,0.851074,-0.0839844,0.369629,6.3125,21.375,25.6875,-0.248812,-1.13306,2.08731
2247,-2,3,-1,0,-6,-11,-4,-32,0.851074,-0.0839844,0.369629,6.3125,21.375,25.6875,-0.248812,-1.13306,2.08731
2249,5,1,-2,-5,-5,1,0,2,0.960938,-0.116211,0.497559,9.75,13.5,16.8125,-0.254148,-1.12576,2.0971
2249,-1,-2,1,2,-6,-3,-3,5,0.960938,-0.116211,0.497559,9.75,13.5,16.8125,-0.254148,-1.12576,2.0971
2270,9,9,12,-3,-6,-1,-1,1,0.960938,-0.116211,0.497559,9.75,13.5,16.8125,-0.254148,-1.12576,2.0971
2270,-6,-17,-26,-1,-5,2,0,5,0.960938,-0.116211,0.497559,9.75,13.5,16.8125,-0.254148,-1.12576,2.0971
2272,4,2,1,-8,-7,1,0,1,1.0083,-0.150879,0.549316,-7.8125,2,11.6875,-0.264964,-1.1221,2.1061
2272,-7,-9,3,3,-4,-2,-2,-13,1.0083,-0.150879,0.549316,-7.8125,2,11.6875,-0.264964,-1.1221,2.1061
2284,1,0,-5,-3,-4,-2,-1,3,1.0083,-0.150879,0.549316,-7.8125,2,11.6875,-0.264964,-1.1221,2.1061
2284,-12,-11,-17,3,0,1,0,-23,1.0083,-0.150879,0.549316,-7.8125,2,11.6875,-0.264964,-1.1221,2.1061
2293,10,13,-4,0,-1,0,-3,0,0.955078,-0.231445,0.574219,-24.8125,-6.6875,9.375,-0.284924,-1.12026,2.11804
2293,25,-9,8,-6,-2,-2,0,5,0.955078,-0.231445,0.574219,-24.8125,-6.6875,9.375,-0.284924,-1.12026,2.11804
2308,-19,-2,7,-1,-5,-1,-2,-13,0.955078,-0.231445,0.574219,-24.8125,-6.6875,9.375,-0.284924,-1.12026,2.11804
2308,3,7,3,1,0,-1,2,21,0.955078,-0.231445,0.574219,-24.8125,-6.6875,9.375,-0.284924,-1.12026,2.11804
2309,-3,-6,28,-3,-4,3,1,-4,0.933594,-0.251953,0.499023,-16.5,-13.3125,5.625,-0.302463,-1.12168,2.12987
2309,4,6,-29,1,1,-1,-2,-4,0.933594,-0.251953,0.499023,-16.5,-13.3125,5.625,-0.302463,-1.12168,2.12987
2331,1,-10,-17,1,-4,-3,0,-2,0.933594,-0.251953,0.499023,-16.5,-13.3125,5.625,-0.302463,-1.12168,2.12987
2331,0,5,8,-6,-3,-4,0,1,0.933594,-0.251953,0.499023,-16.5,-13.3125,5.625,-0.302463,-1.12168,2.12987
2331,-1,3,3,4,0,-3,3,2,0.864258,-0.188965,0.385742,-12.375,-11.625,-1.0625,-0.312202,-1.12542,2.13521
2331,-5,4,3,-1,-3,-3,-1,11,0.864258,-0.188965,0.385742,-12.375,-11.625,-1.0625,-0.312202,-1.12542,2.13521
2344,-4,-6,-5,-1,0,-3,0,-11,0.864258,-0.188965,0.385742,-12.375,-11.625,-1.0625,-0.312202,-1.12542,2.13521
2344,-3,-5,-16,-2,-2,-3,-1,15,0.864258,-0.188965,0.385742,-12.375,-11.625,-1.0625,-0.312202,-1.12542,2.13521
2353,16,4,7,-3,-2,-4,0,-5,0.760254,-0.0488281,0.321289,-14.1875,-4.125,-5.8125,-0.310923,-1.12826,2.12892
2353,-30,-2,4,2,1,4,0,0,0.760254,-0.0488281,0.321289,-14.1875,-4.125,-5.8125,-0.310923,-1.12826,2.12892
2375,5,7,-4,4,-1,-1,2,-1,0.760254,-0.0488281,0.321289,-14.1875,-4.125,-5.8125,-0.310923,-1.12826,2.12892
2375,0,-10,7,2,-1,2,2,14,0.760254,-0.0488281,0.321289,-14.1875,-4.125,-5.8125,-0.310923,-1.12826,2.12892
2377,-2,-2,-17,-3,-4,-14,-5,-11,0.708984,-0.0268555,0.29834,-13.875,-1.25,-3.5,-0.309934,-1.13011,2.12325
2377,7,10,12,-1,-2,-2,-3,-8,0.708984,-0.0268555,0.29834,-13.875,-1.25,-3.5,-0.309934,-1.13011,2.12325
2390,-21,-12,0,-2,0,0,2,2,0.708984,-0.0268555,0.29834,-13.875,-1.25,-3.5,-0.309934,-1.13011,2.12325
2390,4,12,10,-1,0,0,0,5,0.708984,-0.0268555,0.29834,-13.875,-1.25,-3.5,-0.309934,-1.13011,2.12325
2391,-6,-3,-7,-3,1,-1,1,-16,0.777832,-0.0761719,0.35791,-8.3125,0,3.875,-0.313354,-1.12968,2.1242
2391,2,-2,-1,-3,-1,0,2,11,0.777832,-0.0761719,0.35791,-8.3125,0,3.875,-0.313354,-1.12968,2.1242
2404,5,-6,-3,-3,4,2,0,-7,0.777832,-0.0761719,0.35791,-8.3125,0,3.875,-0.313354,-1.12968,2.1242
2404,13,10,20,-4,0,-1,-1,8,0.777832,-0.0761719,0.35791,-8.3125,0,3.875,-0.313354,-1.12968,2.1242
2411,-9,-5,-23,-1,2,4,0,1,0.859863,-0.133301,0.452148,-8.0625,1.5,5.125,-0.318532,-1.12715,2.12707
2411,7,4,0,-1,2,-1,1,-1,0.859863,-0.133301,0.452148,-8.0625,1.5,5.125,-0.318532,-1.12715,2.12707
2427,7,-3,-9,-6,0,0,3,19,0.859863,-0.133301,0.452148,-8.0625,1.5,5.125,-0.318532,-1.12715,2.12707
2427,-6,-4,20,6,3,1,-1,-5,0.859863,-0.133301,0.452148,-8.0625,1.5,5.125,-0.318532,-1.12715,2.12707
2429,3,4,1,0,0,-1,-2,13,0.923828,-0.192871,0.478027,-7.4375,-1.5625,3.375,-0.325584,-1.12575,2.13169
2429,-9,-10,2,-4,-3,0,-1,-16,0.923828,-0.192871,0.478027,-7.4375,-1.5625,3.375,-0.325584,-1.12575,2.13169
2451,2,-4,-2,-3,-2,-5,-2,10,0.923828,-0.192871,0.478027,-7.4375,-1.5625,3.375,-0.325584,-1.12575,2.13169
2451,-1,2,-17,-7,-1,-2,2,-3,0.923828,-0.192871,0.478027,-7.4375,-1.5625,3.375,-0.325584,-1.12575,2.13169
2452,0,-1,34,3,-3,-3,-2,5,0.964355,-0.193848,0.421387,-5.1875,-2.4375,-3.875,-0.327905,-1.12683,2.13169
2452,-2,0,-9,-2,-1,2,-2,-12,0.964355,-0.193848,0.421387,-5.1875,-2.4375,-3.875,-0.327905,-1.12683,2.13169
2465,3,-9,-36,-2,-3,-6,-2,13,0.964355,-0.193848,0.421387,-5.1875,-2.4375,-3.875,-0.327905,-1.12683,2.13169
2465,-7,2,3,-4,-2,2,-3,-29,0.964355,-0.193848,0.421387,-5.1875,-2.4375,-3.875,-0.327905,-1.12683,2.13169
2472,-3,-1,-2,4,0,0,-2,-2,0.967285,-0.135742,0.354492,-9.5625,2.125,-13.375,-0.322453,-1.12934,2.12182
2472,2,-1,14,-3,-4,-5,4,6,0.967285,-0.135742,0.354492,-9.5625,2.125,-13.375,-0.322453,-1.12934,2.12182
2488,2,9,-3,-1,-3,-3,-2,-10,0.967285,-0.135742,0.354492,-9.5625,2.125,-13.375,-0.322453,-1.12934,2.12182
2488,-4,0,8,7,-2,-3,-5,-5,0.967285,-0.135742,0.354492,-9.5625,2.125,-13.375,-0.322453,-1.12934,2.12182
2489,2,-9,-15,-7,-2,2,3,18,0.966797,-0.0849609,0.312988,-21.1875,7.125,-20.9375,-0.312758,-1.13221,2.10314
2489,-2,-1,4,4,-3,-1,-2,-1,0.966797,-0.0849609,0.312988,-21.1875,7.125,-20.9375,-0.312758,-1.13221,2.10314
2510,3,6,1,-2,0,3,-3,-21,0.966797,-0.0849609,0.312988,-21.1875,7.125,-20.9375,-0.312758,-1.13221,2.10314
2510,0,-3,9,-1,-2,-3,3,19,0.966797,-0.0849609,0.312988,-21.1875,7.125,-20.9375,-0.312758,-1.13221,2.10314
2512,-4,-9,-16,-5,-4,-4,-3,-12,0.95752,-0.0654297,0.308594,-35.125,11.375,-23.5625,-0.304028,-1.13393,2.08028
2512,-3,0,-19,2,0,5,0,11,0.95752,-0.0654297,0.308594,-35.125,11.375,-23.5625,-0.304028,-1.13393,2.08028
2524,-1,-2,7,-1,-1,0,-3,-34,0.95752,-0.0654297,0.308594,-35.125,11.375,-23.5625,-0.304028,-1.13393,2.08028
2524,-1,-6,-9,-3,-2,-13,-3,13,0.95752,-0.0654297,0.308594,-35.125,11.375,-23.5625,-0.304028,-1.13393,2.08028
2533,2,3,6,1,1,12,0,-14,0.926758,-0.0683594,0.322754,-48.875,15.6875,-27.1875,-0.296567,-1.13371,2.05349
2533,-1,0,-8,-2,-2,-10,-6,-12,0.926758,-0.0683594,0.322754,-48.875,15.6875,-27.1875,-0.296567,-1.13371,2.05349
2548,2,3,18,4,3,4,2,15,0.926758,-0.0683594,0.322754,-48.875,15.6875,-27.1875,-0.296567,-1.13371,2.05349
2548,1,4,-23,-3,-2,4,1,4,0.926758,-0.0683594,0.322754,-48.875,15.6875,-27.1875,-0.296567,-1.13371,2.05349
2549,2,1,5,3,1,0,2,6,0.912598,-0.0830078,0.361816,-54.25,18.375,-31.3125,-0.287826,-1.13213,2.02334
2549,1,6,6,-10,-1,-1,0,-7,0.912598,-0.0830078,0.361816,-54.25,18.375,-31.3125,-0.287826,-1.13213,2.02334
2571,-6,-7,1,11,0,-2,-4,0,0.912598,-0.0830078,0.361816,-54.25,18.375,-31.3125,-0.287826,-1.13213,2.02334
2571,3,0,17,1,1,1,-3,7,0.912598,-0.0830078,0.361816,-54.25,18.375,-31.3125,-0.287826,-1.13213,2.02334
2572,0,-2,-30,-7,-1,-2,-1,-11,0.899414,-0.121582,0.388672,-48.9375,18.125,-34.75,-0.27707,-1.1297,1.9924
2572,2,4,22,2,2,9,-1,-3,0.899414,-0.121582,0.388672,-48.9375,18.125,-34.75,-0.27707,-1.1297,1.9924
2584,-4,-4,-3,-2,-1,-1,-2,-2,0.899414,-0.121582,0.388672,-48.9375,18.125,-34.75,-0.27707,-1.1297,1.9924
2584,-2,-6,-18,-3,-1,5,0,-18,0.899414,-0.121582,0.388672,-48.9375,18.125,-34.75,-0.27707,-1.1297,1.9924
2593,5,7,3,-6,-4,-3,-4,9,0.869629,-0.15625,0.39502,-41.9375,18.6875,-35.875,-0.265137,-1.12641,1.96242
2593,-16,-9,11,4,1,-3,0,14,0.869629,-0.15625,0.39502,-41.9375,18.6875,-35.875,-0.265137,-1.12641,1.96242
2608,-1,1,14,2,-3,2,-6,-40,0.869629,-0.15625,0.39502,-41.9375,18.6875,-35.875,-0.265137,-1.12641,1.96242
2608,-1,-2,-28,0,1,6,1,4,0.869629,-0.15625,0.39502,-41.9375,18.6875,-35.875,-0.265137,-1.12641,1.96242
2609,-4,-2,-8,-9,1,-6,-5,-18,0.844727,-0.166504,0.38916,-35.75,19.1875,-34.25,-0.253573,-1.12277,1.93501
2609,2,0,6,7,-2,-5,-1,-7,0.844727,-0.166504,0.38916,-35.75,19.1875,-34.25,-0.253573,-1.12277,1.93501
2630,1,5,11,-6,-4,-2,-1,11,0.844727,-0.166504,0.38916,-35.75,19.1875,-34.25,-0.253573,-1.12277,1.93501
2630,-5,-7,-13,-5,0,0,-4,-1,0.844727,-0.166504,0.38916,-35.75,19.1875,-34.25,-0.253573,-1.12277,1.93501
2632,0,-1,2,-3,-1,1,1,0,0.836914,-0.168457,0.399414,-33.9375,20.6875,-30.25,-0.244171,-1.11797,1.91073
2632,2,-3,-14,2,1,-3,-2,2,0.836914,-0.168457,0.399414,-33.9375,20.6875,-30.25,-0.244171,-1.11797,1.91073
2644,-2,1,10,-5,0,1,-3,1,0.836914,-0.168457,0.399414,-33.9375,20.6875,-30.25,-0.244171,-1.11797,1.91073
2644,2,3,-17,0,1,2,3,1,0.836914,-0.168457,0.399414,-33.9375,20.6875,-30.25,-0.244171,-1.11797,1.91073
2653,2,0,22,8,2,-3,1,19,0.847656,-0.157715,0.436035,-34.6875,20.25,-25.8125,-0.237986,-1.11224,1.8897
2653,-3,-10,-16,-3,-1,-5,0,-13,0.847656,-0.157715,0.436035,-34.6875,20.25,-25.8125,-0.237986,-1.11224,1.8897
2668,0,2,6,1,-1,-1,2,15,0.847656,-0.157715,0.436035,-34.6875,20.25,-25.8125,-0.237986,-1.11224,1.8897
2668,-1,-1,-2,-1,-2,3,-4,-5,0.847656,-0.157715,0.436035,-34.6875,20.25,-25.8125,-0.237986,-1.11224,1.8897
2669,-3,-5,6,1,-4,-4,0,12,0.847168,-0.164062,0.453125,-37.75,16.25,-22.4375,-0.236058,-1.10737,1.87222
2669,0,3,-11,-4,-2,7,0,6,0.847168,-0.164062,0.453125,-37.75,16.25,-22.4375,-0.236058,-1.10737,1.87222
2690,-7,-4,-17,-8,0,-3,-3,-39,0.847168,-0.164062,0.453125,-37.75,16.25,-22.4375,-0.236058,-1.10737,1.87222
2690,-1,0,13,7,-1,-3,0,-3,0.847168,-0.164062,0.453125,-37.75,16.25,-22.4375,-0.236058,-1.10737,1.87222
2692,0,3,1,2,-1,2,-1,19,0.838379,-0.147461,0.448242,-43.625,11.5,-20.625,-0.237592,-1.10412,1.85654
2692,3,-3,-13,-4,-2,-1,-2,-5,0.838379,-0.147461,0.448242,-43.625,11.5,-20.625,-0.237592,-1.10412,1.85654
2704,1,5,12,3,-3,-3,-2,-2,0.838379,-0.147461,0.448242,-43.625,11.5,-20.625,-0.237592,-1.10412,1.85654
2704,0,-5,4,5,1,-4,1,8,0.838379,-0.147461,0.448242,-43.625,11.5,-20.625,-0.237592,-1.10412,1.85654
2712,-1,6,3,-5,0,4,1,-7,0.822754,-0.123535,0.435059,-46,7.5,-17,-0.241836,-1.10219,1.84307
2712,-2,-13,-14,3,-1,-6,1,7,0.822754,-0.123535,0.435059,-46,7.5,-17,-0.241836,-1.10219,1.84307
2728,1,-1,-10,-1,-2,0,-1,6,0.822754,-0.123535,0.435059,-46,7.5,-17,-0.241836,-1.10219,1.84307
2728,5,4,17,-5,-2,-2,-1,2,0.822754,-0.123535,0.435059,-46,7.5,-17,-0.241836,-1.10219,1.84307
2729,-7,-7,0,-2,-1,-1,0,-12,0.807617,-0.10498,0.422852,-45.375,4.875,-12.6875,-0.248293,-1.10095,1.83254
2729,-3,2,-2,-2,-1,-3,-2,2,0.807617,-0.10498,0.422852,-45.375,4.875,-12.6875,-0.248293,-1.10095,1.83254
2750,-1,-4,-4,2,1,-3,1,6,0.807617,-0.10498,0.422852,-45.375,4.875,-12.6875,-0.248293,-1.10095,1.83254
2750,1,3,9,1,-1,-1,1,2,0.807617,-0.10498,0.422852,-45.375,4.875,-12.6875,-0.248293,-1.10095,1.83254
2751,-2,0,-8,1,-2,-7,-4,1,0.806152,-0.112305,0.440918,-46.9375,3.3125,-9.9375,-0.257312,-1.09973,1.82436
2751,-2,-1,-6,-5,-1,3,-1,6,0.806152,-0.112305,0.440918,-46.9375,3.3125,-9.9375,-0.257312,-1.09973,1.82436
2764,2,-5,-1,-2,1,-5,3,12,0.806152,-0.112305,0.440918,-46.9375,3.3125,-9.9375,-0.257312,-1.09973,1.82436
2764,-5,-1,-3,-1,-2,1,-2,-12,0.806152,-0.112305,0.440918,-46.9375,3.3125,-9.9375,-0.257312,-1.09973,1.82436
2773,1,2,19,-1,-2,3,-1,-4,0.825684,-0.122559,0.476074,-43.875,0.0625,-8.4375,-0.266491,-1.09901,1.81765
2773,0,1,-5,1,-4,-2,-2,9,0.825684,-0.122559,0.476074,-43.875,0.0625,-8.4375,-0.266491,-1.09901,1.81765
2787,-1,-1,-3,-3,0,1,-2,-18,0.825684,-0.122559,0.476074,-43.875,0.0625,-8.4375,-0.266491,-1.09901,1.81765
2787,-2,-3,-3,1,1,0,-1,-3,0.825684,-0.122559,0.476074,-43.875,0.0625,-8.4375,-0.266491,-1.09901,1.81765
2789,2,-4,2,-3,1,0,4,6,0.850098,-0.131348,0.498535,-42.375,-3.3125,-6.625,-0.276989,-1.09886,1.81293
2789,0,0,6,-2,-1,0,-3,-6,0.850098,-0.131348,0.498535,-42.375,-3.3125,-6.625,-0.276989,-1.09886,1.81293
2810,1,0,-5,-3,-1,1,0,9,0.850098,-0.131348,0.498535,-42.375,-3.3125,-6.625,-0.276989,-1.09886,1.81293
2810,-2,-2,-7,-4,-1,-6,-3,-6,0.850098,-0.131348,0.498535,-42.375,-3.3125,-6.625,-0.276989,-1.09886,1.81293
2812,-5,0,3,-3,0,-3,-4,-12,0.853027,-0.145508,0.507324,-39.5,-5.8125,-5.875,-0.28774,-1.09917,1.80953
2812,3,0,10,7,2,2,2,8,0.853027,-0.145508,0.507324,-39.5,-5.8125,-5.875,-0.28774,-1.09917,1.80953
2824,4,3,-31,-2,-2,-3,-5,3,0.853027,-0.145508,0.507324,-39.5,-5.8125,-5.875,-0.28774,-1.09917,1.80953
2824,-10,-12,9,-2,-2,-1,-1,3,0.853027,-0.145508,0.507324,-39.5,-5.8125,-5.875,-0.28774,-1.09917,1.80953
2833,-6,-3,-11,0,-4,-3,-3,-3,0.84375,-0.138184,0.521973,-34.3125,-7.3125,-4.125,-0.297415,-1.09971,1.80724
2833,2,-2,-9,-3,1,1,0,-6,0.84375,-0.138184,0.521973,-34.3125,-7.3125,-4.125,-0.297415,-1.09971,1.80724
2847,1,4,20,3,-2,-5,-1,3,0.84375,-0.138184,0.521973,-34.3125,-7.3125,-4.125,-0.297415,-1.09971,1.80724
2847,4,-2,-10,-2,1,5,2,10,0.84375,-0.138184,0.521973,-34.3125,-7.3125,-4.125,-0.297415,-1.09971,1.80724
2854,0,-2,0,-2,1,-4,-3,-3,0.836914,-0.130371,0.506348,-32.625,-6.6875,-2.6875,-0.306622,-1.10003,1.80517
2854,3,3,13,-2,-3,-2,-5,-3,0.836914,-0.130371,0.506348,-32.625,-6.6875,-2.6875,-0.306622,-1.10003,1.80517
2870,-3,5,-12,0,1,-2,-3,-6,0.836914,-0.130371,0.506348,-32.625,-6.6875,-2.6875,-0.306622,-1.10003,1.80517
2870,-3,-11,-3,-2,-4,-4,0,-19,0.836914,-0.130371,0.506348,-32.625,-6.6875,-2.6875,-0.306622,-1.10003,1.80517
2872,-3,-4,2,-2,-1,3,0,-31,0.807129,-0.128418,0.499023,-25.25,-3.125,-0.6875,-0.313965,-1.09898,1.80394
2872,0,0,6,-5,0,0,0,-5,0.807129,-0.128418,0.499023,-25.25,-3.125,-0.6875,-0.313965,-1.09898,1.80394
2884,-1,-1,-5,6,0,-1,1,13,0.807129,-0.128418,0.499023,-25.25,-3.125,-0.6875,-0.313965,-1.09898,1.80394
2884,0,3,-3,-7,-5,-3,-3,1,0.807129,-0.128418,0.499023,-25.25,-3.125,-0.6875,-0.313965,-1.09898,1.80394
2893,1,-1,-1,2,-3,-2,-1,4,0.787598,-0.160156,0.494141,-9.25,-0.1875,-0.75,-0.316746,-1.0966,1.80354
2893,-1,0,4,1,0,-3,0,-2,0.787598,-0.160156,0.494141,-9.25,-0.1875,-0.75,-0.316746,-1.0966,1.80354
2908,-1,-2,-2,-4,-3,0,1,-1,0.787598,-0.160156,0.494141,-9.25,-0.1875,-0.75,-0.316746,-1.0966,1.80354
2908,-2,3,0,1,2,-2,-1,-4,0.787598,-0.160156,0.494141,-9.25,-0.1875,-0.75,-0.316746,-1.0966,1.80354
2914,-1,-3,-8,0,-1,1,-1,7,0.813965,-0.166016,0.482422,3.75,2.0625,-0.9375,-0.314843,-1.09408,1.80279
2914,2,3,0,-5,-1,-1,0,-1,0.813965,-0.166016,0.482422,3.75,2.0625,-0.9375,-0.314843,-1.09408,1.80279
2930,-1,-3,22,-1,1,-1,1,0,0.813965,-0.166016,0.482422,3.75,2.0625,-0.9375,-0.314843,-1.09408,1.80279
2930,2,0,-13,3,-1,7,1,9,0.813965,-0.166016,0.482422,3.75,2.0625,-0.9375,-0.314843,-1.09408,1.80279
2931,-7,-5,-9,0,-1,-7,-1,-4,0.831055,-0.169922,0.487793,8.4375,4.1875,-0.375,-0.31131,-1.09069,1.80188
2931,-2,-3,-1,-1,0,0,1,2,0.831055,-0.169922,0.487793,8.4375,4.1875,-0.375,-0.31131,-1.09069,1.80188
2944,-1,-3,0,-3,-1,-2,-5,12,0.831055,-0.169922,0.487793,8.4375,4.1875,-0.375,-0.31131,-1.09069,1.80188
2944,3,4,9,-4,-2,1,-2,-14,0.831055,-0.169922,0.487793,8.4375,4.1875,-0.375,-0.31131,-1.09069,1.80188
2953,4,4,25,-2,1,4,3,19,0.849609,-0.171387,0.474121,6.6875,5.625,0.625,-0.309098,-1.08752,1.80184
2953,-6,-4,-38,-1,-1,-1,-2,-6,0.849609,-0.171387,0.474121,6.6875,5.625,0.625,-0.309098,-1.08752,1.80184
2968,0,-2,-3,-1,-2,0,0,4,0.849609,-0.171387,0.474121,6.6875,5.625,0.625,-0.309098,-1.08752,1.80184
2968,0,3,5,1,1,-6,-2,1,0.849609,-0.171387,0.474121,6.6875,5.625,0.625,-0.309098,-1.08752,1.80184
2969,-2,-4,-5,-2,-3,-2,1,8,0.862793,-0.189453,0.463379,0.1875,7,1.25,-0.310468,-1.08405,1.8029
2969,-1,1,2,-5,-1,0,-3,-9,0.862793,-0.189453,0.463379,0.1875,7,1.25,-0.310468,-1.08405,1.8029
2990,0,0,8,2,0,3,0,0,0.862793,-0.189453,0.463379,0.1875,7,1.25,-0.310468,-1.08405,1.8029
2990,-6,-9,-16,-7,-4,-3,-4,0,0.862793,-0.189453,0.463379,0.1875,7,1.25,-0.310468,-1.08405,1.8029
2991,1,1,-11,3,0,-4,0,-1,0.874023,-0.179199,0.448242,-4.5625,8.375,4.625,-0.315074,-1.08058,1.80596
2991,-1,1,5,-3,-2,0,1,-4,0.874023,-0.179199,0.448242,-4.5625,8.375,4.625,-0.315074,-1.08058,1.80596
3013,-2,0,-5,-3,0,0,0,-11,0.874023,-0.179199,0.448242,-4.5625,8.375,4.625,-0.315074,-1.08058,1.80596
3013,0,4,10,-3,-2,0,4,6,0.874023,-0.179199,0.448242,-4.5625,8.375,4.625,-0.315074,-1.08058,1.80596
3014,-2,-2,-7,0,1,3,0,3,0.877441,-0.155273,0.453125,-1.4375,8.5625,6.25,-0.317952,-1.07692,1.80857
3014,1,-1,8,1,-1,-8,-3,-5,0.877441,-0.155273,0.453125,-1.4375,8.5625,6.25,-0.317952,-1.07692,1.80857
3027,-3,-3,-4,0,0,-5,-3,3,0.877441,-0.155273,0.453125,-1.4375,8.5625,6.25,-0.317952,-1.07692,1.80857
3027,0,1,4,0,0,-4,-3,-1,0.877441,-0.155273,0.453125,-1.4375,8.5625,6.25,-0.317952,-1.07692,1.80857
3029,-1,0,-9,1,1,1,0,-11,0.876953,-0.10791,0.436523,4.75,8.875,2.25,-0.314158,-1.07433,1.80662
3029,-1,-2,0,0,0,-1,3,0,0.876953,-0.10791,0.436523,4.75,8.875,2.25,-0.314158,-1.07433,1.80662
3050,-1,-3,13,-2,-3,0,-2,9,0.876953,-0.10791,0.436523,4.75,8.875,2.25,-0.314158,-1.07433,1.80662
3050,-1,0,-16,1,0,2,-1,-31,0.876953,-0.10791,0.436523,4.75,8.875,2.25,-0.314158,-1.07433,1.80662
3051,2,0,-5,-1,-2,-7,-4,1,0.864258,-0.046875,0.417969,5.875,9.4375,-6,-0.302454,-1.073,1.79683
3051,-1,-3,3,-1,-2,-3,-4,-5,0.864258,-0.046875,0.417969,5.875,9.4375,-6,-0.302454,-1.073,1.79683
3072,-1,0,0,1,-1,-1,1,3,0.864258,-0.046875,0.417969,5.875,9.4375,-6,-0.302454,-1.073,1.79683
3072,0,2,6,2,0,0,-1,1,0.864258,-0.046875,0.417969,5.875,9.4375,-6,-0.302454,-1.073,1.79683
3078,2,-1,-10,-4,1,5,-1,1,0.867676,-0.027832,0.4375,-6.375,10.4375,-10,-0.291394,-1.0714,1.7829
3078,0,1,4,2,-1,2,-4,-5,0.867676,-0.027832,0.4375,-6.375,10.4375,-10,-0.291394,-1.0714,1.7829
3087,2,2,-5,-2,0,-2,-1,-2,0.867676,-0.027832,0.4375,-6.375,10.4375,-10,-0.291394,-1.0714,1.7829
3087,-4,-4,9,2,-1,-1,-4,4,0.867676,-0.027832,0.4375,-6.375,10.4375,-10,-0.291394,-1.0714,1.7829
3094,0,-3,-8,-1,-3,-2,-3,-8,0.879883,-0.0805664,0.448242,-21.4375,10.25,-11.3125,-0.287681,-1.06976,1.77077
3094,1,1,2,-4,-1,-1,-1,11,0.879883,-0.0805664,0.448242,-21.4375,10.25,-11.3125,-0.287681,-1.06976,1.77077
3117,-2,-3,-8,-1,2,0,-1,-7,0.879883,-0.0805664,0.448242,-21.4375,10.25,-11.3125,-0.287681,-1.06976,1.77077
3117,-1,0,-14,-4,-1,-3,-3,3,0.879883,-0.0805664,0.448242,-21.4375,10.25,-11.3125,-0.287681,-1.06976,1.77077
3125,0,3,30,4,1,0,-1,0,0.844727,-0.159668,0.450684,-25.0625,11.25,-10.6875,-0.289083,-1.06683,1.76227
3125,0,-5,-22,-3,0,1,1,0,0.844727,-0.159668,0.450684,-25.0625,11.25,-10.6875,-0.289083,-1.06683,1.76227
3132,-2,1,2,-3,-1,0,-2,-3,0.844727,-0.159668,0.450684,-25.0625,11.25,-10.6875,-0.289083,-1.06683,1.76227
3132,-8,-6,-4,5,-1,-10,-5,-9,0.844727,-0.159668,0.450684,-25.0625,11.25,-10.6875,-0.289083,-1.06683,1.76227
3134,-2,0,21,-2,-4,2,2,31,0.812012,-0.208496,0.460938,-14.5625,9.9375,-9.4375,-0.290191,-1.06345,1.75674
3134,-5,0,-30,-2,-3,-5,-6,-25,0.812012,-0.208496,0.460938,-14.5625,9.9375,-9.4375,-0.290191,-1.06345,1.75674
3146,1,-5,12,3,-2,1,-2,-3,0.812012,-0.208496,0.460938,-14.5625,9.9375,-9.4375,-0.290191,-1.06345,1.75674
3146,5,4,-4,-2,-4,1,2,8,0.812012,-0.208496,0.460938,-14.5625,9.9375,-9.4375,-0.290191,-1.06345,1.75674
3154,2,0,-6,-4,-6,-1,-2,-10,0.809082,-0.202637,0.470215,-2.5,8.25,-8.5,-0.287541,-1.06015,1.7518
3154,4,1,16,3,-2,-2,0,14,0.809082,-0.202637,0.470215,-2.5,8.25,-8.5,-0.287541,-1.06015,1.7518
3170,1,-1,-13,-3,-3,-1,-1,-4,0.809082,-0.202637,0.470215,-2.5,8.25,-8.5,-0.287541,-1.06015,1.7518
3170,1,1,13,-2,0,2,0,-1,0.809082,-0.202637,0.470215,-2.5,8.25,-8.5,-0.287541,-1.06015,1.7518
3171,1,-2,-4,0,3,1,3,5,0.827637,-0.150391,0.460938,4.8125,6.75,-7.5,-0.280969,-1.05827,1.74604
3171,-1,3,-5,-2,-1,-2,-2,-1,0.827637,-0.150391,0.460938,4.8125,6.75,-7.5,-0.280969,-1.05827,1.74604
3193,-3,-2,2,-3,-2,-3,2,-7,0.827637,-0.150391,0.460938,4.8125,6.75,-7.5,-0.280969,-1.05827,1.74604
3193,1,1,6,1,4,8,2,8,0.827637,-0.150391,0.460938,4.8125,6.75,-7.5,-0.280969,-1.05827,1.74604
3194,-1,-1,-21,-2,2,-2,2,-11,0.849609,-0.119629,0.455566,4.75,4.75,-5.0625,-0.274999,-1.05716,1.74113
3194,-5,-5,-1,-1,-1,-5,-4,4,0.849609,-0.119629,0.455566,4.75,4.75,-5.0625,-0.274999,-1.05716,1.74113
3206,-5,-2,1,-2,-2,4,1,-20,0.849609,-0.119629,0.455566,4.75,4.75,-5.0625,-0.274999,-1.05716,1.74113
3206,-3,1,3,-1,-2,-1,-1,-1,0.849609,-0.119629,0.455566,4.75,4.75,-5.0625,-0.274999,-1.05716,1.74113
3215,-1,-2,-33,-9,-5,-9,-6,11,0.870605,-0.135742,0.450195,-2.4375,2.625,-2.9375,-0.273961,-1.0571,1.73894
3215,-1,2,36,5,0,1,-1,-31,0.870605,-0.135742,0.450195,-2.4375,2.625,-2.9375,-0.273961,-1.0571,1.73894
3229,1,3,13,1,-1,-4,0,11,0.870605,-0.135742,0.450195,-2.4375,2.625,-2.9375,-0.273961,-1.0571,1.73894
3229,1,-4,4,2,-1,-2,0,2,0.870605,-0.135742,0.450195,-2.4375,2.625,-2.9375,-0.273961,-1.0571,1.73894
3232,-5,-5,-23,-4,-4,1,-1,-9,0.88623,-0.158691,0.439453,-6.375,1.625,-2.875,-0.275844,-1.05745,1.73808
3232,-3,-1,-4,-2,-1,-2,1,9,0.88623,-0.158691,0.439453,-6.375,1.625,-2.875,-0.275844,-1.05745,1.73808
3252,-1,3,-2,0,0,1,1,-2,0.88623,-0.158691,0.439453,-6.375,1.625,-2.875,-0.275844,-1.05745,1.73808
3252,1,-4,6,3,0,0,-2,-9,0.88623,-0.158691,0.439453,-6.375,1.625,-2.875,-0.275844,-1.05745,1.73808
3254,2,4,14,2,-1,1,-1,2,0.873535,-0.17334,0.437012,-5.125,1.625,-5,-0.276973,-1.05802,1.73679
3254,-3,-5,-18,-5,-2,-2,3,0,0.873535,-0.17334,0.437012,-5.125,1.625,-5,-0.276973,-1.05802,1.73679
3266,-2,-6,1,0,0,4,1,4,0.873535,-0.17334,0.437012,-5.125,1.625,-5,-0.276973,-1.05802,1.73679
3266,3,7,-8,-4,-5,-9,-4,8,0.873535,-0.17334,0.437012,-5.125,1.625,-5,-0.276973,-1.05802,1.73679
3273,0,-1,9,2,2,3,-4,-13,0.861328,-0.145508,0.413086,-1.3125,1.375,-5.9375,-0.27488,-1.05906,1.73356
3273,0,1,1,-4,-3,-2,0,16,0.861328,-0.145508,0.413086,-1.3125,1.375,-5.9375,-0.27488,-1.05906,1.73356
3290,-2,-1,-3,2,-1,2,-1,-27,0.861328,-0.145508,0.413086,-1.3125,1.375,-5.9375,-0.27488,-1.05906,1.73356
3290,-3,0,-1,-5,-1,5,0,1,0.861328,-0.145508,0.413086,-1.3125,1.375,-5.9375,-0.27488,-1.05906,1.73356
3292,-1,-3,-12,0,0,-3,0,2,0.827637,-0.110352,0.405273,-1.5,2.75,-7.1875,-0.270483,-1.05965,1.72781
3292,1,3,19,4,2,7,1,-5,0.827637,-0.110352,0.405273,-1.5,2.75,-7.1875,-0.270483,-1.05965,1.72781
3313,1,-6,-14,-4,-4,-6,-4,9,0.827637,-0.110352,0.405273,-1.5,2.75,-7.1875,-0.270483,-1.05965,1.72781
3313,0,-4,-4,0,1,-1,-2,3,0.827637,-0.110352,0.405273,-1.5,2.75,-7.1875,-0.270483,-1.05965,1.72781
3314,-1,0,3,-1,2,5,1,-1,0.796875,-0.0712891,0.419922,-8.5625,4.125,-7.0625,-0.266655,-1.0594,1.72059
3314,-2,1,0,-1,-1,0,-1,2,0.796875,-0.0712891,0.419922,-8.5625,4.125,-7.0625,-0.266655,-1.0594,1.72059
3327,-1,2,-4,-5,0,3,-3,3,0.796875,-0.0712891,0.419922,-8.5625,4.125,-7.0625,-0.266655,-1.0594,1.72059
3327,-7,-1,-1,1,-2,-7,-4,-2,0.796875,-0.0712891,0.419922,-8.5625,4.125,-7.0625,-0.266655,-1.0594,1.72059
3334,-3,-2,7,-1,-3,-3,0,3,0.788086,-0.0878906,0.459961,-18.125,4.625,-6.4375,-0.266371,-1.05788,1.71348
3334,1,-3,-14,-1,1,0,-2,1,0.788086,-0.0878906,0.459961,-18.125,4.625,-6.4375,-0.266371,-1.05788,1.71348
3350,2,-1,3,-3,0,3,0,2,0.788086,-0.0878906,0.459961,-18.125,4.625,-6.4375,-0.266371,-1.05788,1.71348
3350,-3,-1,-9,-1,-1,2,3,0,0.788086,-0.0878906,0.459961,-18.125,4.625,-6.4375,-0.266371,-1.05788,1.71348
3351,-5,-5,1,0,-2,-3,-3,-7,0.803711,-0.129395,0.499023,-19.4375,2.625,-4.1875,-0.269971,-1.05615,1.71003
3351,0,1,0,-5,-1,1,2,-2,0.803711,-0.129395,0.499023,-19.4375,2.625,-4.1875,-0.269971,-1.05615,1.71003
3372,-1,1,-1,7,0,-3,1,0,0.803711,-0.129395,0.499023,-19.4375,2.625,-4.1875,-0.269971,-1.05615,1.71003
3372,0,-3,-8,-5,-3,-4,-1,1,0.803711,-0.129395,0.499023,-19.4375,2.625,-4.1875,-0.269971,-1.05615,1.71003
3374,0,0,11,6,1,-4,-1,-3,0.801758,-0.147949,0.514648,-20.625,0.3125,-2.375,-0.275855,-1.05451,1.70844
3374,-3,0,-2,0,1,-4,-3,1,0.801758,-0.147949,0.514648,-20.625,0.3125,-2.375,-0.275855,-1.05451,1.70844
3387,0,-1,-2,-3,-1,8,0,7,0.801758,-0.147949,0.514648,-20.625,0.3125,-2.375,-0.275855,-1.05451,1.70844
3387,1,-1,-5,-1,0,1,0,2,0.801758,-0.147949,0.514648,-20.625,0.3125,-2.375,-0.275855,-1.05451,1.70844
3403,-3,-3,-7,-3,0,-2,-2,2,0.796875,-0.17334,0.536621,-16.5625,-2.3125,-1.8125,-0.281696,-1.05313,1.70838
3403,-1,-4,12,2,-1,2,-2,-4,0.796875,-0.17334,0.536621,-16.5625,-2.3125,-1.8125,-0.281696,-1.05313,1.70838
3409,2,3,2,0,-3,-3,2,19,0.796875,-0.17334,0.536621,-16.5625,-2.3125,-1.8125,-0.281696,-1.05313,1.70838
3409,-4,-5,3,5,2,-7,-6,-23,0.796875,-0.17334,0.536621,-16.5625,-2.3125,-1.8125,-0.281696,-1.05313,1.70838
3417,-2,0,4,-3,1,0,-2,4,0.820801,-0.197754,0.564941,-6.875,-6.4375,2,-0.287704,-1.05222,1.71204
3417,-2,-4,-11,1,-2,-6,-3,-3,0.820801,-0.197754,0.564941,-6.875,-6.4375,2,-0.287704,-1.05222,1.71204
3432,-1,1,1,-4,-2,0,0,5,0.820801,-0.197754,0.564941,-6.875,-6.4375,2,-0.287704,-1.05222,1.71204
3432,1,-1,2,-2,-3,2,3,2,0.820801,-0.197754,0.564941,-6.875,-6.4375,2,-0.287704,-1.05222,1.71204
3433,-3,-5,-3,2,-1,-2,0,2,0.869141,-0.209961,0.586914,4.875,-10.5625,7.4375,-0.293867,-1.05239,1.72071
3433,2,5,-1,-1,-1,-3,-2,-4,0.869141,-0.209961,0.586914,4.875,-10.5625,7.4375,-0.293867,-1.05239,1.72071
3446,-3,-4,-10,0,-2,-5,0,-6,0.869141,-0.209961,0.586914,4.875,-10.5625,7.4375,-0.293867,-1.05239,1.72071
3446,0,3,0,-4,-1,-1,1,5,0.869141,-0.209961,0.586914,4.875,-10.5625,7.4375,-0.293867,-1.05239,1.72071
3463,0,-1,-6,-3,-2,8,0,-12,0.90625,-0.212402,0.574707,14.6875,-13.25,10.25,-0.298898,-1.05366,1.73192
3463,-4,-1,11,5,0,-2,-3,-6,0.90625,-0.212402,0.574707,14.6875,-13.25,10.25,-0.298898,-1.05366,1.73192
3469,-1,-3,-11,-7,-3,-6,-1,0,0.90625,-0.212402,0.574707,14.6875,-13.25,10.25,-0.298898,-1.05366,1.73192
3469,1,-2,0,3,2,0,3,1,0.90625,-0.212402,0.574707,14.6875,-13.25,10.25,-0.298898,-1.05366,1.73192
3472,1,0,-4,-2,-5,-8,-1,3,0.915527,-0.169434,0.527832,23.25,-13.25,9.125,-0.298792,-1.05633,1.74106
3472,0,0,-3,-2,-2,1,2,-7,0.915527,-0.169434,0.527832,23.25,-13.25,9.125,-0.298792,-1.05633,1.74106
3493,-3,-1,10,0,0,0,-2,-8,0.915527,-0.169434,0.527832,23.25,-13.25,9.125,-0.298792,-1.05633,1.74106
3493,1,1,-12,-2,-4,-1,-2,4,0.915527,-0.169434,0.527832,23.25,-13.25,9.125,-0.298792,-1.05633,1.74106
3494,1,-1,-4,-1,2,-1,1,-2,0.892578,-0.122559,0.455566,34,-10.5625,6.8125,-0.292011,-1.05957,1.747
3494,-1,1,6,2,-3,0,0,3,0.892578,-0.122559,0.455566,34,-10.5625,6.8125,-0.292011,-1.05957,1.747
3506,-2,-1,-2,2,4,-2,-2,-4,0.892578,-0.122559,0.455566,34,-10.5625,6.8125,-0.292011,-1.05957,1.747
3506,-1,-2,-4,-6,-4,0,0,-1,0.892578,-0.122559,0.455566,34,-10.5625,6.8125,-0.292011,-1.05957,1.747
3515,2,2,10,3,0,3,-1,6,0.862305,-0.0703125,0.402344,41.625,-6.1875,4.3125,-0.279141,-1.06299,1.7496
3515,0,-4,2,-2,0,1,-2,3,0.862305,-0.0703125,0.402344,41.625,-6.1875,4.3125,-0.279141,-1.06299,1.7496
3530,-1,-1,-1,2,0,-3,-3,-4,0.862305,-0.0703125,0.402344,41.625,-6.1875,4.3125,-0.279141,-1.06299,1.7496
3530,0,-3,1,-1,-1,-2,0,14,0.862305,-0.0703125,0.402344,41.625,-6.1875,4.3125,-0.279141,-1.06299,1.7496
3532,-7,-1,-1,-3,-2,0,-5,-36,0.844238,-0.0380859,0.382324,39.375,-1.3125,1.3125,-0.2632,-1.06518,1.74803
3532,1,-4,-6,-3,2,2,2,2,0.844238,-0.0380859,0.382324,39.375,-1.3125,1.3125,-0.2632,-1.06518,1.74803
3552,-1,3,2,3,-2,-4,-2,-2,0.844238,-0.0380859,0.382324,39.375,-1.3125,1.3125,-0.2632,-1.06518,1.74803
3552,1,1,12,-3,-1,0,-1,3,0.844238,-0.0380859,0.382324,39.375,-1.3125,1.3125,-0.2632,-1.06518,1.74803
3554,0,-1,-19,-3,-2,-4,-2,9,0.841797,-0.0224609,0.380371,25.125,2.5625,-3.4375,-0.24819,-1.06651,1.7419
3554,-2,-1,8,-2,-1,-1,-3,-4,0.841797,-0.0224609,0.380371,25.125,2.5625,-3.4375,-0.24819,-1.06651,1.7419
3566,2,-4,-15,0,2,-1,0,21,0.841797,-0.0224609,0.380371,25.125,2.5625,-3.4375,-0.24819,-1.06651,1.7419
3566,-4,-4,-3,-1,-1,4,0,-31,0.841797,-0.0224609,0.380371,25.125,2.5625,-3.4375,-0.24819,-1.06651,1.7419
3575,0,1,-5,-1,3,-3,-2,9,0.833496,-0.0419922,0.40918,8.4375,4.6875,-7.625,-0.236993,-1.06665,1.73321
3575,-1,-1,2,1,-2,-3,-1,-4,0.833496,-0.0419922,0.40918,8.4375,4.6875,-7.625,-0.236993,-1.06665,1.73321
3589,1,2,8,-5,0,1,1,5,0.833496,-0.0419922,0.40918,8.4375,4.6875,-7.625,-0.236993,-1.06665,1.73321
3589,3,3,-6,6,1,-3,-4,7,0.833496,-0.0419922,0.40918,8.4375,4.6875,-7.625,-0.236993,-1.06665,1.73321
3596,-2,-2,3,-2,1,-1,0,-4,0.834961,-0.0839844,0.451172,-3.1875,4.9375,-9.6875,-0.230425,-1.06592,1.72477
3596,-1,0,5,-3,0,-4,-1,4,0.834961,-0.0839844,0.451172,-3.1875,4.9375,-9.6875,-0.230425,-1.06592,1.72477
3612,-2,-5,-8,1,-2,-1,-2,-12,0.834961,-0.0839844,0.451172,-3.1875,4.9375,-9.6875,-0.230425,-1.06592,1.72477
3612,-4,0,5,-2,-1,-5,-4,-1,0.834961,-0.0839844,0.451172,-3.1875,4.9375,-9.6875,-0.230425,-1.06592,1.72477
3614,2,-2,-9,0,-1,0,-3,-3,0.828613,-0.102051,0.479004,-9,3.9375,-11.8125,-0.225376,-1.06471,1.71546
3614,3,1,-2,-1,1,1,1,8,0.828613,-0.102051,0.479004,-9,3.9375,-11.8125,-0.225376,-1.06471,1.71546
3627,-6,-1,10,-2,-5,1,-4,-13,0.828613,-0.102051,0.479004,-9,3.9375,-11.8125,-0.225376,-1.06471,1.71546
3627,2,-2,-12,0,0,3,0,17,0.828613,-0.102051,0.479004,-9,3.9375,-11.8125,-0.225376,-1.06471,1.71546
3636,-1,-1,7,1,-6,-9,-4,-1,0.811035,-0.0996094,0.488281,-9.125,3.0625,-13.375,-0.219415,-1.06373,1.70512
3636,-1,-3,-6,0,-2,1,-2,-7,0.811035,-0.0996094,0.488281,-9.125,3.0625,-13.375,-0.219415,-1.06373,1.70512
3650,0,-2,-3,-4,-2,-9,-3,0,0.811035,-0.0996094,0.488281,-9.125,3.0625,-13.375,-0.219415,-1.06373,1.70512
3650,-3,-3,-4,-3,-4,-4,0,-1,0.811035,-0.0996094,0.488281,-9.125,3.0625,-13.375,-0.219415,-1.06373,1.70512
3656,3,2,8,5,2,10,2,4,0.794922,-0.0844727,0.482422,-7.25,2.5625,-14.125,-0.212057,-1.06282,1.69414
3656,1,0,-5,-3,1,-1,0,5,0.794922,-0.0844727,0.482422,-7.25,2.5625,-14.125,-0.212057,-1.06282,1.69414
3672,-2,-1,-1,-1,0,3,-1,-7,0.794922,-0.0844727,0.482422,-7.25,2.5625,-14.125,-0.212057,-1.06282,1.69414
3672,-1,-2,-3,0,-1,-4,-1,-4,0.794922,-0.0844727,0.482422,-7.25,2.5625,-14.125,-0.212057,-1.06282,1.69414
3680,2,2,16,-1,-5,-5,0,6,0.794434,-0.0791016,0.479492,-6.6875,2.625,-13.5625,-0.204584,-1.06211,1.68327
3680,-5,-8,-18,-5,-3,0,-2,-10,0.794434,-0.0791016,0.479492,-6.6875,2.625,-13.5625,-0.204584,-1.06211,1.68327
3686,0,1,4,-1,3,0,1,6,0.794434,-0.0791016,0.479492,-6.6875,2.625,-13.5625,-0.204584,-1.06211,1.68327
3686,2,4,-6,0,1,0,3,-8,0.794434,-0.0791016,0.479492,-6.6875,2.625,-13.5625,-0.204584,-1.06211,1.68327
3696,-4,-3,-4,-2,-2,-2,-2,-2,0.796875,-0.0844727,0.478027,-5.75,2.8125,-11.75,-0.198529,-1.06104,1.67416
3696,0,0,9,-1,-1,-2,-2,4,0.796875,-0.0844727,0.478027,-5.75,2.8125,-11.75,-0.198529,-1.06104,1.67416
3710,-1,-2,-9,-2,-2,-5,0,-3,0.796875,-0.0844727,0.478027,-5.75,2.8125,-11.75,-0.198529,-1.06104,1.67416
3710,1,-3,5,-1,-1,5,2,14,0.796875,-0.0844727,0.478027,-5.75,2.8125,-11.75,-0.198529,-1.06104,1.67416
3711,-1,1,-4,0,3,-3,0,-25,0.818848,-0.0947266,0.480469,-4,3.1875,-9.8125,-0.193386,-1.05986,1.6666
3711,-1,-2,-4,-1,-1,1,0,20,0.818848,-0.0947266,0.480469,-4,3.1875,-9.8125,-0.193386,-1.05986,1.6666
3740,-5,-1,6,0,-3,-6,-3,-30,0.818848,-0.0947266,0.480469,-4,3.1875,-9.8125,-0.193386,-1.05986,1.6666
3740,0,0,-11,-4,-3,-6,-4,3,0.818848,-0.0947266,0.480469,-4,3.1875,-9.8125,-0.193386,-1.05986,1.6666
3741,2,0,1,-1,1,-1,-1,8,0.836914,-0.108398,0.484375,-3.4375,4.625,-8.625,-0.189663,-1.05832,1.66073
3741,0,1,1,0,2,3,3,3,0.836914,-0.108398,0.484375,-3.4375,4.625,-8.625,-0.189663,-1.05832,1.66073
3746,1,-2,-3,0,-2,0,2,2,0.836914,-0.108398,0.484375,-3.4375,4.625,-8.625,-0.189663,-1.05832,1.66073
3746,-3,-2,0,-2,0,2,-4,-2,0.836914,-0.108398,0.484375,-3.4375,4.625,-8.625,-0.189663,-1.05832,1.66073
3761,-2,5,-1,1,-1,1,0,-2,0.85498,-0.0986328,0.478516,-1.4375,6.1875,-8.9375,-0.184503,-1.05672,1.65426
3761,0,1,-12,1,-1,2,1,-7,0.85498,-0.0986328,0.478516,-1.4375,6.1875,-8.9375,-0.184503,-1.05672,1.65426
3770,1,-2,0,3,1,1,-2,6,0.85498,-0.0986328,0.478516,-1.4375,6.1875,-8.9375,-0.184503,-1.05672,1.65426
3770,-4,0,3,-1,-3,-7,-3,-13,0.85498,-0.0986328,0.478516,-1.4375,6.1875,-8.9375,-0.184503,-1.05672,1.65426
3771,0,-1,3,-3,-3,-6,-4,5,0.854004,-0.0839844,0.452637,-0.5,7.4375,-9.625,-0.177937,-1.05516,1.64642
3771,-5,-9,-4,1,0,1,0,-8,0.854004,-0.0839844,0.452637,-0.5,7.4375,-9.625,-0.177937,-1.05516,1.64642
3793,-1,-2,-7,0,0,10,6,5,0.854004,-0.0839844,0.452637,-0.5,7.4375,-9.625,-0.177937,-1.05516,1.64642
3793,-1,0,12,-3,-6,-11,-6,-5,0.854004,-0.0839844,0.452637,-0.5,7.4375,-9.625,-0.177937,-1.05516,1.64642
3794,-6,-9,-16,0,-3,4,-1,-13,0.86084,-0.078125,0.449707,-2.5625,8.5625,-11.375,-0.171072,-1.05363,1.63763
3794,2,8,7,1,-2,-5,-2,10,0.86084,-0.078125,0.449707,-2.5625,8.5625,-11.375,-0.171072,-1.05363,1.63763
3806,-3,-3,-8,-1,1,1,-4,-25,0.86084,-0.078125,0.449707,-2.5625,8.5625,-11.375,-0.171072,-1.05363,1.63763
3806,-2,-1,9,-5,0,6,-1,0,0.86084,-0.078125,0.449707,-2.5625,8.5625,-11.375,-0.171072,-1.05363,1.63763
3816,4,3,-2,0,2,1,3,6,0.860352,-0.0644531,0.448242,-6,8.8125,-13.0625,-0.163993,-1.05219,1.62705
3816,-4,-5,-8,-4,-3,-5,-2,-4,0.860352,-0.0644531,0.448242,-6,8.8125,-13.0625,-0.163993,-1.05219,1.62705
3830,3,0,14,-2,-2,2,-2,7,0.860352,-0.0644531,0.448242,-6,8.8125,-13.0625,-0.163993,-1.05219,1.62705
3830,4,4,-18,1,2,-1,0,0,0.860352,-0.0644531,0.448242,-6,8.8125,-13.0625,-0.163993,-1.05219,1.62705
3836,-2,-5,6,-5,-4,-7,-2,11,0.850098,-0.0537109,0.449219,-13.4375,9.5,-14.375,-0.158271,-1.05049,1.61543
3836,-5,-3,-5,0,1,2,-4,-42,0.850098,-0.0537109,0.449219,-13.4375,9.5,-14.375,-0.158271,-1.05049,1.61543
3853,-1,1,-3,0,1,0,0,7,0.850098,-0.0537109,0.449219,-13.4375,9.5,-14.375,-0.158271,-1.05049,1.61543
3853,1,-1,5,0,-1,-6,-2,-6,0.850098,-0.0537109,0.449219,-13.4375,9.5,-14.375,-0.158271,-1.05049,1.61543
3855,1,-1,-12,-4,1,2,4,7,0.831543,-0.0600586,0.446289,-18.0625,10.3125,-15.375,-0.153914,-1.04839,1.60334
3855,2,0,3,-3,0,2,0,4,0.831543,-0.0600586,0.446289,-18.0625,10.3125,-15.375,-0.153914,-1.04839,1.60334
3866,0,0,7,-4,-1,-11,-3,11,0.831543,-0.0600586,0.446289,-18.0625,10.3125,-15.375,-0.153914,-1.04839,1.60334
3866,-6,-4,5,3,-2,-6,-7,-18,0.831543,-0.0600586,0.446289,-18.0625,10.3125,-15.375,-0.153914,-1.04839,1.60334
3874,-3,1,-2,0,1,-2,-1,-1,0.807617,-0.0629883,0.458008,-22.75,11,-15.25,-0.15127,-1.04543,1.59126
3874,4,4,1,0,0,0,-3,11,0.807617,-0.0629883,0.458008,-22.75,11,-15.25,-0.15127,-1.04543,1.59126
3889,-1,-1,-11,-2,0,5,-1,-20,0.807617,-0.0629883,0.458008,-22.75,11,-15.25,-0.15127,-1.04543,1.59126
3889,-1,-3,9,-2,-2,-3,-3,15,0.807617,-0.0629883,0.458008,-22.75,11,-15.25,-0.15127,-1.04543,1.59126
3897,-1,1,-9,5,0,-1,-4,-27,0.800293,-0.0722656,0.480469,-23.8125,10.5,-12.9375,-0.150984,-1.04208,1.58126
3897,0,-8,-13,-5,-1,-3,-3,-1,0.800293,-0.0722656,0.480469,-23.8125,10.5,-12.9375,-0.150984,-1.04208,1.58126
3913,3,2,2,1,-1,-1,4,10,0.800293,-0.0722656,0.480469,-23.8125,10.5,-12.9375,-0.150984,-1.04208,1.58126
3913,-4,-1,-11,-3,1,5,2,-3,0.800293,-0.0722656,0.480469,-23.8125,10.5,-12.9375,-0.150984,-1.04208,1.58126
3914,-2,0,8,4,0,0,-2,-4,0.801758,-0.0786133,0.495605,-23.5,9.375,-10.25,-0.152505,-1.03874,1.57341
3914,1,2,2,-3,-3,-3,-2,4,0.801758,-0.0786133,0.495605,-23.5,9.375,-10.25,-0.152505,-1.03874,1.57341
3926,-1,-4,-11,-1,-4,-5,-2,0,0.801758,-0.0786133,0.495605,-23.5,9.375,-10.25,-0.152505,-1.03874,1.57341
3926,3,3,6,0,1,4,2,6,0.801758,-0.0786133,0.495605,-23.5,9.375,-10.25,-0.152505,-1.03874,1.57341
3935,-3,-4,-7,-7,-1,7,2,4,0.817383,-0.0800781,0.512207,-26.0625,8.25,-8.75,-0.155654,-1.03559,1.56655
3935,-2,1,9,7,-1,-14,-3,0,0.817383,-0.0800781,0.512207,-26.0625,8.25,-8.75,-0.155654,-1.03559,1.56655
3949,-5,-5,2,-1,-2,-2,-2,1,0.817383,-0.0800781,0.512207,-26.0625,8.25,-8.75,-0.155654,-1.03559,1.56655
3949,-1,3,7,2,2,1,-5,-3,0.817383,-0.0800781,0.512207,-26.0625,8.25,-8.75,-0.155654,-1.03559,1.56655
3956,0,-7,-29,-6,0,1,-1,8,0.837402,-0.0957031,0.543945,-28.125,6.375,-7.6875,-0.160726,-1.03282,1.56112
3956,-1,0,2,-1,-1,-2,-1,-1,0.837402,-0.0957031,0.543945,-28.125,6.375,-7.6875,-0.160726,-1.03282,1.56112
3973,-2,-3,-1,-5,-4,1,-2,3,0.837402,-0.0957031,0.543945,-28.125,6.375,-7.6875,-0.160726,-1.03282,1.56112
3973,-4,-3,-5,0,-2,1,1,-20,0.837402,-0.0957031,0.543945,-28.125,6.375,-7.6875,-0.160726,-1.03282,1.56112
3974,0,0,5,1,-1,-2,0,18,0.857422,-0.118164,0.563965,-25.5,3.5625,-6.375,-0.16678,-1.03043,1.55718
3974,0,1,-15,-7,-3,2,1,1,0.857422,-0.118164,0.563965,-25.5,3.5625,-6.375,-0.16678,-1.03043,1.55718
3995,0,6,22,7,0,0,0,-24,0.857422,-0.118164,0.563965,-25.5,3.5625,-6.375,-0.16678,-1.03043,1.55718
3995,-1,-4,-10,-2,-3,5,-1,1,0.857422,-0.118164,0.563965,-25.5,3.5625,-6.375,-0.16678,-1.03043,1.55718
3997,2,1,8,-1,-2,-4,-1,4,0.848145,-0.129395,0.554688,-21.9375,1.875,-6.125,-0.172401,-1.02898,1.55448
3997,-3,-3,-2,0,0,5,0,-4,0.848145,-0.129395,0.554688,-21.9375,1.875,-6.125,-0.172401,-1.02898,1.55448
4009,-2,2,-13,-5,-2,-9,-3,6,0.848145,-0.129395,0.554688,-21.9375,1.875,-6.125,-0.172401,-1.02898,1.55448
4009,1,-3,5,4,-2,-3,1,5,0.848145,-0.129395,0.554688,-21.9375,1.875,-6.125,-0.172401,-1.02898,1.55448
4018,-1,0,23,2,-4,-3,-7,-8,0.823242,-0.111328,0.530273,-13.125,1.8125,-6.5625,-0.173642,-1.02784,1.55042
4018,1,3,-6,-2,-2,0,1,10,0.823242,-0.111328,0.530273,-13.125,1.8125,-6.5625,-0.173642,-1.02784,1.55042
4033,-1,-1,-3,-1,0,2,1,-7,0.823242,-0.111328,0.530273,-13.125,1.8125,-6.5625,-0.173642,-1.02784,1.55042
4033,-2,-4,-16,1,0,1,0,7,0.823242,-0.111328,0.530273,-13.125,1.8125,-6.5625,-0.173642,-1.02784,1.55042
4034,-3,-3,27,-3,-2,-3,-2,4,0.80127,-0.0976562,0.496094,-0.3125,2.3125,-5.5625,-0.170937,-1.02685,1.54683
4034,-5,2,-9,1,-3,0,-2,-24,0.80127,-0.0976562,0.496094,-0.3125,2.3125,-5.5625,-0.170937,-1.02685,1.54683
4055,0,-4,1,-3,-1,-1,1,9,0.80127,-0.0976562,0.496094,-0.3125,2.3125,-5.5625,-0.170937,-1.02685,1.54683
4055,2,3,-1,-4,0,-1,1,-4,0.80127,-0.0976562,0.496094,-0.3125,2.3125,-5.5625,-0.170937,-1.02685,1.54683
4056,-1,-5,-2,-3,-2,-2,1,-1,0.787109,-0.0957031,0.467285,9,2.5625,-3.0625,-0.16664,-1.02614,1.54525
4056,-1,4,4,-3,0,0,-1,3,0.787109,-0.0957031,0.467285,9,2.5625,-3.0625,-0.16664,-1.02614,1.54525
4070,0,0,10,9,1,-2,0,4,0.787109,-0.0957031,0.467285,9,2.5625,-3.0625,-0.16664,-1.02614,1.54525
4070,1,-1,-3,-5,-2,-4,0,4,0.787109,-0.0957031,0.467285,9,2.5625,-3.0625,-0.16664,-1.02614,1.54525
4076,-1,0,-6,-1,2,3,2,11,0.785156,-0.101562,0.461914,14.9375,3,-0.5,-0.162019,-1.02528,1.54564
4076,-2,-3,10,-1,-6,-8,-7,-8,0.785156,-0.101562,0.461914,14.9375,3,-0.5,-0.162019,-1.02528,1.54564
4092,0,1,-3,-3,-1,0,0,7,0.785156,-0.101562,0.461914,14.9375,3,-0.5,-0.162019,-1.02528,1.54564
4092,-3,-3,-12,-5,-1,2,-2,-4,0.785156,-0.101562,0.461914,14.9375,3,-0.5,-0.162019,-1.02528,1.54564
4099,0,3,-5,2,1,-1,1,3,0.785645,-0.101562,0.457031,22.0625,2.9375,1.0625,-0.156044,-1.02425,1.54719
4099,-2,-3,-12,-2,1,0,0,7,0.785645,-0.101562,0.457031,22.0625,2.9375,1.0625,-0.156044,-1.02425,1.54719
4115,-3,1,1,-3,-3,-1,-4,-5,0.785645,-0.101562,0.457031,22.0625,2.9375,1.0625,-0.156044,-1.02425,1.54719
4115,0,-6,9,0,-1,-1,0,3,0.785645,-0.101562,0.457031,22.0625,2.9375,1.0625,-0.156044,-1.02425,1.54719
4117,2,9,3,-5,-6,-3,-4,-16,0.805176,-0.0800781,0.469727,21.875,2.125,2.5,-0.15009,-1.02388,1.54916
4117,0,-3,3,6,5,5,6,7,0.805176,-0.0800781,0.469727,21.875,2.125,2.5,-0.15009,-1.02388,1.54916
4129,1,-2,-10,-5,-3,-6,-4,9,0.805176,-0.0800781,0.469727,21.875,2.125,2.5,-0.15009,-1.02388,1.54916
4129,-2,1,8,-5,-1,-4,-1,1,0.805176,-0.0800781,0.469727,21.875,2.125,2.5,-0.15009,-1.02388,1.54916
4137,0,-5,-11,1,0,-1,0,-2,0.820801,-0.0717773,0.475586,16.5625,0.75,3.375,-0.146097,-1.0236,1.5511
4137,2,-3,3,0,0,1,1,1,0.820801,-0.0717773,0.475586,16.5625,0.75,3.375,-0.146097,-1.0236,1.5511
4153,1,0,-7,-8,-1,0,1,23,0.820801,-0.0717773,0.475586,16.5625,0.75,3.375,-0.146097,-1.0236,1.5511
4153,-4,1,-18,5,-4,-2,-2,-23,0.820801,-0.0717773,0.475586,16.5625,0.75,3.375,-0.146097,-1.0236,1.5511
4154,1,-4,-12,-2,-1,1,1,-4,0.836426,-0.0805664,0.46875,12.6875,-0.375,3.8125,-0.144502,-1.02434,1.55435
4154,0,-1,11,1,-2,-3,-1,8,0.836426,-0.0805664,0.46875,12.6875,-0.375,3.8125,-0.144502,-1.02434,1.55435
4175,-1,-1,-12,-2,0,0,2,-1,0.836426,-0.0805664,0.46875,12.6875,-0.375,3.8125,-0.144502,-1.02434,1.55435
4175,-2,-7,8,-4,-1,0,-4,-1,0.836426,-0.0805664,0.46875,12.6875,-0.375,3.8125,-0.144502,-1.02434,1.55435
4176,1,8,0,0,-1,-8,-5,-3,0.84668,-0.0849609,0.454102,9.9375,-0.875,2.625,-0.143601,-1.0255,1.55697
4176,1,-3,-5,-3,-3,-1,-2,-2,0.84668,-0.0849609,0.454102,9.9375,-0.875,2.625,-0.143601,-1.0255,1.55697
4189,1,0,3,-1,1,-1,-1,-7,0.84668,-0.0849609,0.454102,9.9375,-0.875,2.625,-0.143601,-1.0255,1.55697
4189,3,0,0,1,2,1,2,4,0.84668,-0.0849609,0.454102,9.9375,-0.875,2.625,-0.143601,-1.0255,1.55697
4198,-1,-2,-3,0,-2,2,5,3,0.84668,-0.0712891,0.443359,7.75,0.1875,1.0625,-0.141798,-1.02675,1.55795
4198,-2,0,1,-4,3,1,1,-6,0.84668,-0.0712891,0.443359,7.75,0.1875,1.0625,-0.141798,-1.02675,1.55795
4213,-1,-2,10,1,2,-2,-1,-2,0.84668,-0.0712891,0.443359,7.75,0.1875,1.0625,-0.141798,-1.02675,1.55795
4213,0,2,-1,0,-2,-8,-3,12,0.84668,-0.0712891,0.443359,7.75,0.1875,1.0625,-0.141798,-1.02675,1.55795
4214,-7,-13,-17,1,0,2,-6,-14,0.849609,-0.0507812,0.447266,4.375,2,-0.8125,-0.139066,-1.0275,1.55692
4214,1,2,7,-3,-5,-4,-2,2,0.849609,-0.0507812,0.447266,4.375,2,-0.8125,-0.139066,-1.0275,1.55692
4235,-3,-4,-6,4,-1,-2,-2,-9,0.849609,-0.0507812,0.447266,4.375,2,-0.8125,-0.139066,-1.0275,1.55692
4235,2,2,-9,-2,2,4,2,6,0.849609,-0.0507812,0.447266,4.375,2,-0.8125,-0.139066,-1.0275,1.55692
4236,1,0,7,-6,-2,-2,2,0,0.846191,-0.0498047,0.460449,-0.8125,3,-2.25,-0.137124,-1.02752,1.55443
4236,4,9,22,15,2,1,1,1,0.846191,-0.0498047,0.460449,-0.8125,3,-2.25,-0.137124,-1.02752,1.55443
4249,0,-7,-20,-4,-2,-5,-6,5,0.846191,-0.0498047,0.460449,-0.8125,3,-2.25,-0.137124,-1.02752,1.55443
4249,0,1,28,2,1,-1,-1,-7,0.846191,-0.0498047,0.460449,-0.8125,3,-2.25,-0.137124,-1.02752,1.55443
4256,-2,-6,-28,-2,1,-1,-3,-1,0.842285,-0.0654297,0.477051,-7.875,3.3125,-4,-0.137301,-1.02705,1.55141
4256,-1,-1,-3,-4,-1,-5,-3,-6,0.842285,-0.0654297,0.477051,-7.875,3.3125,-4,-0.137301,-1.02705,1.55141
4273,-2,-1,1,-2,-2,-1,-2,4,0.842285,-0.0654297,0.477051,-7.875,3.3125,-4,-0.137301,-1.02705,1.55141
4273,-1,-3,4,-2,1,2,1,4,0.842285,-0.0654297,0.477051,-7.875,3.3125,-4,-0.137301,-1.02705,1.55141
4274,-1,0,-2,3,2,2,2,-3,0.831055,-0.0957031,0.491211,-11.875,3.5,-4.1875,-0.140016,-1.02607,1.54944
4274,-3,-8,-3,-5,-3,-3,-3,0,0.831055,-0.0957031,0.491211,-11.875,3.5,-4.1875,-0.140016,-1.02607,1.54944
4295,2,4,5,-4,-2,1,-2,-7,0.831055,-0.0957031,0.491211,-11.875,3.5,-4.1875,-0.140016,-1.02607,1.54944
4295,-1,0,-3,1,-2,-2,-1,4,0.831055,-0.0957031,0.491211,-11.875,3.5,-4.1875,-0.140016,-1.02607,1.54944
4296,1,1,10,0,-1,-1,0,18,0.823242,-0.108398,0.497559,-12.5625,3.4375,-4.4375,-0.143358,-1.02494,1.54759
4296,-4,2,-1,-3,0,1,1,-25,0.823242,-0.108398,0.497559,-12.5625,3.4375,-4.4375,-0.143358,-1.02494,1.54759
4318,0,-2,-16,-1,1,1,1,-2,0.823242,-0.108398,0.497559,-12.5625,3.4375,-4.4375,-0.143358,-1.02494,1.54759
4318,-3,-6,4,1,0,-1,-1,-7,0.823242,-0.108398,0.497559,-12.5625,3.4375,-4.4375,-0.143358,-1.02494,1.54759
4319,5,1,4,-7,0,-2,1,7,0.82373,-0.0961914,0.505371,-12.75,3.4375,-3.6875,-0.1464,-1.02369,1.54567
4319,0,-2,4,4,-3,0,0,-5,0.82373,-0.0961914,0.505371,-12.75,3.4375,-3.6875,-0.1464,-1.02369,1.54567
4332,-9,-6,-9,-3,1,-3,-6,-23,0.82373,-0.0961914,0.505371,-12.75,3.4375,-3.6875,-0.1464,-1.02369,1.54567
4332,2,9,0,0,1,1,2,14,0.82373,-0.0961914,0.505371,-12.75,3.4375,-3.6875,-0.1464,-1.02369,1.54567
4334,-2,-3,-6,-3,-2,-3,-3,-9,0.821289,-0.0878906,0.504883,-13,2.625,-2.5,-0.149866,-1.02278,1.54441
4334,-2,-2,-1,-10,-5,-2,-4,11,0.821289,-0.0878906,0.504883,-13,2.625,-2.5,-0.149866,-1.02278,1.54441
4355,1,-2,-4,2,1,3,3,-10,0.821289,-0.0878906,0.504883,-13,2.625,-2.5,-0.149866,-1.02278,1.54441
4355,-2,-5,-8,-3,-1,-1,-2,0,0.821289,-0.0878906,0.504883,-13,2.625,-2.5,-0.149866,-1.02278,1.54441
4357,-1,2,11,0,0,-2,-1,15,0.812012,-0.0810547,0.518066,-13.6875,1.875,-1.5625,-0.153658,-1.02154,1.54316
4357,-7,-3,-16,-4,-1,-2,-4,-28,0.812012,-0.0810547,0.518066,-13.6875,1.875,-1.5625,-0.153658,-1.02154,1.54316
4369,0,0,6,1,-2,-2,-3,6,0.812012,-0.0810547,0.518066,-13.6875,1.875,-1.5625,-0.153658,-1.02154,1.54316
4369,-1,-3,2,-4,-2,-1,-2,-9,0.812012,-0.0810547,0.518066,-13.6875,1.875,-1.5625,-0.153658,-1.02154,1.54316
4376,0,1,-4,1,1,2,1,-2,0.80957,-0.09375,0.512695,-12.4375,1.1875,-1.3125,-0.157738,-1.02059,1.54265
4376,2,-5,0,2,0,1,-1,14,0.80957,-0.09375,0.512695,-12.4375,1.1875,-1.3125,-0.157738,-1.02059,1.54265
4392,0,-3,2,-3,-1,1,1,-5,0.80957,-0.09375,0.512695,-12.4375,1.1875,-1.3125,-0.157738,-1.02059,1.54265
4392,-1,1,3,-3,3,1,-1,7,0.80957,-0.09375,0.512695,-12.4375,1.1875,-1.3125,-0.157738,-1.02059,1.54265
4394,-6,4,13,8,-1,-1,2,-31,0.808594,-0.0883789,0.51123,-10.125,1,-1,-0.160711,-1.01981,1.54194
4394,-3,-4,-17,-6,-2,0,-1,5,0.808594,-0.0883789,0.51123,-10.125,1,-1,-0.160711,-1.01981,1.54194
4415,1,2,11,1,-3,-6,-1,1,0.808594,-0.0883789,0.51123,-10.125,1,-1,-0.160711,-1.01981,1.54194
4415,-1,-4,-20,-5,-4,1,1,0,0.808594,-0.0883789,0.51123,-10.125,1,-1,-0.160711,-1.01981,1.54194
4416,3,1,13,-3,0,2,-4,-2,0.805664,-0.0800781,0.508301,-8.4375,1.1875,-0.4375,-0.163216,-1.01901,1.54149
4416,-1,-2,-10,6,2,0,-3,7,0.805664,-0.0800781,0.508301,-8.4375,1.1875,-0.4375,-0.163216,-1.01901,1.54149
4429,-2,-1,2,-3,1,7,6,-8,0.805664,-0.0800781,0.508301,-8.4375,1.1875,-0.4375,-0.163216,-1.01901,1.54149
4429,-2,1,7,0,-3,-9,-5,-3,0.805664,-0.0800781,0.508301,-8.4375,1.1875,-0.4375,-0.163216,-1.01901,1.54149
4436,-1,-6,-14,-3,-3,1,0,9,0.80957,-0.0854492,0.513672,-5.9375,0.6875,-0.375,-0.164908,-1.01838,1.54102
4436,1,6,5,-3,0,-2,-1,-6,0.80957,-0.0854492,0.513672,-5.9375,0.6875,-0.375,-0.164908,-1.01838,1.54102
4452,0,0,14,-2,0,1,-2,-7,0.80957,-0.0854492,0.513672,-5.9375,0.6875,-0.375,-0.164908,-1.01838,1.54102
4452,-1,-1,-13,6,1,1,1,-4,0.80957,-0.0854492,0.513672,-5.9375,0.6875,-0.375,-0.164908,-1.01838,1.54102
4454,-7,-2,13,-1,-3,-1,-3,-10,0.813965,-0.0922852,0.509277,-3.9375,0.0625,-0.8125,-0.166178,-1.01813,1.54089
4454,2,-1,6,-2,-1,0,2,17,0.813965,-0.0922852,0.509277,-3.9375,0.0625,-0.8125,-0.166178,-1.01813,1.54089
4475,-1,2,-12,3,-2,1,-3,11,0.813965,-0.0922852,0.509277,-3.9375,0.0625,-0.8125,-0.166178,-1.01813,1.54089
4475,-3,-2,11,-3,-2,3,0,-2,0.813965,-0.0922852,0.509277,-3.9375,0.0625,-0.8125,-0.166178,-1.01813,1.54089
4476,3,1,-3,-1,-1,-3,0,10,0.818848,-0.103027,0.507324,-3.6875,-0.375,-0.75,-0.167905,-1.018,1.54112
4476,-8,-7,-9,-4,-3,-4,-3,-9,0.818848,-0.103027,0.507324,-3.6875,-0.375,-0.75,-0.167905,-1.018,1.54112
4488,3,5,2,-2,-1,0,0,6,0.818848,-0.103027,0.507324,-3.6875,-0.375,-0.75,-0.167905,-1.018,1.54112
4488,2,1,-6,-4,-1,-7,-4,-6,0.818848,-0.103027,0.507324,-3.6875,-0.375,-0.75,-0.167905,-1.018,1.54112
4498,0,-6,-1,3,2,-1,2,2,0.825195,-0.10498,0.506348,-3.8125,-1,-1.5625,-0.169165,-1.01838,1.54099
4498,0,0,6,1,2,3,1,-2,0.825195,-0.10498,0.506348,-3.8125,-1,-1.5625,-0.169165,-1.01838,1.54099
4513,-1,1,5,4,0,1,5,7,0.825195,-0.10498,0.506348,-3.8125,-1,-1.5625,-0.169165,-1.01838,1.54099
4513,4,-4,-24,-6,-2,-2,0,12,0.825195,-0.10498,0.506348,-3.8125,-1,-1.5625,-0.169165,-1.01838,1.54099
4514,-7,-2,8,1,-4,-7,-4,-29,0.816406,-0.10498,0.501465,-5.5625,-1.1875,-1.375,-0.17115,-1.01849,1.54061
4514,-1,1,0,1,-2,-5,-7,-16,0.816406,-0.10498,0.501465,-5.5625,-1.1875,-1.375,-0.17115,-1.01849,1.54061
4535,-1,1,32,-3,-2,2,3,2,0.816406,-0.10498,0.501465,-5.5625,-1.1875,-1.375,-0.17115,-1.01849,1.54061
4535,2,3,-31,-5,-2,3,2,4,0.816406,-0.10498,0.501465,-5.5625,-1.1875,-1.375,-0.17115,-1.01849,1.54061
4537,-3,-6,-5,0,2,-2,0,5,0.810059,-0.10498,0.510254,-4.125,-1.4375,-0.375,-0.173399,-1.01844,1.54122
4537,-1,-2,23,0,2,-1,0,-2,0.810059,-0.10498,0.510254,-4.125,-1.4375,-0.375,-0.173399,-1.01844,1.54122
4549,-5,-9,-27,-1,-4,-4,-3,0,0.810059,-0.10498,0.510254,-4.125,-1.4375,-0.375,-0.173399,-1.01844,1.54122
4549,3,3,18,-3,2,-1,-1,-4,0.810059,-0.10498,0.510254,-4.125,-1.4375,-0.375,-0.173399,-1.01844,1.54122
4558,-5,-2,-9,0,-2,-2,-3,8,0.81543,-0.10791,0.516113,-2.4375,-2.8125,0.25,-0.17555,-1.01889,1.54261
4558,1,-5,-17,-4,-3,-5,-5,2,0.81543,-0.10791,0.516113,-2.4375,-2.8125,0.25,-0.17555,-1.01889,1.54261
4573,0,3,3,1,0,-1,-1,-2,0.81543,-0.10791,0.516113,-2.4375,-2.8125,0.25,-0.17555,-1.01889,1.54261
4573,-5,0,8,2,3,3,0,-4,0.81543,-0.10791,0.516113,-2.4375,-2.8125,0.25,-0.17555,-1.01889,1.54261
4574,2,2,-3,-3,2,5,1,-2,0.812012,-0.116211,0.513672,-1.8125,-3.375,0.5,-0.177808,-1.01952,1.54419
4574,-4,-5,6,2,-1,0,0,1,0.812012,-0.116211,0.513672,-1.8125,-3.375,0.5,-0.177808,-1.01952,1.54419
4595,-1,3,-17,-8,-5,-4,-2,-6,0.812012,-0.116211,0.513672,-1.8125,-3.375,0.5,-0.177808,-1.01952,1.54419
4595,1,-3,-8,9,-2,0,-2,1,0.812012,-0.116211,0.513672,-1.8125,-3.375,0.5,-0.177808,-1.01952,1.54419
4596,1,1,17,-1,-1,-5,-6,4,0.813477,-0.114746,0.508301,0.0625,-3.5625,1.875,-0.180148,-1.02012,1.54675
4596,-1,-1,-8,-2,1,4,7,-7,0.813477,-0.114746,0.508301,0.0625,-3.5625,1.875,-0.180148,-1.02012,1.54675
4609,-6,-10,-13,-2,-2,-7,-5,-3,0.813477,-0.114746,0.508301,0.0625,-3.5625,1.875,-0.180148,-1.02012,1.54675
4609,-4,0,5,-2,-4,-3,-3,-7,0.813477,-0.114746,0.508301,0.0625,-3.5625,1.875,-0.180148,-1.02012,1.54675
4618,2,0,-10,-4,-3,-2,1,1,0.803223,-0.111328,0.508789,1.875,-3.4375,2.4375,-0.182151,-1.02054,1.54955
4618,1,1,0,3,0,0,0,8,0.803223,-0.111328,0.508789,1.875,-3.4375,2.4375,-0.182151,-1.02054,1.54955
4632,3,0,1,-3,2,0,1,13,0.803223,-0.111328,0.508789,1.875,-3.4375,2.4375,-0.182151,-1.02054,1.54955
4632,-2,-2,9,-1,0,-1,0,-27,0.803223,-0.111328,0.508789,1.875,-3.4375,2.4375,-0.182151,-1.02054,1.54955
4634,0,0,-11,-3,0,-1,1,18,0.804688,-0.102051,0.499512,2.0625,-3.5625,3.9375,-0.184297,-1.02126,1.55281
4634,0,-1,-4,0,-1,-1,-2,2,0.804688,-0.102051,0.499512,2.0625,-3.5625,3.9375,-0.184297,-1.02126,1.55281
4655,0,1,1,1,0,2,0,5,0.804688,-0.102051,0.499512,2.0625,-3.5625,3.9375,-0.184297,-1.02126,1.55281
4655,-3,-3,-3,-4,-3,-1,-2,-1,0.804688,-0.102051,0.499512,2.0625,-3.5625,3.9375,-0.184297,-1.02126,1.55281
4657,1,3,4,0,1,2,2,-1,0.796387,-0.0976562,0.495117,1.0625,-3.5,4.875,-0.18721,-1.02165,1.55655
4657,1,0,-2,-3,-2,-1,1,0,0.796387,-0.0976562,0.495117,1.0625,-3.5,4.875,-0.18721,-1.02165,1.55655
4669,-2,-2,-4,2,-3,-3,-2,-5,0.796387,-0.0976562,0.495117,1.0625,-3.5,4.875,-0.18721,-1.02165,1.55655
4669,-4,-4,5,0,-2,0,-2,7,0.796387,-0.0976562,0.495117,1.0625,-3.5,4.875,-0.18721,-1.02165,1.55655
4678,-2,-3,-5,-4,-2,-3,-1,-10,0.80127,-0.0976562,0.49707,1.6875,-4,6,-0.190431,-1.02232,1.56102
4678,-3,0,-2,0,-1,0,-1,2,0.80127,-0.0976562,0.49707,1.6875,-4,6,-0.190431,-1.02232,1.56102
4693,0,-3,1,1,0,-3,-2,-6,0.80127,-0.0976562,0.49707,1.6875,-4,6,-0.190431,-1.02232,1.56102
4693,-2,-1,0,-1,-2,-2,0,0,0.80127,-0.0976562,0.49707,1.6875,-4,6,-0.190431,-1.02232,1.56102
4694,1,0,-1,-2,-2,1,1,-1,0.802734,-0.0976562,0.503418,5.75,-4.375,7.3125,-0.193039,-1.02284,1.56654
4694,1,9,-1,-1,-2,0,-2,-1,0.802734,-0.0976562,0.503418,5.75,-4.375,7.3125,-0.193039,-1.02284,1.56654
4714,0,-16,7,1,-1,0,-1,1,0.802734,-0.0976562,0.503418,5.75,-4.375,7.3125,-0.193039,-1.02284,1.56654
4714,-1,6,3,-2,-1,0,0,-2,0.802734,-0.0976562,0.503418,5.75,-4.375,7.3125,-0.193039,-1.02284,1.56654
4717,-5,-7,-6,-3,-1,-1,-2,-5,0.8125,-0.0883789,0.507812,9.625,-5.3125,8.3125,-0.194399,-1.02363,1.57222
4717,1,-1,1,1,1,0,2,3,0.8125,-0.0883789,0.507812,9.625,-5.3125,8.3125,-0.194399,-1.02363,1.57222
4729,-1,-16,-8,1,-2,0,1,-3,0.8125,-0.0883789,0.507812,9.625,-5.3125,8.3125,-0.194399,-1.02363,1.57222
4729,-1,6,1,1,-3,-2,3,0,0.8125,-0.0883789,0.507812,9.625,-5.3125,8.3125,-0.194399,-1.02363,1.57222
4738,-3,20,9,0,0,-1,1,-7,0.812012,-0.0864258,0.520508,14,-6.8125,8.5625,-0.194373,-1.02471,1.57817
4738,-2,9,-6,-3,-4,-1,-4,-2,0.812012,-0.0864258,0.520508,14,-6.8125,8.5625,-0.194373,-1.02471,1.57817
4752,0,-23,1,0,0,-1,-3,-1,0.812012,-0.0864258,0.520508,14,-6.8125,8.5625,-0.194373,-1.02471,1.57817
4752,0,-10,-4,-2,1,-2,-3,0,0.812012,-0.0864258,0.520508,14,-6.8125,8.5625,-0.194373,-1.02471,1.57817
4758,6,1,-3,3,2,0,0,-1,0.813965,-0.103027,0.51416,20.4375,-8.625,8.5,-0.19302,-1.02645,1.58487
4758,2,2,-8,1,3,1,-1,-1,0.813965,-0.103027,0.51416,20.4375,-8.625,8.5,-0.19302,-1.02645,1.58487
4774,-6,-4,-4,-4,-1,-3,-3,-8,0.813965,-0.103027,0.51416,20.4375,-8.625,8.5,-0.19302,-1.02645,1.58487
4774,-3,-13,0,-4,-2,-1,3,5,0.813965,-0.103027,0.51416,20.4375,-8.625,8.5,-0.19302,-1.02645,1.58487
4777,-4,-32,3,-1,-2,0,1,-3,0.81543,-0.0795898,0.487305,24.5,-6.5625,9.1875,-0.189723,-1.02786,1.59114
4777,-1,-31,-18,-2,-3,0,-2,-1,0.81543,-0.0795898,0.487305,24.5,-6.5625,9.1875,-0.189723,-1.02786,1.59114
4788,3,34,3,1,0,-1,2,0,0.81543,-0.0795898,0.487305,24.5,-6.5625,9.1875,-0.189723,-1.02786,1.59114
4788,0,19,5,1,-2,-1,-4,-2,0.81543,-0.0795898,0.487305,24.5,-6.5625,9.1875,-0.189723,-1.02786,1.59114
4797,2,1,-6,1,-1,2,1,2,0.80957,-0.0957031,0.483887,34.5625,-4.3125,12.1875,-0.185348,-1.02836,1.60001
4797,-1,28,4,-1,-1,-1,0,1,0.80957,-0.0957031,0.483887,34.5625,-4.3125,12.1875,-0.185348,-1.02836,1.60001
4812,3,16,0,2,0,-2,0,1,0.80957,-0.0957031,0.483887,34.5625,-4.3125,12.1875,-0.185348,-1.02836,1.60001
4812,0,1,-7,0,1,0,0,-1,0.80957,-0.0957031,0.483887,34.5625,-4.3125,12.1875,-0.185348,-1.02836,1.60001
4826,4,-14,16,2,-1,-1,2,1,0.813965,-0.0639648,0.469727,35.4375,-5.25,14.5,-0.180647,-1.02957,1.60936
4826,-1,-30,-11,-5,-3,0,-1,-4,0.813965,-0.0639648,0.469727,35.4375,-5.25,14.5,-0.180647,-1.02957,1.60936
4835,-1,6,20,0,-1,0,-2,-1,0.813965,-0.0639648,0.469727,35.4375,-5.25,14.5,-0.180647,-1.02957,1.60936
4835,-3,-25,-18,-6,-3,-3,-4,-4,0.813965,-0.0639648,0.469727,35.4375,-5.25,14.5,-0.180647,-1.02957,1.60936
4836,2,27,8,0,-1,0,-3,0,0.820312,-0.0273438,0.486328,37.125,-6.3125,13.0625,-0.173142,-1.03129,1.61677
4836,-1,5,-13,-3,-1,-2,1,0,0.820312,-0.0273438,0.486328,37.125,-6.3125,13.0625,-0.173142,-1.03129,1.61677
4848,1,24,4,-1,-6,-3,-1,0,0.820312,-0.0273438,0.486328,37.125,-6.3125,13.0625,-0.173142,-1.03129,1.61677
4848,3,-3,14,4,3,0,-5,1,0.820312,-0.0273438,0.486328,37.125,-6.3125,13.0625,-0.173142,-1.03129,1.61677
4857,-2,-15,-5,-1,-1,-1,0,-2,0.795898,-0.0112305,0.490723,37.625,-6.75,9.6875,-0.163024,-1.03264,1.62107
4857,1,37,8,0,1,-1,-1,-1,0.795898,-0.0112305,0.490723,37.625,-6.75,9.6875,-0.163024,-1.03264,1.62107
4871,-10,-91,-27,-5,-2,-2,-3,-3,0.795898,-0.0112305,0.490723,37.625,-6.75,9.6875,-0.163024,-1.03264,1.62107
4871,-1,2,8,1,-2,0,0,-2,0.795898,-0.0112305,0.490723,37.625,-6.75,9.6875,-0.163024,-1.03264,1.62107
4879,-8,-12,-17,-7,-5,-3,-4,-4,0.762207,0.0249023,0.495605,31.0625,-9.5,-2.0625,-0.147092,-1.03535,1.61681
4879,4,20,10,1,-2,-1,-1,1,0.762207,0.0249023,0.495605,31.0625,-9.5,-2.0625,-0.147092,-1.03535,1.61681
4895,3,10,-2,1,-1,1,-2,1,0.762207,0.0249023,0.495605,31.0625,-9.5,-2.0625,-0.147092,-1.03535,1.61681
4895,-2,-4,3,-4,-2,-4,1,-2,0.762207,0.0249023,0.495605,31.0625,-9.5,-2.0625,-0.147092,-1.03535,1.61681
4896,0,-9,-10,-2,0,-2,-2,-2,0.815918,0.0874023,0.439453,7.375,-21.0625,0.6875,-0.139723,-1.04371,1.6133
4896,-1,-10,6,-1,-3,-2,0,-1,0.815918,0.0874023,0.439453,7.375,-21.0625,0.6875,-0.139723,-1.04371,1.6133
4909,1,19,1,0,-1,-1,0,-2,0.815918,0.0874023,0.439453,7.375,-21.0625,0.6875,-0.139723,-1.04371,1.6133
4909,-1,-4,-2,1,-2,1,-2,-1,0.815918,0.0874023,0.439453,7.375,-21.0625,0.6875,-0.139723,-1.04371,1.6133
4917,-2,21,5,1,-3,-2,-2,0,0.791504,0.127441,0.45459,-8.0625,-27.625,8,-0.14026,-1.05315,1.61328
4917,-4,-13,15,-1,-3,-2,-2,-1,0.791504,0.127441,0.45459,-8.0625,-27.625,8,-0.14026,-1.05315,1.61328
4931,-1,-3,0,-2,1,2,-1,1,0.791504,0.127441,0.45459,-8.0625,-27.625,8,-0.14026,-1.05315,1.61328
4931,-2,8,-16,-3,-6,-2,-4,-2,0.791504,0.127441,0.45459,-8.0625,-27.625,8,-0.14026,-1.05315,1.61328
4938,2,4,1,1,2,3,-3,-1,0.767578,0.0957031,0.449219,-28.9375,-36.4375,1.25,-0.146342,-1.06562,1.61094
4938,-4,-9,0,1,-1,-1,0,-2,0.767578,0.0957031,0.449219,-28.9375,-36.4375,1.25,-0.146342,-1.06562,1.61094
4955,-3,-24,-15,1,1,-2,0,-2,0.767578,0.0957031,0.449219,-28.9375,-36.4375,1.25,-0.146342,-1.06562,1.61094
4955,-2,-17,1,0,1,1,2,2,0.767578,0.0957031,0.449219,-28.9375,-36.4375,1.25,-0.146342,-1.06562,1.61094
4957,-1,53,15,-5,-4,-3,-3,-2,0.791504,0.0415039,0.431152,-48.1875,-44.625,-6.875,-0.157469,-1.08139,1.60599
4957,0,-40,-14,-1,1,-2,-2,2,0.791504,0.0415039,0.431152,-48.1875,-44.625,-6.875,-0.157469,-1.08139,1.60599
4978,-4,22,10,-4,-1,-1,-3,-3,0.791504,0.0415039,0.431152,-48.1875,-44.625,-6.875,-0.157469,-1.08139,1.60599
4978,0,1,-6,0,-3,-2,-1,-1,0.791504,0.0415039,0.431152,-48.1875,-44.625,-6.875,-0.157469,-1.08139,1.60599
4979,0,-19,-7,-1,-2,-2,0,-1,0.788086,-0.012207,0.424805,-43.25,-49.9375,-13,-0.166342,-1.09899,1.59976
4979,0,9,1,-1,0,-1,-1,1,0.788086,-0.012207,0.424805,-43.25,-49.9375,-13,-0.166342,-1.09899,1.59976
4992,0,9,5,0,-8,-2,0,-1,0.788086,-0.012207,0.424805,-43.25,-49.9375,-13,-0.166342,-1.09899,1.59976
4992,-3,-5,0,2,4,-2,-2,-2,0.788086,-0.012207,0.424805,-43.25,-49.9375,-13,-0.166342,-1.09899,1.59976
4998,-3,2,-5,-3,0,-1,-1,-3,0.757812,0.00976562,0.382324,-29.8125,-57.8125,-19.1875,-0.166149,-1.11975,1.58872
4998,-1,-11,-11,-3,0,-1,-2,-1,0.757812,0.00976562,0.382324,-29.8125,-57.8125,-19.1875,-0.166149,-1.11975,1.58872
5015,2,7,-4,-1,-2,-1,1,1,0.757812,0.00976562,0.382324,-29.8125,-57.8125,-19.1875,-0.166149,-1.11975,1.58872
5015,0,11,-12,-1,-5,-3,-2,-3,0.757812,0.00976562,0.382324,-29.8125,-57.8125,-19.1875,-0.166149,-1.11975,1.58872
5017,3,7,3,3,1,0,2,1,0.790527,0.0405273,0.380371,-27.3125,-63.375,-24,-0.159686,-1.14264,1.57223
5017,-3,-15,-2,-3,0,0,-1,-3,0.790527,0.0405273,0.380371,-27.3125,-63.375,-24,-0.159686,-1.14264,1.57223
5037,1,41,9,-1,1,1,0,-1,0.790527,0.0405273,0.380371,-27.3125,-63.375,-24,-0.159686,-1.14264,1.57223
5037,1,-6,6,1,-1,-1,1,-1,0.790527,0.0405273,0.380371,-27.3125,-63.375,-24,-0.159686,-1.14264,1.57223
5039,-3,-3,-5,-1,-1,-1,-3,-1,0.823242,0.0229492,0.362793,-40,-68.125,-24.3125,-0.158552,-1.16752,1.55669
5039,0,20,10,1,-2,-1,-3,-1,0.823242,0.0229492,0.362793,-40,-68.125,-24.3125,-0.158552,-1.16752,1.55669
5051,0,-7,-5,-2,0,0,0,0,0.823242,0.0229492,0.362793,-40,-68.125,-24.3125,-0.158552,-1.16752,1.55669
5051,0,5,5,-3,-1,-1,0,1,0.823242,0.0229492,0.362793,-40,-68.125,-24.3125,-0.158552,-1.16752,1.55669
5060,0,-11,-11,-1,-3,-1,0,0,0.813965,-0.0385742,0.34375,-51,-72.3125,-23.5,-0.16532,-1.19333,1.54509
5060,0,-4,1,0,-1,0,-2,-1,0.813965,-0.0385742,0.34375,-51,-72.3125,-23.5,-0.16532,-1.19333,1.54509
5075,-2,14,3,0,0,-1,-3,-2,0.813965,-0.0385742,0.34375,-51,-72.3125,-23.5,-0.16532,-1.19333,1.54509
5075,-1,8,-4,-2,1,-2,-2,-1,0.813965,-0.0385742,0.34375,-51,-72.3125,-23.5,-0.16532,-1.19333,1.54509
5077,-2,-13,0,-1,-2,0,-2,-1,0.801758,-0.0722656,0.327637,-47.3125,-74.3125,-22.9375,-0.173762,-1.21916,1.53613
5077,0,-2,-14,-2,-2,-1,1,-1,0.801758,-0.0722656,0.327637,-47.3125,-74.3125,-22.9375,-0.173762,-1.21916,1.53613
5097,-2,-3,6,-2,0,-1,1,-2,0.801758,-0.0722656,0.327637,-47.3125,-74.3125,-22.9375,-0.173762,-1.21916,1.53613
5097,-1,-14,-14,-2,-2,-1,1,-1,0.801758,-0.0722656,0.327637,-47.3125,-74.3125,-22.9375,-0.173762,-1.21916,1.53613
5099,-1,11,4,-2,-1,-3,0,-2,0.804199,-0.0761719,0.305176,-41.4375,-74.6875,-23.625,-0.179487,-1.24519,1.52669
5099,-2,-11,2,2,-2,1,0,0,0.804199,-0.0761719,0.305176,-41.4375,-74.6875,-23.625,-0.179487,-1.24519,1.52669
5111,-1,-9,-11,1,0,-1,-1,-1,0.804199,-0.0761719,0.305176,-41.4375,-74.6875,-23.625,-0.179487,-1.24519,1.52669
5111,0,13,14,2,-1,1,-2,0,0.804199,-0.0761719,0.305176,-41.4375,-74.6875,-23.625,-0.179487,-1.24519,1.52669
5120,0,-17,-13,-3,0,-1,-1,-2,0.817383,-0.0922852,0.26416,-41.25,-73.6875,-25.875,-0.184365,-1.27146,1.51634
5120,0,-2,0,-1,-1,-2,1,-1,0.817383,-0.0922852,0.26416,-41.25,-73.6875,-25.875,-0.184365,-1.27146,1.51634
5135,-1,-12,0,-1,0,-2,-1,0,0.817383,-0.0922852,0.26416,-41.25,-73.6875,-25.875,-0.184365,-1.27146,1.51634
5135,-3,-3,-1,-1,-1,0,-1,1,0.817383,-0.0922852,0.26416,-41.25,-73.6875,-25.875,-0.184365,-1.27146,1.51634
5136,1,39,7,2,0,-1,-1,1,0.813477,-0.0756836,0.242188,-40.0625,-72.8125,-25.8125,-0.186602,-1.29764,1.50412
5136,-3,-35,-17,-4,-3,0,-2,-2,0.813477,-0.0756836,0.242188,-40.0625,-72.8125,-25.8125,-0.186602,-1.29764,1.50412
5157,0,5,-1,-2,-1,0,-1,0,0.813477,-0.0756836,0.242188,-40.0625,-72.8125,-25.8125,-0.186602,-1.29764,1.50412
5157,3,3,-3,-1,-1,-1,-1,1,0.813477,-0.0756836,0.242188,-40.0625,-72.8125,-25.8125,-0.186602,-1.29764,1.50412
5159,-4,-11,0,1,-2,-1,-2,-1,0.806641,-0.0400391,0.197266,-43.75,-70.625,-24.4375,-0.187818,-1.32327,1.48931
5159,-3,9,-1,-2,1,-1,-2,-1,0.806641,-0.0400391,0.197266,-43.75,-70.625,-24.4375,-0.187818,-1.32327,1.48931
5171,-2,-17,2,0,-2,-2,-2,0,0.806641,-0.0400391,0.197266,-43.75,-70.625,-24.4375,-0.187818,-1.32327,1.48931
5171,-5,-14,-7,-2,-1,-1,-2,-2,0.806641,-0.0400391,0.197266,-43.75,-70.625,-24.4375,-0.187818,-1.32327,1.48931
5180,1,19,6,0,0,0,2,1,0.802246,-0.0454102,0.178223,-51.6875,-67.0625,-22.6875,-0.193569,-1.34801,1.47687
5180,2,18,22,1,-2,-2,1,-1,0.802246,-0.0454102,0.178223,-51.6875,-67.0625,-22.6875,-0.193569,-1.34801,1.47687
5195,-2,-20,-20,-2,0,0,-1,-1,0.802246,-0.0454102,0.178223,-51.6875,-67.0625,-22.6875,-0.193569,-1.34801,1.47687
5195,0,-4,3,-3,0,0,-1,-1,0.802246,-0.0454102,0.178223,-51.6875,-67.0625,-22.6875,-0.193569,-1.34801,1.47687
5196,-1,-9,-1,0,-2,-1,0,0,0.807617,-0.081543,0.177246,-52.3125,-62.375,-20.6875,-0.203528,-1.37046,1.46846
5196,2,16,9,0,-1,-2,-2,0,0.807617,-0.081543,0.177246,-52.3125,-62.375,-20.6875,-0.203528,-1.37046,1.46846
5218,-1,0,-8,-1,-1,1,0,-1,0.807617,-0.081543,0.177246,-52.3125,-62.375,-20.6875,-0.203528,-1.37046,1.46846
5218,-3,-5,10,1,0,-2,0,-2,0.807617,-0.081543,0.177246,-52.3125,-62.375,-20.6875,-0.203528,-1.37046,1.46846
5219,-1,-7,-11,-1,-1,-2,-1,-2,0.836914,-0.132324,0.159668,-45.6875,-59.625,-18.4375,-0.221876,-1.39096,1.47014
5219,0,-8,1,2,0,-1,-1,0,0.836914,-0.132324,0.159668,-45.6875,-59.625,-18.4375,-0.221876,-1.39096,1.47014
5232,-1,8,16,0,-2,-4,-1,-1,0.836914,-0.132324,0.159668,-45.6875,-59.625,-18.4375,-0.221876,-1.39096,1.47014
5232,-2,-8,-18,-5,-1,1,0,1,0.836914,-0.132324,0.159668,-45.6875,-59.625,-18.4375,-0.221876,-1.39096,1.47014
5240,0,-13,-1,-2,0,-1,-2,0,0.870117,-0.122559,0.144043,-42.375,-55,-18.75,-0.237539,-1.41044,1.47062
5240,-1,7,6,-2,-1,-2,0,1,0.870117,-0.122559,0.144043,-42.375,-55,-18.75,-0.237539,-1.41044,1.47062
5256,-3,0,-4,-2,-1,0,-1,-2,0.870117,-0.122559,0.144043,-42.375,-55,-18.75,-0.237539,-1.41044,1.47062
5256,0,14,1,1,-2,-2,-1,-2,0.870117,-0.122559,0.144043,-42.375,-55,-18.75,-0.237539,-1.41044,1.47062
5257,-3,-15,-14,0,0,0,-1,-2,0.881836,-0.0957031,0.130371,-43.5,-49.1875,-18.5625,-0.247695,-1.428,1.46528
5257,-3,5,-3,-4,-1,1,-3,-3,0.881836,-0.0957031,0.130371,-43.5,-49.1875,-18.5625,-0.247695,-1.428,1.46528
5278,2,7,1,2,-1,-2,0,-1,0.881836,-0.0957031,0.130371,-43.5,-49.1875,-18.5625,-0.247695,-1.428,1.46528
5278,-2,-4,1,-3,1,-1,-1,-2,0.881836,-0.0957031,0.130371,-43.5,-49.1875,-18.5625,-0.247695,-1.428,1.46528
5279,-3,-25,6,-1,-3,-2,-1,-3,0.86377,-0.0810547,0.104492,-43.0625,-45.5,-15.8125,-0.262726,-1.44487,1.46538
5279,5,13,0,-3,1,-3,0,1,0.86377,-0.0810547,0.104492,-43.0625,-45.5,-15.8125,-0.262726,-1.44487,1.46538
5291,-6,-28,-15,1,-2,0,-2,-4,0.86377,-0.0810547,0.104492,-43.0625,-45.5,-15.8125,-0.262726,-1.44487,1.46538
5291,0,24,6,3,2,-1,0,0,0.86377,-0.0810547,0.104492,-43.0625,-45.5,-15.8125,-0.262726,-1.44487,1.46538
5300,-6,-13,-13,-4,-4,-3,-4,-4,0.864258,-0.0825195,0.0751953,-44.8125,-39.75,-15.0625,-0.278825,-1.45977,1.4658
5300,-1,-2,-2,-2,1,0,3,0,0.864258,-0.0825195,0.0751953,-44.8125,-39.75,-15.0625,-0.278825,-1.45977,1.4658
5314,3,24,5,-1,0,-1,0,1,0.901855,-0.126465,0.104004,-42.6875,-35.25,-13.875,-0.304177,-1.47174,1.47605
5314,2,-25,9,2,-1,2,1,2,0.901855,-0.126465,0.104004,-42.6875,-35.25,-13.875,-0.304177,-1.47174,1.47605
5315,-3,-3,-5,-4,1,-1,-2,-3,0.901855,-0.126465,0.104004,-42.6875,-35.25,-13.875,-0.304177,-1.47174,1.47605
5315,3,-1,-8,0,0,-1,1,1,0.901855,-0.126465,0.104004,-42.6875,-35.25,-13.875,-0.304177,-1.47174,1.47605
5336,0,-20,-9,-4,1,-2,-2,1,0.916992,-0.148926,0.100586,-40,-27.8125,-12.6875,-0.33484,-1.48128,1.49289
5336,-5,19,2,1,-1,-1,1,-3,0.916992,-0.148926,0.100586,-40,-27.8125,-12.6875,-0.33484,-1.48128,1.49289
5344,4,13,7,1,-3,-2,-1,1,0.916992,-0.148926,0.100586,-40,-27.8125,-12.6875,-0.33484,-1.48128,1.49289
5344,-4,-38,-5,1,0,1,-1,-2,0.916992,-0.148926,0.100586,-40,-27.8125,-12.6875,-0.33484,-1.48128,1.49289
5359,-2,15,4,-1,-1,-1,0,-2,0.923828,-0.145996,0.112305,-24.3125,-23.0625,-11.9375,-0.357612,-1.48882,1.50728
5359,2,14,-4,-5,-2,-4,-3,-2,0.923828,-0.145996,0.112305,-24.3125,-23.0625,-11.9375,-0.357612,-1.48882,1.50728
5360,-1,8,1,4,1,2,1,3,0.923828,-0.145996,0.112305,-24.3125,-23.0625,-11.9375,-0.357612,-1.48882,1.50728
5360,-3,46,8,-5,-4,-5,-3,-2,0.923828,-0.145996,0.112305,-24.3125,-23.0625,-11.9375,-0.357612,-1.48882,1.50728
5375,-1,13,5,1,0,1,-2,-1,0.900879,-0.101562,0.0942383,-16,-17.8125,-12.75,-0.356907,-1.49321,1.49984
5375,-1,-7,-7,-4,-4,-2,-2,-3,0.900879,-0.101562,0.0942383,-16,-17.8125,-12.75,-0.356907,-1.49321,1.49984
5375,3,2,11,0,-2,0,-1,0,0.900879,-0.101562,0.0942383,-16,-17.8125,-12.75,-0.356907,-1.49321,1.49984
5375,-2,-31,-11,3,-2,2,2,3,0.900879,-0.101562,0.0942383,-16,-17.8125,-12.75,-0.356907,-1.49321,1.49984
5397,4,-1,6,-4,-6,-1,-1,0,0.904297,-0.0605469,0.074707,-16.9375,-11.6875,-12.75,-0.335501,-1.49829,1.47262
5397,-7,-18,-8,-1,0,1,0,-1,0.904297,-0.0605469,0.074707,-16.9375,-11.6875,-12.75,-0.335501,-1.49829,1.47262
5398,1,53,7,0,2,-1,-1,-1,0.904297,-0.0605469,0.074707,-16.9375,-11.6875,-12.75,-0.335501,-1.49829,1.47262
5398,1,-71,-6,0,0,-3,-1,-3,0.904297,-0.0605469,0.074707,-16.9375,-11.6875,-12.75,-0.335501,-1.49829,1.47262
5419,-1,18,0,2,1,-1,0,-2,0.922852,-0.0620117,0.0839844,-18.625,-5.5,-12.3125,-0.305571,-1.50145,1.43668
5419,-1,-30,7,-1,-2,0,-2,0,0.922852,-0.0620117,0.0839844,-18.625,-5.5,-12.3125,-0.305571,-1.50145,1.43668
5420,1,-13,-16,-1,-2,-2,0,0,0.922852,-0.0620117,0.0839844,-18.625,-5.5,-12.3125,-0.305571,-1.50145,1.43668
5420,-13,15,6,-1,-1,-1,-3,-5,0.922852,-0.0620117,0.0839844,-18.625,-5.5,-12.3125,-0.305571,-1.50145,1.43668
5435,4,-10,-10,-2,-1,-1,7,0,0.978516,-0.0810547,0.0888672,-21.5625,-2.9375,-11.9375,-0.278883,-1.50203,1.40187
5435,5,-20,10,4,1,-2,-19,1,0.978516,-0.0810547,0.0888672,-21.5625,-2.9375,-11.9375,-0.278883,-1.50203,1.40187
5435,-4,-17,12,0,0,0,-4,7,0.978516,-0.0810547,0.0888672,-21.5625,-2.9375,-11.9375,-0.278883,-1.50203,1.40187
5435,-1,10,-12,-2,-3,-2,-5,-4,0.978516,-0.0810547,0.0888672,-21.5625,-2.9375,-11.9375,-0.278883,-1.50203,1.40187
5457,-2,23,5,-3,-5,-3,-4,-1,1.00049,-0.0795898,0.100098,-26.6875,2.4375,-13.375,-0.239356,-1.50082,1.35248
5457,-4,1,-18,2,0,-1,5,-2,1.00049,-0.0795898,0.100098,-26.6875,2.4375,-13.375,-0.239356,-1.50082,1.35248
5458,2,16,16,-6,-3,-2,-1,-3,1.00049,-0.0795898,0.100098,-26.6875,2.4375,-13.375,-0.239356,-1.50082,1.35248
5458,2,-10,-10,-5,-4,-3,-2,3,1.00049,-0.0795898,0.100098,-26.6875,2.4375,-13.375,-0.239356,-1.50082,1.35248
5479,-15,-31,-6,-4,-2,-4,-5,-8,0.996094,-0.0732422,0.09375,-31.9375,7.4375,-14.375,-0.191823,-1.49934,1.29433
5479,12,80,9,2,4,2,8,5,0.996094,-0.0732422,0.09375,-31.9375,7.4375,-14.375,-0.191823,-1.49934,1.29433
5480,-9,-58,-12,-1,0,1,-2,-6,0.996094,-0.0732422,0.09375,-31.9375,7.4375,-14.375,-0.191823,-1.49934,1.29433
5480,0,23,9,-2,2,-2,3,2,0.996094,-0.0732422,0.09375,-31.9375,7.4375,-14.375,-0.191823,-1.49934,1.29433
5494,5,30,-4,-2,-2,-1,0,1,0.972656,-0.0302734,0.0917969,-34.125,12,-14.125,-0.134967,-1.49518,1.22521
5494,5,38,4,-1,-1,0,-1,-3,0.972656,-0.0302734,0.0917969,-34.125,12,-14.125,-0.134967,-1.49518,1.22521
5495,-6,-66,-13,-2,-2,-3,0,-4,0.972656,-0.0302734,0.0917969,-34.125,12,-14.125,-0.134967,-1.49518,1.22521
5495,4,5,1,1,-2,0,-6,7,0.972656,-0.0302734,0.0917969,-34.125,12,-14.125,-0.134967,-1.49518,1.22521
5517,-1,0,-3,1,2,-1,10,-2,0.987793,0.0112305,0.0834961,-43.75,16.5,-15.75,-0.0686452,-1.48998,1.14334
5517,-5,-49,-8,-3,0,-2,-6,-28,0.987793,0.0112305,0.0834961,-43.75,16.5,-15.75,-0.0686452,-1.48998,1.14334
5517,3,-3,6,2,1,0,11,16,0.987793,0.0112305,0.0834961,-43.75,16.5,-15.75,-0.0686452,-1.48998,1.14334
5517,-1,18,-4,-1,1,-1,-13,-22,0.987793,0.0112305,0.0834961,-43.75,16.5,-15.75,-0.0686452,-1.48998,1.14334
5540,8,0,2,0,-1,-3,-11,5,1.04004,-0.0161133,0.126465,-50.375,17,-14.875,-0.0254179,-1.48355,1.08247
5540,-7,-9,0,-2,-2,-2,-4,9,1.04004,-0.0161133,0.126465,-50.375,17,-14.875,-0.0254179,-1.48355,1.08247
5540,6,41,-6,0,2,1,-15,-9,1.04004,-0.0161133,0.126465,-50.375,17,-14.875,-0.0254179,-1.48355,1.08247
5540,-10,-14,-5,-6,-7,-3,13,-19,1.04004,-0.0161133,0.126465,-50.375,17,-14.875,-0.0254179,-1.48355,1.08247
5554,2,2,3,3,3,1,2,1,1.08691,-0.0537109,0.12793,-55,15.9375,-12.6875,-0.00915307,-1.47663,1.04609
5554,-4,0,-2,-1,0,1,-7,-5,1.08691,-0.0537109,0.12793,-55,15.9375,-12.6875,-0.00915307,-1.47663,1.04609
5555,-3,2,-1,-2,-1,-2,21,21,1.08691,-0.0537109,0.12793,-55,15.9375,-12.6875,-0.00915307,-1.47663,1.04609
5555,16,14,11,6,3,2,2,20,1.08691,-0.0537109,0.12793,-55,15.9375,-12.6875,-0.00915307,-1.47663,1.04609
5577,-21,-34,-17,-3,0,1,7,-7,1.07861,-0.0708008,0.115723,-49.875,14.25,-11.1875,-0.00451296,-1.47162,1.024
5577,-2,1,6,-4,-5,-3,-3,4,1.07861,-0.0708008,0.115723,-49.875,14.25,-11.1875,-0.00451296,-1.47162,1.024
5577,-1,-12,-4,-3,-1,-1,-2,-1,1.07861,-0.0708008,0.115723,-49.875,14.25,-11.1875,-0.00451296,-1.47162,1.024
5577,3,18,0,0,1,1,2,13,1.07861,-0.0708008,0.115723,-49.875,14.25,-11.1875,-0.00451296,-1.47162,1.024
5599,3,-5,5,-1,-3,-3,-4,-26,1.06836,-0.0834961,0.0917969,-35.9375,11.75,-10.1875,-0.00166176,-1.46782,1.00817
5599,-4,-15,-8,0,1,0,1,-5,1.06836,-0.0834961,0.0917969,-35.9375,11.75,-10.1875,-0.00166176,-1.46782,1.00817
5600,-1,23,3,1,0,0,-5,-2,1.06836,-0.0834961,0.0917969,-35.9375,11.75,-10.1875,-0.00166176,-1.46782,1.00817
5600,-3,-7,-2,-2,-1,-3,0,-2,1.06836,-0.0834961,0.0917969,-35.9375,11.75,-10.1875,-0.00166176,-1.46782,1.00817
5622,2,3,0,0,0,0,-8,14,1.09717,-0.118164,0.0883789,-17.1875,7.375,-6.625,-0.0136179,-1.46607,1.01398
5622,-2,-11,-3,0,-3,-2,4,5,1.09717,-0.118164,0.0883789,-17.1875,7.375,-6.625,-0.0136179,-1.46607,1.01398
5623,4,9,0,-1,0,1,0,12,1.09717,-0.118164,0.0883789,-17.1875,7.375,-6.625,-0.0136179,-1.46607,1.01398
5623,0,2,0,-1,-5,-4,-7,-12,1.09717,-0.118164,0.0883789,-17.1875,7.375,-6.625,-0.0136179,-1.46607,1.01398
5637,-1,-14,0,-1,2,0,1,-1,1.15039,-0.108887,0.0581055,-9.25,4.25,-3.75,-0.0288903,-1.46595,1.02581
5637,1,24,1,-2,0,4,3,3,1.15039,-0.108887,0.0581055,-9.25,4.25,-3.75,-0.0288903,-1.46595,1.02581
5637,-10,-36,-1,-1,-2,-10,-3,-11,1.15039,-0.108887,0.0581055,-9.25,4.25,-3.75,-0.0288903,-1.46595,1.02581
5637,0,18,3,1,1,1,1,3,1.15039,-0.108887,0.0581055,-9.25,4.25,-3.75,-0.0288903,-1.46595,1.02581
5659,11,-7,-3,-2,-3,-3,-3,3,1.14062,-0.0581055,0.0205078,-7.125,1.375,-2.125,-0.0376573,-1.46791,1.03215
5659,-1,3,0,-2,-3,-3,2,-3,1.14062,-0.0581055,0.0205078,-7.125,1.375,-2.125,-0.0376573,-1.46791,1.03215
5660,3,8,-1,1,0,0,-11,7,1.14062,-0.0581055,0.0205078,-7.125,1.375,-2.125,-0.0376573,-1.46791,1.03215
5660,-10,-33,-7,-2,0,1,-4,-4,1.14062,-0.0581055,0.0205078,-7.125,1.375,-2.125,-0.0376573,-1.46791,1.03215
5675,3,-1,3,0,-1,-1,2,-9,1.10986,-0.0205078,0.0678711,1.25,-1.9375,-1.25,-0.0384,-1.46971,1.0332
5675,2,-1,-2,-1,-1,1,3,15,1.10986,-0.0205078,0.0678711,1.25,-1.9375,-1.25,-0.0384,-1.46971,1.0332
5675,-4,-3,-2,1,1,3,-4,-18,1.10986,-0.0205078,0.0678711,1.25,-1.9375,-1.25,-0.0384,-1.46971,1.0332
5675,0,5,0,-2,-3,-4,-6,-14,1.10986,-0.0205078,0.0678711,1.25,-1.9375,-1.25,-0.0384,-1.46971,1.0332
5697,-4,12,-1,-2,-3,-2,-6,13,1.11279,-0.0961914,-0.0244141,3.8125,-2.9375,2.75,-0.0697762,-1.47415,1.06625
5697,-2,-38,-3,0,-1,-1,3,3,1.11279,-0.0961914,-0.0244141,3.8125,-2.9375,2.75,-0.0697762,-1.47415,1.06625
5698,-3,14,-3,-3,-2,0,-7,-14,1.11279,-0.0961914,-0.0244141,3.8125,-2.9375,2.75,-0.0697762,-1.47415,1.06625
5698,6,1,-1,-1,1,0,12,-1,1.11279,-0.0961914,-0.0244141,3.8125,-2.9375,2.75,-0.0697762,-1.47415,1.06625
5711,-20,-5,-4,-4,-1,1,-6,48,1.11035,-0.102539,-0.149902,5.625,-0.0625,9.25,-0.132407,-1.47893,1.13017
5711,0,6,1,1,-1,-4,-9,-31,1.11035,-0.102539,-0.149902,5.625,-0.0625,9.25,-0.132407,-1.47893,1.13017
5719,-4,3,1,-1,-2,1,3,-18,1.11035,-0.102539,-0.149902,5.625,-0.0625,9.25,-0.132407,-1.47893,1.13017
5719,-2,2,-3,0,-2,-2,-7,2,1.11035,-0.102539,-0.149902,5.625,-0.0625,9.25,-0.132407,-1.47893,1.13017
5735,0,-9,2,0,-1,0,0,-23,1.14844,0.0449219,-0.209473,-4.25,-12,7.8125,-0.168115,-1.49077,1.16493
5735,2,8,0,0,-1,-3,-5,-3,1.14844,0.0449219,-0.209473,-4.25,-12,7.8125,-0.168115,-1.49077,1.16493
5735,-4,-2,-4,-4,-2,-8,5,-9,1.14844,0.0449219,-0.209473,-4.25,-12,7.8125,-0.168115,-1.49077,1.16493
5735,-5,-5,-3,-2,0,6,3,33,1.14844,0.0449219,-0.209473,-4.25,-12,7.8125,-0.168115,-1.49077,1.16493
5756,1,-5,-1,1,-4,-4,6,-16,1.20752,0.128906,-0.150879,-28.1875,-19.875,-6.9375,-0.124396,-1.50491,1.1121
5756,-2,2,0,-1,-1,0,-1,17,1.20752,0.128906,-0.150879,-28.1875,-19.875,-6.9375,-0.124396,-1.50491,1.1121
5757,13,45,11,5,-1,0,-3,8,1.20752,0.128906,-0.150879,-28.1875,-19.875,-6.9375,-0.124396,-1.50491,1.1121
5757,-16,-21,-8,-1,-1,-3,35,-8,1.20752,0.128906,-0.150879,-28.1875,-19.875,-6.9375,-0.124396,-1.50491,1.1121
5779,5,-25,2,-1,-3,-10,-55,-42,1.09766,0.0795898,0.097168,-33.9375,-11.4375,-8.1875,-0.065142,-1.50728,1.03993
5779,-1,5,-5,-4,-3,9,5,6,1.09766,0.0795898,0.097168,-33.9375,-11.4375,-8.1875,-0.065142,-1.50728,1.03993
5780,-7,-22,-7,-4,-2,-3,2,-4,1.09766,0.0795898,0.097168,-33.9375,-11.4375,-8.1875,-0.065142,-1.50728,1.03993
5780,5,32,6,2,0,-3,6,9,1.09766,0.0795898,0.097168,-33.9375,-11.4375,-8.1875,-0.065142,-1.50728,1.03993
5794,-5,-19,-5,-1,22,-12,2,-6,1.00879,-0.165527,0.0864258,-23.625,-13.8125,5.25,-0.172903,-1.51242,1.14059
5794,-3,-34,-13,1,-14,-2,-15,-17,1.00879,-0.165527,0.0864258,-23.625,-13.8125,5.25,-0.172903,-1.51242,1.14059
5795,5,7,2,-12,-24,-17,17,7,1.00879,-0.165527,0.0864258,-23.625,-13.8125,5.25,-0.172903,-1.51242,1.14059
5795,2,7,2,-12,-13,-13,-38,12,1.00879,-0.165527,0.0864258,-23.625,-13.8125,5.25,-0.172903,-1.51242,1.14059
5816,9,13,12,28,39,16,7,46,0.994629,-0.0219727,0.106934,-27.75,-10.9375,3.9375,-0.21826,-1.51335,1.1755
5816,11,-46,-1,-1,-34,94,42,-2,0.994629,-0.0219727,0.106934,-27.75,-10.9375,3.9375,-0.21826,-1.51335,1.1755
5817,-2,-6,-2,-5,-10,-7,-4,-6,0.994629,-0.0219727,0.106934,-27.75,-10.9375,3.9375,-0.21826,-1.51335,1.1755
5817,-11,21,4,-11,-39,4,-24,-56,0.994629,-0.0219727,0.106934,-27.75,-10.9375,3.9375,-0.21826,-1.51335,1.1755
5840,15,15,3,-6,6,-11,-4,46,1.04053,-0.00830078,0.0385742,31.25,-13.75,4.0625,-0.251145,-1.51851,1.21964
5840,-9,-20,-11,6,21,-33,9,14,1.04053,-0.00830078,0.0385742,31.25,-13.75,4.0625,-0.251145,-1.51851,1.21964
5840,-1,-10,-7,-2,-6,8,-41,0,1.04053,-0.00830078,0.0385742,31.25,-13.75,4.0625,-0.251145,-1.51851,1.21964
5840,5,-12,1,6,20,-16,14,24,1.04053,-0.00830078,0.0385742,31.25,-13.75,4.0625,-0.251145,-1.51851,1.21964
5854,-6,27,-5,2,2,-48,13,-48,1.09375,-0.0712891,0.0927734,23.5625,2,4.3125,-0.285558,-1.51644,1.26242
5854,-7,5,8,-21,7,-29,-7,17,1.09375,-0.0712891,0.0927734,23.5625,2,4.3125,-0.285558,-1.51644,1.26242
5854,3,-33,-18,-38,-35,28,6,0,1.09375,-0.0712891,0.0927734,23.5625,2,4.3125,-0.285558,-1.51644,1.26242
5854,-2,-9,-2,30,75,-12,-76,-16,1.09375,-0.0712891,0.0927734,23.5625,2,4.3125,-0.285558,-1.51644,1.26242
5880,-2,4,14,39,-49,41,89,11,1.17822,-0.125977,0.0830078,-4.5625,20.6875,16.1875,-0.372406,-1.50635,1.34747
