0,29,2,-10,-3,-3,0,1,3,0.969238,-0.205566,0.394043,74.5,-10.9375,49.25,-0.337927,-1.26484,1.99242
0,1,-8,5,7,4,-1,-2,8,0.969238,-0.205566,0.394043,74.5,-10.9375,49.25,-0.337927,-1.26484,1.99242
0,1,-54,-31,8,5,2,0,-9,0.969238,-0.205566,0.394043,74.5,-10.9375,49.25,-0.337927,-1.26484,1.99242
0,-10,48,3,-11,-7,-5,-7,-11,0.969238,-0.205566,0.394043,74.5,-10.9375,49.25,-0.337927,-1.26484,1.99242
1,12,5,20,-2,0,1,-2,1,0.969238,-0.205566,0.394043,74.5,-10.9375,49.25,-0.337927,-1.26484,1.99242
1,9,8,7,2,-3,0,2,1,0.969238,-0.205566,0.394043,74.5,-10.9375,49.25,-0.337927,-1.26484,1.99242
1,11,-11,-15,-4,-2,1,0,7,0.969238,-0.205566,0.394043,74.5,-10.9375,49.25,-0.337927,-1.26484,1.99242
1,11,1,5,2,2,1,1,5,0.969238,-0.205566,0.394043,74.5,-10.9375,49.25,-0.337927,-1.26484,1.99242
6,17,-11,1,-11,-5,-3,1,-2,0.9375,-0.208008,0.387207,92.625,-10.0625,53.75,-0.369345,-1.25845,2.05882
6,-31,-20,-12,-4,-2,-1,-2,-4,0.9375,-0.208008,0.387207,92.625,-10.0625,53.75,-0.369345,-1.25845,2.05882
7,-6,-9,-6,-1,0,-1,-4,-1,0.9375,-0.208008,0.387207,92.625,-10.0625,53.75,-0.369345,-1.25845,2.05882
7,0,-9,19,1,0,-1,-1,-2,0.9375,-0.208008,0.387207,92.625,-10.0625,53.75,-0.369345,-1.25845,2.05882
15,-16,41,13,2,-1,-1,0,-6,0.924316,-0.204102,0.38916,107,-11.75,59.5,-0.396923,-1.25408,2.12728
15,27,-5,8,2,0,3,1,1,0.924316,-0.204102,0.38916,107,-11.75,59.5,-0.396923,-1.25408,2.12728
20,-1,-5,-13,-3,0,-1,0,2,0.924316,-0.204102,0.38916,107,-11.75,59.5,-0.396923,-1.25408,2.12728
20,-3,17,-25,-1,1,1,2,-5,0.924316,-0.204102,0.38916,107,-11.75,59.5,-0.396923,-1.25408,2.12728
31,10,-3,3,0,-1,-3,-1,5,0.935547,-0.20459,0.350098,111.75,-12.5625,60.75,-0.422841,-1.2489,2.19552
31,1,-15,20,6,-2,-2,0,-6,0.935547,-0.20459,0.350098,111.75,-12.5625,60.75,-0.422841,-1.2489,2.19552
50,-4,41,44,11,1,2,1,-2,0.935547,-0.20459,0.350098,111.75,-12.5625,60.75,-0.422841,-1.2489,2.19552
50,10,-38,-76,-21,-5,-5,-4,0,0.935547,-0.20459,0.350098,111.75,-12.5625,60.75,-0.422841,-1.2489,2.19552
67,-2,-6,17,-1,0,-1,-1,1,0.953613,-0.185059,0.325684,114,-11.375,60.1875,-0.445386,-1.24338,2.26115
67,-9,-5,-22,-5,-4,-6,-2,-3,0.953613,-0.185059,0.325684,114,-11.375,60.1875,-0.445386,-1.24338,2.26115
98,3,37,6,-4,2,0,0,-1,0.976562,-0.200684,0.310059,100.688,-5.1875,53.1875,-0.479929,-1.23049,2.37481
98,-13,-67,-14,-21,-6,-6,-3,-8,0.976562,-0.200684,0.310059,100.688,-5.1875,53.1875,-0.479929,-1.23049,2.37481
98,1,-15,-19,6,1,2,-2,-1,0.976562,-0.200684,0.310059,100.688,-5.1875,53.1875,-0.479929,-1.23049,2.37481
98,9,0,-3,4,0,0,0,4,0.976562,-0.200684,0.310059,100.688,-5.1875,53.1875,-0.479929,-1.23049,2.37481
99,-4,23,-1,0,-3,-1,-2,-7,0.976562,-0.200684,0.310059,100.688,-5.1875,53.1875,-0.479929,-1.23049,2.37481
99,-6,3,-9,4,1,0,3,-2,0.976562,-0.200684,0.310059,100.688,-5.1875,53.1875,-0.479929,-1.23049,2.37481
101,6,32,7,-2,-1,-1,0,-1,0.976562,-0.200684,0.310059,100.688,-5.1875,53.1875,-0.479929,-1.23049,2.37481
101,-10,-15,19,-2,-6,-3,-3,-1,0.976562,-0.200684,0.310059,100.688,-5.1875,53.1875,-0.479929,-1.23049,2.37481
119,4,-15,12,1,1,2,0,4,0.976562,-0.200684,0.310059,100.688,-5.1875,53.1875,-0.479929,-1.23049,2.37481
119,10,-2,-20,-8,-2,-2,-4,-3,0.976562,-0.200684,0.310059,100.688,-5.1875,53.1875,-0.479929,-1.23049,2.37481
120,-21,-20,-5,-3,-2,-3,-3,-7,0.969727,-0.146973,0.29834,92.0625,1.125,50.5625,-0.489963,-1.22236,2.41968
120,6,16,1,7,2,1,0,-1,0.969727,-0.146973,0.29834,92.0625,1.125,50.5625,-0.489963,-1.22236,2.41968
124,1,4,0,-3,-2,-1,1,0,0.969727,-0.146973,0.29834,92.0625,1.125,50.5625,-0.489963,-1.22236,2.41968
124,2,20,19,-1,-3,-1,0,0,0.969727,-0.146973,0.29834,92.0625,1.125,50.5625,-0.489963,-1.22236,2.41968
148,2,-15,-1,1,0,-4,-3,2,0.973145,-0.124023,0.269531,79.4375,4.8125,47.75,-0.498555,-1.21465,2.4586
148,-2,-7,17,5,2,2,1,-2,0.973145,-0.124023,0.269531,79.4375,4.8125,47.75,-0.498555,-1.21465,2.4586
148,-5,-11,-39,-8,-2,-2,-1,-2,0.973145,-0.124023,0.269531,79.4375,4.8125,47.75,-0.498555,-1.21465,2.4586
148,7,13,23,4,3,2,1,-1,0.973145,-0.124023,0.269531,79.4375,4.8125,47.75,-0.498555,-1.21465,2.4586
161,1,-10,1,-2,1,-1,0,-2,0.939453,-0.074707,0.292969,56.3125,9.375,40.6875,-0.502326,-1.20619,2.48443
161,0,11,17,-3,-2,-2,0,-2,0.939453,-0.074707,0.292969,56.3125,9.375,40.6875,-0.502326,-1.20619,2.48443
170,-1,10,-9,2,-1,-2,-1,-1,0.939453,-0.074707,0.292969,56.3125,9.375,40.6875,-0.502326,-1.20619,2.48443
170,5,14,-1,-1,-3,0,1,3,0.939453,-0.074707,0.292969,56.3125,9.375,40.6875,-0.502326,-1.20619,2.48443
185,4,-2,2,-1,-3,-2,0,-2,0.908691,-0.116211,0.257324,27.625,12.5,30.625,-0.509606,-1.19889,2.5028
185,6,-1,-14,-3,-2,-2,-3,-3,0.908691,-0.116211,0.257324,27.625,12.5,30.625,-0.509606,-1.19889,2.5028
185,12,5,8,-4,-1,-2,-1,-1,0.908691,-0.116211,0.257324,27.625,12.5,30.625,-0.509606,-1.19889,2.5028
185,8,14,-9,-4,-1,-1,-1,-2,0.908691,-0.116211,0.257324,27.625,12.5,30.625,-0.509606,-1.19889,2.5028
208,5,3,5,1,0,2,-1,-1,0.88623,-0.169434,0.294922,9.9375,14.875,24.875,-0.518944,-1.19044,2.51656
208,-3,-10,-23,-3,-2,0,-2,-1,0.88623,-0.169434,0.294922,9.9375,14.875,24.875,-0.518944,-1.19044,2.51656
208,5,3,4,-3,-2,-2,-2,0,0.88623,-0.169434,0.294922,9.9375,14.875,24.875,-0.518944,-1.19044,2.51656
208,3,2,6,5,-1,0,0,2,0.88623,-0.169434,0.294922,9.9375,14.875,24.875,-0.518944,-1.19044,2.51656
221,2,-2,4,0,0,-1,0,-1,0.89209,-0.167969,0.309082,5.3125,16.625,13.8125,-0.519882,-1.18316,2.51958
221,0,-4,-15,-6,-2,-2,-1,0,0.89209,-0.167969,0.309082,5.3125,16.625,13.8125,-0.519882,-1.18316,2.51958
229,1,-6,3,1,0,0,-3,-1,0.89209,-0.167969,0.309082,5.3125,16.625,13.8125,-0.519882,-1.18316,2.51958
229,0,7,2,3,-1,-1,-2,-1,0.89209,-0.167969,0.309082,5.3125,16.625,13.8125,-0.519882,-1.18316,2.51958
253,3,-1,-1,-1,-1,1,-1,-1,0.894531,-0.116699,0.337891,-2.875,21.5625,6.75,-0.512502,-1.17596,2.5113
253,4,-5,-9,-3,-3,-4,-1,-2,0.894531,-0.116699,0.337891,-2.875,21.5625,6.75,-0.512502,-1.17596,2.5113
254,1,-7,-1,-4,-3,-2,-1,-3,0.894531,-0.116699,0.337891,-2.875,21.5625,6.75,-0.512502,-1.17596,2.5113
254,1,6,2,-1,-1,-1,-1,0,0.894531,-0.116699,0.337891,-2.875,21.5625,6.75,-0.512502,-1.17596,2.5113
270,1,1,4,2,0,-1,-2,-1,0.874023,-0.081543,0.388672,-13.1875,23.625,-3.75,-0.497735,-1.16907,2.49141
270,-3,3,-7,-4,0,-1,0,-1,0.874023,-0.081543,0.388672,-13.1875,23.625,-3.75,-0.497735,-1.16907,2.49141
270,-2,7,5,3,-1,0,0,0,0.874023,-0.081543,0.388672,-13.1875,23.625,-3.75,-0.497735,-1.16907,2.49141
270,-2,-2,-6,1,-1,-1,-1,-1,0.874023,-0.081543,0.388672,-13.1875,23.625,-3.75,-0.497735,-1.16907,2.49141
282,7,-4,-6,-3,-1,-1,0,0,0.850098,-0.0888672,0.379883,-37.3125,19.5,-9.75,-0.489889,-1.16465,2.46989
282,14,3,0,1,-2,-3,-1,-2,0.850098,-0.0888672,0.379883,-37.3125,19.5,-9.75,-0.489889,-1.16465,2.46989
298,16,-3,-2,-1,0,0,-1,-1,0.850098,-0.0888672,0.379883,-37.3125,19.5,-9.75,-0.489889,-1.16465,2.46989
298,10,-9,-2,-1,0,-2,1,-2,0.850098,-0.0888672,0.379883,-37.3125,19.5,-9.75,-0.489889,-1.16465,2.46989
305,-2,5,-3,-1,-1,0,-1,1,0.845215,-0.134766,0.379883,-52.1875,15.125,-17.9375,-0.485811,-1.16199,2.44625
305,-11,-5,1,0,0,-1,-1,0,0.845215,-0.134766,0.379883,-52.1875,15.125,-17.9375,-0.485811,-1.16199,2.44625
306,-14,-1,-3,-3,-2,-2,-2,1,0.845215,-0.134766,0.379883,-52.1875,15.125,-17.9375,-0.485811,-1.16199,2.44625
306,-9,-2,-1,1,0,-1,-1,0,0.845215,-0.134766,0.379883,-52.1875,15.125,-17.9375,-0.485811,-1.16199,2.44625
327,-7,-2,-1,2,-3,-2,-2,0,0.84668,-0.180176,0.38623,-58.4375,9.5625,-22.9375,-0.485133,-1.16156,2.42339
327,-12,-1,0,-2,-1,1,-1,-2,0.84668,-0.180176,0.38623,-58.4375,9.5625,-22.9375,-0.485133,-1.16156,2.42339
328,-11,0,0,-1,0,0,-1,-1,0.84668,-0.180176,0.38623,-58.4375,9.5625,-22.9375,-0.485133,-1.16156,2.42339
328,-10,5,0,0,-1,0,-1,0,0.84668,-0.180176,0.38623,-58.4375,9.5625,-22.9375,-0.485133,-1.16156,2.42339
341,-20,-11,-12,-4,-1,-2,-2,-1,0.855469,-0.189453,0.408691,-58,2.4375,-30.3125,-0.481185,-1.16369,2.39734
341,-9,0,3,0,0,-1,-1,-2,0.855469,-0.189453,0.408691,-58,2.4375,-30.3125,-0.481185,-1.16369,2.39734
350,-7,-1,2,-3,-2,0,-1,-1,0.855469,-0.189453,0.408691,-58,2.4375,-30.3125,-0.481185,-1.16369,2.39734
350,-9,0,-2,-2,-1,-2,-1,-2,0.855469,-0.189453,0.408691,-58,2.4375,-30.3125,-0.481185,-1.16369,2.39734
373,-2,-1,4,-2,0,-1,-2,0,0.838867,-0.210938,0.401367,-51.3125,-6.625,-36.4375,-0.475501,-1.16965,2.37166
373,-8,1,-1,-1,-2,-1,-1,-2,0.838867,-0.210938,0.401367,-51.3125,-6.625,-36.4375,-0.475501,-1.16965,2.37166
373,-10,0,-1,0,0,-2,-1,0,0.838867,-0.210938,0.401367,-51.3125,-6.625,-36.4375,-0.475501,-1.16965,2.37166
373,-2,0,-2,0,-1,0,-1,1,0.838867,-0.210938,0.401367,-51.3125,-6.625,-36.4375,-0.475501,-1.16965,2.37166
396,-1,1,-3,0,-1,0,1,0,0.85791,-0.200684,0.352539,-46.1875,-13.0625,-41.0625,-0.46705,-1.1787,2.34481
396,-2,2,-2,-2,-1,-1,-2,0,0.85791,-0.200684,0.352539,-46.1875,-13.0625,-41.0625,-0.46705,-1.1787,2.34481
396,-4,1,1,2,-1,-1,0,-1,0.85791,-0.200684,0.352539,-46.1875,-13.0625,-41.0625,-0.46705,-1.1787,2.34481
396,-8,3,1,0,-1,0,-2,-1,0.85791,-0.200684,0.352539,-46.1875,-13.0625,-41.0625,-0.46705,-1.1787,2.34481
411,-4,-1,0,0,-5,-4,0,-1,0.916504,-0.206055,0.344727,-32.1875,-20.9375,-47.5,-0.451894,-1.19169,2.31597
411,-9,1,-6,-3,-2,-2,-3,0,0.916504,-0.206055,0.344727,-32.1875,-20.9375,-47.5,-0.451894,-1.19169,2.31597
411,-5,2,-1,-1,-2,0,-2,-1,0.916504,-0.206055,0.344727,-32.1875,-20.9375,-47.5,-0.451894,-1.19169,2.31597
411,-3,-1,-1,-2,-2,-3,0,-1,0.916504,-0.206055,0.344727,-32.1875,-20.9375,-47.5,-0.451894,-1.19169,2.31597
425,-2,-2,-2,-1,0,0,-1,-3,0.956543,-0.201172,0.329102,-25.0625,-26.1875,-52.0625,-0.431579,-1.20746,2.28434
425,1,2,2,-1,-1,-3,0,1,0.956543,-0.201172,0.329102,-25.0625,-26.1875,-52.0625,-0.431579,-1.20746,2.28434
425,-5,-1,3,-2,-2,-1,-3,0,0.956543,-0.201172,0.329102,-25.0625,-26.1875,-52.0625,-0.431579,-1.20746,2.28434
425,-4,-1,-9,-1,2,0,-1,-1,0.956543,-0.201172,0.329102,-25.0625,-26.1875,-52.0625,-0.431579,-1.20746,2.28434
447,-3,2,1,-2,-1,-1,2,0,1.01221,-0.189453,0.350586,-16.8125,-34.25,-52.9375,-0.407441,-1.22496,2.25209
447,-4,1,-3,-1,-1,1,0,-1,1.01221,-0.189453,0.350586,-16.8125,-34.25,-52.9375,-0.407441,-1.22496,2.25209
449,-4,3,1,-2,-2,-1,0,-2,1.01221,-0.189453,0.350586,-16.8125,-34.25,-52.9375,-0.407441,-1.22496,2.25209
449,-6,2,1,0,-3,0,-2,-1,1.01221,-0.189453,0.350586,-16.8125,-34.25,-52.9375,-0.407441,-1.22496,2.25209
471,-3,-2,-2,-1,-1,-2,0,0,1.03516,-0.147461,0.282227,-11.5,-41.1875,-53.375,-0.380454,-1.24618,2.21891
471,-3,0,-5,-2,-1,2,0,-1,1.03516,-0.147461,0.282227,-11.5,-41.1875,-53.375,-0.380454,-1.24618,2.21891
471,-3,3,-2,-2,-1,-1,0,-1,1.03516,-0.147461,0.282227,-11.5,-41.1875,-53.375,-0.380454,-1.24618,2.21891
471,-1,1,1,-1,-2,-1,1,-1,1.03516,-0.147461,0.282227,-11.5,-41.1875,-53.375,-0.380454,-1.24618,2.21891
484,0,2,1,-2,-2,-1,-2,-1,1.03076,-0.0117188,0.197754,-15.8125,-40.875,-47.25,-0.349389,-1.26842,2.18092
484,0,4,2,1,-2,-1,-2,0,1.03076,-0.0117188,0.197754,-15.8125,-40.875,-47.25,-0.349389,-1.26842,2.18092
493,-4,0,0,1,-2,-1,-1,-2,0.97168,0.100586,0.161133,-21.0625,-34.1875,-44.1875,-0.309191,-1.28868,2.13232
493,-5,-1,-1,-1,-2,0,-2,-1,0.97168,0.100586,0.161133,-21.0625,-34.1875,-44.1875,-0.309191,-1.28868,2.13232
508,-2,1,-2,0,-2,-1,-1,1,0.97168,0.100586,0.161133,-21.0625,-34.1875,-44.1875,-0.309191,-1.28868,2.13232
508,-1,1,-2,-2,1,-2,0,-1,0.97168,0.100586,0.161133,-21.0625,-34.1875,-44.1875,-0.309191,-1.28868,2.13232
510,-1,0,-4,-1,0,-2,0,-1,0.921875,0.158203,0.159668,-36.1875,-26.1875,-42,-0.263641,-1.30448,2.07299
510,0,-2,-1,-1,-3,-2,-1,1,0.921875,0.158203,0.159668,-36.1875,-26.1875,-42,-0.263641,-1.30448,2.07299
530,1,-1,-1,-2,1,1,-2,-2,0.921875,0.158203,0.159668,-36.1875,-26.1875,-42,-0.263641,-1.30448,2.07299
530,2,0,-1,-1,0,-2,-1,-1,0.921875,0.158203,0.159668,-36.1875,-26.1875,-42,-0.263641,-1.30448,2.07299
532,3,-1,-3,-1,0,-2,-2,-2,0.879395,0.161133,0.172852,-45.5625,-19.5,-36.1875,-0.22123,-1.3168,2.01412
532,3,0,-1,0,1,-1,1,-1,0.879395,0.161133,0.172852,-45.5625,-19.5,-36.1875,-0.22123,-1.3168,2.01412
545,1,0,-3,-2,-1,0,-1,-1,0.879395,0.161133,0.172852,-45.5625,-19.5,-36.1875,-0.22123,-1.3168,2.01412
545,0,1,3,-2,-1,-1,-1,0,0.879395,0.161133,0.172852,-45.5625,-19.5,-36.1875,-0.22123,-1.3168,2.01412
553,-1,0,0,0,-2,-1,-1,0,0.895508,0.117676,0.171875,-45.3125,-14.5,-31.625,-0.184339,-1.32588,1.96046
553,2,0,-1,0,-1,0,-3,0,0.895508,0.117676,0.171875,-45.3125,-14.5,-31.625,-0.184339,-1.32588,1.96046
575,3,2,2,3,0,1,0,-2,0.895508,0.117676,0.171875,-45.3125,-14.5,-31.625,-0.184339,-1.32588,1.96046
575,2,0,-1,-1,0,1,1,-2,0.895508,0.117676,0.171875,-45.3125,-14.5,-31.625,-0.184339,-1.32588,1.96046
577,5,-1,-1,-1,-2,-1,0,-1,0.907715,0.109863,0.200195,-45.3125,-9.25,-30.25,-0.145621,-1.33175,1.9052
577,2,0,-3,-3,-1,-1,0,-2,0.907715,0.109863,0.200195,-45.3125,-9.25,-30.25,-0.145621,-1.33175,1.9052
592,0,-2,-2,0,0,-1,-2,0,0.907715,0.109863,0.200195,-45.3125,-9.25,-30.25,-0.145621,-1.33175,1.9052
592,2,-3,0,0,0,-2,-2,0,0.907715,0.109863,0.200195,-45.3125,-9.25,-30.25,-0.145621,-1.33175,1.9052
592,-1,0,-2,-1,-1,-1,-1,-2,0.908691,0.0742188,0.237305,-44.125,-7.9375,-27.875,-0.112244,-1.33572,1.8558
592,1,-2,-2,1,0,-1,-1,-3,0.908691,0.0742188,0.237305,-44.125,-7.9375,-27.875,-0.112244,-1.33572,1.8558
604,0,-3,0,-3,-1,-1,0,0,0.908691,0.0742188,0.237305,-44.125,-7.9375,-27.875,-0.112244,-1.33572,1.8558
604,-2,2,-5,-2,-2,-1,0,0,0.908691,0.0742188,0.237305,-44.125,-7.9375,-27.875,-0.112244,-1.33572,1.8558
614,4,-2,1,-2,-2,-2,2,1,0.908691,0.0556641,0.255371,-39.1875,-7.375,-23.9375,-0.0838906,-1.33796,1.81274
614,-1,-3,2,0,-1,-1,-2,0,0.908691,0.0556641,0.255371,-39.1875,-7.375,-23.9375,-0.0838906,-1.33796,1.81274
628,-2,-1,-2,2,-5,-1,-2,-2,0.908691,0.0556641,0.255371,-39.1875,-7.375,-23.9375,-0.0838906,-1.33796,1.81274
628,1,-1,0,1,-2,-1,-2,0,0.908691,0.0556641,0.255371,-39.1875,-7.375,-23.9375,-0.0838906,-1.33796,1.81274
629,0,-1,-1,1,0,-1,-2,0,0.915527,0.0571289,0.259766,-38.25,-6,-22,-0.0575323,-1.3398,1.77249
629,-1,-1,0,-1,-1,-1,-2,0,0.915527,0.0571289,0.259766,-38.25,-6,-22,-0.0575323,-1.3398,1.77249
651,-1,-3,-4,-1,0,-1,0,0,0.915527,0.0571289,0.259766,-38.25,-6,-22,-0.0575323,-1.3398,1.77249
651,4,2,4,0,-1,1,0,2,0.915527,0.0571289,0.259766,-38.25,-6,-22,-0.0575323,-1.3398,1.77249
652,-9,-5,-4,-3,-2,-2,-3,-4,0.907715,0.0541992,0.284668,-33.5,-5.8125,-18,-0.0359318,-1.34047,1.73859
652,-2,-2,-1,0,0,-3,-1,-2,0.907715,0.0541992,0.284668,-33.5,-5.8125,-18,-0.0359318,-1.34047,1.73859
674,-2,1,-2,1,-1,-1,-1,-1,0.907715,0.0541992,0.284668,-33.5,-5.8125,-18,-0.0359318,-1.34047,1.73859
674,0,0,0,0,-1,-1,1,-1,0.907715,0.0541992,0.284668,-33.5,-5.8125,-18,-0.0359318,-1.34047,1.73859
676,0,1,-1,0,1,-1,1,-1,0.883789,0.0849609,0.258789,-27.75,-3.9375,-14.875,-0.0140613,-1.34075,1.70671
676,-1,1,-1,-1,-1,-1,-1,-2,0.883789,0.0849609,0.258789,-27.75,-3.9375,-14.875,-0.0140613,-1.34075,1.70671
687,1,-3,1,-3,-2,-1,-3,-1,0.883789,0.0849609,0.258789,-27.75,-3.9375,-14.875,-0.0140613,-1.34075,1.70671
687,-2,-2,-3,0,-2,-2,-1,-2,0.883789,0.0849609,0.258789,-27.75,-3.9375,-14.875,-0.0140613,-1.34075,1.70671
696,3,-2,-3,-1,-1,1,-2,-1,0.818359,0.10498,0.273926,-31.25,-3,-13.4375,0.00644506,-1.33988,1.67511
696,1,-2,-3,-1,-1,0,0,0,0.818359,0.10498,0.273926,-31.25,-3,-13.4375,0.00644506,-1.33988,1.67511
710,1,1,-4,-1,-1,-1,0,-1,0.818359,0.10498,0.273926,-31.25,-3,-13.4375,0.00644506,-1.33988,1.67511
710,-3,-2,-3,-2,-2,0,-3,-2,0.818359,0.10498,0.273926,-31.25,-3,-13.4375,0.00644506,-1.33988,1.67511
712,-2,3,-1,-2,-1,1,-2,0,0.763672,0.0883789,0.279297,-31.6875,-5.375,-9.75,0.0189786,-1.3397,1.65176
712,1,0,0,1,-1,-1,-1,-1,0.763672,0.0883789,0.279297,-31.6875,-5.375,-9.75,0.0189786,-1.3397,1.65176
725,-2,-2,1,-2,-1,-2,1,-1,0.763672,0.0883789,0.279297,-31.6875,-5.375,-9.75,0.0189786,-1.3397,1.65176
725,-2,1,-8,-2,-1,-2,-1,0,0.763672,0.0883789,0.279297,-31.6875,-5.375,-9.75,0.0189786,-1.3397,1.65176
733,2,1,1,1,0,-1,-1,-1,0.741699,0.0869141,0.26123,-23.6875,-7.375,-4.5625,0.026227,-1.33952,1.63577
733,-1,-1,-3,-4,-2,-1,0,-2,0.741699,0.0869141,0.26123,-23.6875,-7.375,-4.5625,0.026227,-1.33952,1.63577
748,0,0,2,0,0,-3,-1,1,0.741699,0.0869141,0.26123,-23.6875,-7.375,-4.5625,0.026227,-1.33952,1.63577
748,-2,-4,1,0,-2,-2,-3,-2,0.741699,0.0869141,0.26123,-23.6875,-7.375,-4.5625,0.026227,-1.33952,1.63577
749,5,3,1,1,0,-1,2,2,0.702637,0.0830078,0.251465,-15.4375,-7.5,-1.875,0.0320442,-1.34035,1.62498
749,0,-1,-2,0,1,-2,-2,-2,0.702637,0.0830078,0.251465,-15.4375,-7.5,-1.875,0.0320442,-1.34035,1.62498
778,1,-3,-5,-1,-1,0,-1,0,0.702637,0.0830078,0.251465,-15.4375,-7.5,-1.875,0.0320442,-1.34035,1.62498
778,-1,2,-2,-3,-1,-1,-1,-4,0.702637,0.0830078,0.251465,-15.4375,-7.5,-1.875,0.0320442,-1.34035,1.62498
779,1,1,2,-1,-2,0,0,0,0.674316,0.102051,0.248047,-14.9375,-6.9375,0.1875,0.0367154,-1.34035,1.61511
779,1,1,6,1,-1,-3,-1,1,0.674316,0.102051,0.248047,-14.9375,-6.9375,0.1875,0.0367154,-1.34035,1.61511
784,-3,-4,-6,-2,-1,-1,-1,-1,0.674316,0.102051,0.248047,-14.9375,-6.9375,0.1875,0.0367154,-1.34035,1.61511
784,0,1,1,0,-1,0,0,-1,0.674316,0.102051,0.248047,-14.9375,-6.9375,0.1875,0.0367154,-1.34035,1.61511
793,0,-1,-6,-3,0,0,-2,-3,0.632812,0.0913086,0.250977,-18.1875,-9.1875,1.625,0.0371855,-1.341,1.60865
793,0,1,-1,-1,0,0,1,0,0.632812,0.0913086,0.250977,-18.1875,-9.1875,1.625,0.0371855,-1.341,1.60865
808,0,-5,-1,-1,1,-1,-1,-2,0.632812,0.0913086,0.250977,-18.1875,-9.1875,1.625,0.0371855,-1.341,1.60865
808,-4,1,0,-3,-1,-1,-2,-2,0.632812,0.0913086,0.250977,-18.1875,-9.1875,1.625,0.0371855,-1.341,1.60865
809,2,3,11,0,-2,0,-2,2,0.638672,0.0605469,0.234863,-16.6875,-11.8125,3.6875,0.0322652,-1.34331,1.60826
809,-1,2,-10,-4,-3,0,-2,-1,0.638672,0.0605469,0.234863,-16.6875,-11.8125,3.6875,0.0322652,-1.34331,1.60826
831,1,4,1,0,-1,0,-1,1,0.638672,0.0605469,0.234863,-16.6875,-11.8125,3.6875,0.0322652,-1.34331,1.60826
831,0,0,-1,-1,0,-2,-1,0,0.638672,0.0605469,0.234863,-16.6875,-11.8125,3.6875,0.0322652,-1.34331,1.60826
832,-1,3,3,1,0,-1,0,-2,0.638672,0.0678711,0.216797,-12.875,-11.1875,4.125,0.0290595,-1.34535,1.60723
832,-3,-6,-1,-1,0,-1,0,0,0.638672,0.0678711,0.216797,-12.875,-11.1875,4.125,0.0290595,-1.34535,1.60723
853,0,-3,-7,-2,-1,0,-2,-1,0.638672,0.0678711,0.216797,-12.875,-11.1875,4.125,0.0290595,-1.34535,1.60723
853,2,1,-7,-2,-1,0,0,-1,0.638672,0.0678711,0.216797,-12.875,-11.1875,4.125,0.0290595,-1.34535,1.60723
855,0,10,-2,-1,-2,-2,-2,0,0.622559,0.0556641,0.227539,-9.9375,-12.3125,4.25,0.0246802,-1.34763,1.60848
855,-2,-3,0,-1,-3,-5,-2,-1,0.622559,0.0556641,0.227539,-9.9375,-12.3125,4.25,0.0246802,-1.34763,1.60848
868,8,8,10,3,-2,1,3,1,0.622559,0.0556641,0.227539,-9.9375,-12.3125,4.25,0.0246802,-1.34763,1.60848
868,-7,10,-7,2,1,-1,-3,-5,0.622559,0.0556641,0.227539,-9.9375,-12.3125,4.25,0.0246802,-1.34763,1.60848
869,-5,-17,-8,-6,-3,-2,-3,-3,0.648926,0.0444336,0.210449,-7.6875,-14.125,8,0.014557,-1.35124,1.61658
869,4,7,19,2,-1,1,5,4,0.648926,0.0444336,0.210449,-7.6875,-14.125,8,0.014557,-1.35124,1.61658
891,3,5,-2,1,2,0,-4,-7,0.648926,0.0444336,0.210449,-7.6875,-14.125,8,0.014557,-1.35124,1.61658
891,-2,-3,-7,-3,-5,-2,-1,2,0.648926,0.0444336,0.210449,-7.6875,-14.125,8,0.014557,-1.35124,1.61658
893,-1,5,0,3,-2,-1,0,-4,0.672852,0.0322266,0.200195,2.5625,-16.1875,11.5625,0.00100864,-1.35505,1.63092
893,3,6,-10,3,1,2,-1,0,0.672852,0.0322266,0.200195,2.5625,-16.1875,11.5625,0.00100864,-1.35505,1.63092
914,-4,1,29,-3,-3,-3,-1,1,0.672852,0.0322266,0.200195,2.5625,-16.1875,11.5625,0.00100864,-1.35505,1.63092
914,4,21,-16,1,-1,0,4,3,0.672852,0.0322266,0.200195,2.5625,-16.1875,11.5625,0.00100864,-1.35505,1.63092
915,0,39,-4,4,3,0,0,0,0.768555,0.0644531,0.184082,2.5,-17.4375,9.4375,-0.00547967,-1.36093,1.63915
915,-21,-92,-36,-21,-11,-8,-8,-12,0.768555,0.0644531,0.184082,2.5,-17.4375,9.4375,-0.00547967,-1.36093,1.63915
928,2,17,31,8,1,1,10,15,0.768555,0.0644531,0.184082,2.5,-17.4375,9.4375,-0.00547967,-1.36093,1.63915
928,18,39,-33,3,7,4,2,14,0.768555,0.0644531,0.184082,2.5,-17.4375,9.4375,-0.00547967,-1.36093,1.63915
929,-19,-34,-15,-13,-8,-5,-5,-5,0.871094,0.000976562,0.200684,-0.6875,-18.9375,9.4375,-0.0214814,-1.36691,1.65537
929,-19,-40,-10,-6,-5,-4,-5,-9,0.871094,0.000976562,0.200684,-0.6875,-18.9375,9.4375,-0.0214814,-1.36691,1.65537
950,-5,-42,-17,-7,-6,-2,0,-2,0.871094,0.000976562,0.200684,-0.6875,-18.9375,9.4375,-0.0214814,-1.36691,1.65537
950,-3,-9,22,3,-1,-3,5,10,0.871094,0.000976562,0.200684,-0.6875,-18.9375,9.4375,-0.0214814,-1.36691,1.65537
958,20,52,16,13,8,4,-8,-1,0.997559,-0.0180664,0.134277,-2.1875,-15.625,8.4375,-0.0388621,-1.3736,1.67202
958,0,13,-22,-1,1,0,-11,-38,0.997559,-0.0180664,0.134277,-2.1875,-15.625,8.4375,-0.0388621,-1.3736,1.67202
973,-8,-45,-30,-7,-3,-3,4,30,0.997559,-0.0180664,0.134277,-2.1875,-15.625,8.4375,-0.0388621,-1.3736,1.67202
973,-4,54,35,1,1,1,2,13,0.997559,-0.0180664,0.134277,-2.1875,-15.625,8.4375,-0.0388621,-1.3736,1.67202
974,-6,-9,1,-4,-5,-3,5,-42,1.03955,0.00488281,0.125977,0.875,-10.1875,6.6875,-0.050084,-1.37882,1.68383
974,7,-25,28,3,1,0,-3,11,1.03955,0.00488281,0.125977,0.875,-10.1875,6.6875,-0.050084,-1.37882,1.68383
988,-5,24,-9,-1,-2,-1,0,-11,1.03955,0.00488281,0.125977,0.875,-10.1875,6.6875,-0.050084,-1.37882,1.68383
988,-8,-10,12,-4,-3,-2,-4,-16,1.03955,0.00488281,0.125977,0.875,-10.1875,6.6875,-0.050084,-1.37882,1.68383
990,-6,-9,-5,-2,-1,-1,3,19,1.07275,-0.00585938,0.118164,4.6875,-7.75,5.3125,-0.0584203,-1.38338,1.69392
990,6,2,7,3,1,0,0,6,1.07275,-0.00585938,0.118164,4.6875,-7.75,5.3125,-0.0584203,-1.38338,1.69392
1011,6,-3,-3,0,3,1,-2,-7,1.07275,-0.00585938,0.118164,4.6875,-7.75,5.3125,-0.0584203,-1.38338,1.69392
1011,-3,-23,7,-5,-2,-3,-1,1,1.07275,-0.00585938,0.118164,4.6875,-7.75,5.3125,-0.0584203,-1.38338,1.69392
1011,-1,-13,-7,-4,-2,-3,-4,3,1.10986,0.0756836,0.124023,1.875,-4.9375,-2.625,-0.0428557,-1.3871,1.67898
1011,5,18,8,5,3,2,6,5,1.10986,0.0756836,0.124023,1.875,-4.9375,-2.625,-0.0428557,-1.3871,1.67898
1024,7,-5,1,0,0,0,-6,0,1.10986,0.0756836,0.124023,1.875,-4.9375,-2.625,-0.0428557,-1.3871,1.67898
1024,-4,-8,-12,-2,-4,-1,-4,-12,1.10986,0.0756836,0.124023,1.875,-4.9375,-2.625,-0.0428557,-1.3871,1.67898
1034,4,8,6,2,-1,-1,-1,4,1.16162,0.125977,0.125488,1.6875,-6,-8.3125,-0.00906435,-1.39168,1.64618
1034,4,-3,1,3,0,1,3,0,1.16162,0.125977,0.125488,1.6875,-6,-8.3125,-0.00906435,-1.39168,1.64618
1047,-2,-20,-3,0,-2,-2,-4,-3,1.16162,0.125977,0.125488,1.6875,-6,-8.3125,-0.00906435,-1.39168,1.64618
1047,-2,7,-3,-6,-5,-1,-5,-8,1.16162,0.125977,0.125488,1.6875,-6,-8.3125,-0.00906435,-1.39168,1.64618
1055,5,-8,1,0,-1,1,4,6,1.23584,0.164551,0.100586,-9.25,-4.375,-13.125,0.0351723,-1.396,1.59859
1055,-1,-12,5,5,0,-1,1,9,1.23584,0.164551,0.100586,-9.25,-4.375,-13.125,0.0351723,-1.396,1.59859
1070,1,19,-5,0,-4,-1,-5,-9,1.23584,0.164551,0.100586,-9.25,-4.375,-13.125,0.0351723,-1.396,1.59859
1070,-2,-19,5,-4,-3,-3,-1,-3,1.23584,0.164551,0.100586,-9.25,-4.375,-13.125,0.0351723,-1.396,1.59859
1078,0,13,-5,6,4,0,-1,5,1.27637,0.146484,0.101562,-27.375,-1.125,-13.5,0.0723798,-1.39856,1.55147
1078,-2,18,-8,-4,1,-2,-1,1,1.27637,0.146484,0.101562,-27.375,-1.125,-13.5,0.0723798,-1.39856,1.55147
1093,-7,-40,-19,-7,1,1,-2,-9,1.27637,0.146484,0.101562,-27.375,-1.125,-13.5,0.0723798,-1.39856,1.55147
1093,0,-7,-16,1,-2,-1,-1,-6,1.27637,0.146484,0.101562,-27.375,-1.125,-13.5,0.0723798,-1.39856,1.55147
1095,-3,-2,4,-2,-2,-2,1,3,1.28174,0.110352,0.0698242,-28.5625,-3.25,-13.375,0.104559,-1.40238,1.50887
1095,0,7,4,-1,0,0,0,2,1.28174,0.110352,0.0698242,-28.5625,-3.25,-13.375,0.104559,-1.40238,1.50887
1116,-3,10,2,2,1,-2,-2,-5,1.28174,0.110352,0.0698242,-28.5625,-3.25,-13.375,0.104559,-1.40238,1.50887
1116,-2,8,24,4,-1,1,-1,1,1.28174,0.110352,0.0698242,-28.5625,-3.25,-13.375,0.104559,-1.40238,1.50887
1117,0,14,9,-11,-3,-1,-1,0,1.31689,0.0751953,0.0551758,-24.625,2.8125,-8.875,0.123466,-1.40519,1.48162
1117,1,13,1,7,0,1,1,1,1.31689,0.0751953,0.0551758,-24.625,2.8125,-8.875,0.123466,-1.40519,1.48162
1130,-3,0,24,-5,1,-2,-1,-3,1.31689,0.0751953,0.0551758,-24.625,2.8125,-8.875,0.123466,-1.40519,1.48162
1130,4,7,-34,0,-2,-1,-3,1,1.31689,0.0751953,0.0551758,-24.625,2.8125,-8.875,0.123466,-1.40519,1.48162
1138,0,6,32,1,2,-1,0,-3,1.31201,0.0507812,0.0561523,-9.125,4.0625,-11.25,0.148829,-1.40682,1.45262
1138,-4,6,30,14,-2,-1,0,3,1.31201,0.0507812,0.0561523,-9.125,4.0625,-11.25,0.148829,-1.40682,1.45262
1154,-2,1,-21,-11,1,-1,-2,-5,1.31201,0.0507812,0.0561523,-9.125,4.0625,-11.25,0.148829,-1.40682,1.45262
1154,-1,0,-25,-9,-1,-2,1,-1,1.31201,0.0507812,0.0561523,-9.125,4.0625,-11.25,0.148829,-1.40682,1.45262
1155,-5,-13,-1,2,-4,-2,0,-1,1.32373,0.0234375,0.0102539,-1.9375,1.875,-6.1875,0.163347,-1.41094,1.43765
1155,2,14,-5,-1,0,0,-2,1,1.32373,0.0234375,0.0102539,-1.9375,1.875,-6.1875,0.163347,-1.41094,1.43765
1175,1,-9,15,11,1,0,-2,1,1.32373,0.0234375,0.0102539,-1.9375,1.875,-6.1875,0.163347,-1.41094,1.43765
1175,3,21,16,4,3,0,2,2,1.32373,0.0234375,0.0102539,-1.9375,1.875,-6.1875,0.163347,-1.41094,1.43765
1177,-3,21,-31,-12,-2,-1,0,4,1.34619,-0.0327148,-0.00439453,3.125,8.625,8.5625,0.138451,-1.41406,1.46415
1177,-5,-5,2,-2,-2,-5,-2,-11,1.34619,-0.0327148,-0.00439453,3.125,8.625,8.5625,0.138451,-1.41406,1.46415
1197,3,12,2,3,-1,-2,-9,5,1.34619,-0.0327148,-0.00439453,3.125,8.625,8.5625,0.138451,-1.41406,1.46415
1197,2,2,1,-2,2,2,12,-4,1.34619,-0.0327148,-0.00439453,3.125,8.625,8.5625,0.138451,-1.41406,1.46415
1214,-8,7,-9,-2,-4,-2,-2,0,1.30713,0.0424805,0.0961914,20,18.4375,13,0.116974,-1.4106,1.49275
1214,10,9,-10,-6,-3,-2,-1,7,1.30713,0.0424805,0.0961914,20,18.4375,13,0.116974,-1.4106,1.49275
1215,-5,6,-8,-2,-1,1,1,-2,1.30713,0.0424805,0.0961914,20,18.4375,13,0.116974,-1.4106,1.49275
1215,-13,2,-1,-3,-3,-3,-9,-7,1.30713,0.0424805,0.0961914,20,18.4375,13,0.116974,-1.4106,1.49275
1216,2,13,-7,4,0,-1,-2,0,1.24512,0.123535,0.122559,30.0625,27.125,15.5,0.105272,-1.40344,1.51556
1216,4,11,-3,-2,-1,0,6,2,1.24512,0.123535,0.122559,30.0625,27.125,15.5,0.105272,-1.40344,1.51556
1236,3,-13,-7,0,-2,1,3,-1,1.24512,0.123535,0.122559,30.0625,27.125,15.5,0.105272,-1.40344,1.51556
1236,-3,-35,12,-1,-3,-4,-3,8,1.24512,0.123535,0.122559,30.0625,27.125,15.5,0.105272,-1.40344,1.51556
1237,-8,-17,-2,-2,-3,-4,-7,-21,1.21631,0.184082,0.146484,16.3125,34.6875,15.6875,0.0971179,-1.39372,1.53087
1237,1,-22,-7,-6,-3,1,-8,-3,1.21631,0.184082,0.146484,16.3125,34.6875,15.6875,0.0971179,-1.39372,1.53087
1249,4,-52,-4,1,-1,9,62,26,1.21631,0.184082,0.146484,16.3125,34.6875,15.6875,0.0971179,-1.39372,1.53087
1249,5,4,3,5,5,3,6,-19,1.21631,0.184082,0.146484,16.3125,34.6875,15.6875,0.0971179,-1.39372,1.53087
1258,11,19,-18,-1,-1,-10,-57,26,1.16309,0.123047,0.192383,-6.3125,39.3125,14.1875,0.076655,-1.38082,1.54978
1258,-18,-31,-25,-17,-5,-1,3,-10,1.16309,0.123047,0.192383,-6.3125,39.3125,14.1875,0.076655,-1.38082,1.54978
1280,-4,40,14,2,-2,-4,-14,-16,1.16309,0.123047,0.192383,-6.3125,39.3125,14.1875,0.076655,-1.38082,1.54978
1280,1,29,6,-1,-1,4,16,7,1.16309,0.123047,0.192383,-6.3125,39.3125,14.1875,0.076655,-1.38082,1.54978
1283,7,35,-1,1,-2,0,13,1,1.11768,-0.00927734,0.207031,-21,38.3125,14.4375,0.0378961,-1.36832,1.58189
1283,3,21,-7,3,2,0,-1,1,1.11768,-0.00927734,0.207031,-21,38.3125,14.4375,0.0378961,-1.36832,1.58189
1295,-4,24,-7,-4,-6,-6,-15,-6,1.11768,-0.00927734,0.207031,-21,38.3125,14.4375,0.0378961,-1.36832,1.58189
1295,1,-6,1,-3,-2,0,-4,2,1.11768,-0.00927734,0.207031,-21,38.3125,14.4375,0.0378961,-1.36832,1.58189
1297,12,26,18,7,6,5,9,-1,0.987305,-0.116211,0.26123,-25.75,40.3125,20,-0.0179667,-1.3535,1.62938
1297,4,5,7,0,-2,-3,-3,13,0.987305,-0.116211,0.26123,-25.75,40.3125,20,-0.0179667,-1.3535,1.62938
1309,-6,-12,-25,-7,-1,-2,-8,-23,0.987305,-0.116211,0.26123,-25.75,40.3125,20,-0.0179667,-1.3535,1.62938
1309,3,15,-15,2,1,-2,-6,0,0.987305,-0.116211,0.26123,-25.75,40.3125,20,-0.0179667,-1.3535,1.62938
1333,2,-33,24,1,0,4,15,2,0.874512,-0.224121,0.264648,11.625,32.6875,26.5625,-0.0751257,-1.33956,1.69057
1333,-7,-18,-53,-8,-2,-3,4,-3,0.874512,-0.224121,0.264648,11.625,32.6875,26.5625,-0.0751257,-1.33956,1.69057
1341,-2,19,29,0,-1,-1,-9,8,0.874512,-0.224121,0.264648,11.625,32.6875,26.5625,-0.0751257,-1.33956,1.69057
1341,-3,-21,-1,8,-1,-4,-9,0,0.874512,-0.224121,0.264648,11.625,32.6875,26.5625,-0.0751257,-1.33956,1.69057
1343,-17,22,-13,-6,-6,-3,6,-5,0.931641,-0.117676,0.212402,15.125,27.75,22,-0.107977,-1.32939,1.72922
1343,-2,17,21,5,2,1,-3,-2,0.931641,-0.117676,0.212402,15.125,27.75,22,-0.107977,-1.32939,1.72922
1355,2,2,-16,7,5,3,-10,5,0.931641,-0.117676,0.212402,15.125,27.75,22,-0.107977,-1.32939,1.72922
1355,-3,-2,-4,-8,-3,-1,14,9,0.931641,-0.117676,0.212402,15.125,27.75,22,-0.107977,-1.32939,1.72922
1357,-1,-7,11,2,1,3,2,-11,0.88916,-0.0610352,0.179688,10.9375,27.5,20.0625,-0.130836,-1.32015,1.75677
1357,-1,-8,8,-2,-1,2,-3,3,0.88916,-0.0610352,0.179688,10.9375,27.5,20.0625,-0.130836,-1.32015,1.75677
1378,-12,8,-3,-6,-5,-2,-6,-7,0.88916,-0.0610352,0.179688,10.9375,27.5,20.0625,-0.130836,-1.32015,1.75677
1378,-7,10,11,-1,-4,-6,-2,-1,0.88916,-0.0610352,0.179688,10.9375,27.5,20.0625,-0.130836,-1.32015,1.75677
1386,0,-29,-15,-3,-1,0,4,5,0.871582,-0.0371094,0.155762,8.125,23.125,17.1875,-0.148081,-1.31288,1.77732
1386,-10,-1,7,-2,-2,-1,-9,-12,0.871582,-0.0371094,0.155762,8.125,23.125,17.1875,-0.148081,-1.31288,1.77732
1394,22,0,-9,0,2,0,16,20,0.871582,-0.0371094,0.155762,8.125,23.125,17.1875,-0.148081,-1.31288,1.77732
1394,16,2,3,-2,-3,-5,-20,13,0.871582,-0.0371094,0.155762,8.125,23.125,17.1875,-0.148081,-1.31288,1.77732
1395,-37,-25,-8,-3,0,4,-5,-5,0.953125,-0.106445,0.151855,-7.0625,22.625,16.8125,-0.174637,-1.3063,1.80178
1395,-2,22,5,5,5,2,-7,-30,0.953125,-0.106445,0.151855,-7.0625,22.625,16.8125,-0.174637,-1.3063,1.80178
1416,-85,-26,-2,-6,-12,-5,2,-11,0.953125,-0.106445,0.151855,-7.0625,22.625,16.8125,-0.174637,-1.3063,1.80178
1416,5,0,2,-1,3,3,29,26,0.953125,-0.106445,0.151855,-7.0625,22.625,16.8125,-0.174637,-1.3063,1.80178
1417,-14,-22,-7,3,5,8,2,-28,1.03906,-0.125,0.153809,-6.3125,29.0625,26.0625,-0.210488,-1.29758,1.83637
1417,-5,-6,-7,-5,-10,-17,-20,-33,1.03906,-0.125,0.153809,-6.3125,29.0625,26.0625,-0.210488,-1.29758,1.83637
1429,45,38,9,-1,-4,-8,-21,16,1.03906,-0.125,0.153809,-6.3125,29.0625,26.0625,-0.210488,-1.29758,1.83637
1429,9,-10,-4,-5,-4,7,45,25,1.03906,-0.125,0.153809,-6.3125,29.0625,26.0625,-0.210488,-1.29758,1.83637
1438,-28,-9,-3,-1,1,7,9,-16,1.0752,-0.104492,0.114746,-0.75,45,24.625,-0.234273,-1.28451,1.86032
1438,30,-1,11,3,5,-2,-16,5,1.0752,-0.104492,0.114746,-0.75,45,24.625,-0.234273,-1.28451,1.86032
1453,15,-22,0,1,5,2,-8,17,1.0752,-0.104492,0.114746,-0.75,45,24.625,-0.234273,-1.28451,1.86032
1453,20,4,2,1,-2,-1,29,-21,1.0752,-0.104492,0.114746,-0.75,45,24.625,-0.234273,-1.28451,1.86032
1461,20,13,-1,-3,-7,-19,-63,31,1.02441,0.0322266,0.268555,-13.5625,59.8125,7.875,-0.224636,-1.26513,1.84581
1461,-48,4,2,-3,-2,3,-9,-73,1.02441,0.0322266,0.268555,-13.5625,59.8125,7.875,-0.224636,-1.26513,1.84581
1476,-29,-3,-5,-1,1,1,-8,6,1.02441,0.0322266,0.268555,-13.5625,59.8125,7.875,-0.224636,-1.26513,1.84581
1476,-13,-2,0,-1,0,0,-41,19,1.02441,0.0322266,0.268555,-13.5625,59.8125,7.875,-0.224636,-1.26513,1.84581
1477,25,12,0,-3,1,-4,3,-5,0.927734,0.0722656,0.298828,-32.5625,63.4375,-2.75,-0.208097,-1.24452,1.81764
1477,32,0,5,3,0,2,-30,71,0.927734,0.0722656,0.298828,-32.5625,63.4375,-2.75,-0.208097,-1.24452,1.81764
1489,18,-27,0,6,8,14,58,4,0.927734,0.0722656,0.298828,-32.5625,63.4375,-2.75,-0.208097,-1.24452,1.81764
1489,22,-12,-2,-2,-1,4,54,63,0.927734,0.0722656,0.298828,-32.5625,63.4375,-2.75,-0.208097,-1.24452,1.81764
1505,13,4,-1,-3,-11,-5,28,-10,0.986816,-0.0302734,0.280273,-49.125,60.4375,13.125,-0.222766,-1.22473,1.8153
1505,-5,-3,-2,2,-1,-3,16,-47,0.986816,-0.0302734,0.280273,-49.125,60.4375,13.125,-0.222766,-1.22473,1.8153
1513,13,-19,1,2,-2,0,-26,-8,0.986816,-0.0302734,0.280273,-49.125,60.4375,13.125,-0.222766,-1.22473,1.8153
1513,9,3,0,1,-1,0,-17,-17,0.986816,-0.0302734,0.280273,-49.125,60.4375,13.125,-0.222766,-1.22473,1.8153
1515,19,1,1,2,-1,1,40,62,1.02832,-0.281738,0.335938,-57.3125,62.9375,37.0625,-0.274645,-1.20038,1.84773
1515,40,15,1,-3,0,5,-54,3,1.02832,-0.281738,0.335938,-57.3125,62.9375,37.0625,-0.274645,-1.20038,1.84773
1536,-44,14,0,1,-1,5,75,-45,1.02832,-0.281738,0.335938,-57.3125,62.9375,37.0625,-0.274645,-1.20038,1.84773
1536,-8,22,1,-9,-8,-11,-30,-13,1.02832,-0.281738,0.335938,-57.3125,62.9375,37.0625,-0.274645,-1.20038,1.84773
1537,-15,-13,-4,-7,2,5,-7,4,0.828125,-0.402344,0.368164,-48.1875,70.1875,52,-0.332934,-1.16879,1.88987
1537,-7,-11,-3,5,4,7,38,27,0.828125,-0.402344,0.368164,-48.1875,70.1875,52,-0.332934,-1.16879,1.88987
1549,11,23,-1,5,-3,-14,-38,26,0.828125,-0.402344,0.368164,-48.1875,70.1875,52,-0.332934,-1.16879,1.88987
1549,-14,8,-2,-2,-1,-3,-33,-38,0.828125,-0.402344,0.368164,-48.1875,70.1875,52,-0.332934,-1.16879,1.88987
1557,2,-4,-5,-6,-6,-3,16,-9,0.779785,-0.259277,0.337402,2.6875,53.125,53.75,-0.365225,-1.14384,1.92486
1557,17,0,2,-2,0,11,40,35,0.779785,-0.259277,0.337402,2.6875,53.125,53.75,-0.365225,-1.14384,1.92486
1573,63,21,1,-8,-5,-2,-6,33,0.779785,-0.259277,0.337402,2.6875,53.125,53.75,-0.365225,-1.14384,1.92486
1573,-23,4,3,7,4,5,12,-15,0.779785,-0.259277,0.337402,2.6875,53.125,53.75,-0.365225,-1.14384,1.92486
1575,-34,-2,-2,-5,-10,-25,-55,-32,0.815918,-0.354004,0.459961,30.875,52.625,61.25,-0.391138,-1.11542,1.96377
1575,-104,-11,-1,-6,-8,-17,-36,-16,0.815918,-0.354004,0.459961,30.875,52.625,61.25,-0.391138,-1.11542,1.96377
1595,15,6,1,0,1,5,7,6,0.815918,-0.354004,0.459961,30.875,52.625,61.25,-0.391138,-1.11542,1.96377
1595,37,-41,-5,2,5,12,10,10,0.815918,-0.354004,0.459961,30.875,52.625,61.25,-0.391138,-1.11542,1.96377
1627,26,16,-4,-10,-6,-4,13,-21,0.808594,-0.306152,0.445312,12,56.4375,71.6875,-0.421909,-1.08504,2.00171
1627,-11,37,4,-13,-1,-6,-24,12,0.808594,-0.306152,0.445312,12,56.4375,71.6875,-0.421909,-1.08504,2.00171
1627,-8,18,6,26,13,0,22,7,0.808594,-0.306152,0.445312,12,56.4375,71.6875,-0.421909,-1.08504,2.00171
1627,-8,16,5,17,13,11,12,-14,0.808594,-0.306152,0.445312,12,56.4375,71.6875,-0.421909,-1.08504,2.00171
1628,61,-11,-5,17,11,13,22,13,0.568359,-0.26416,0.457031,9.125,49.0625,74.375,-0.450724,-1.05429,2.03765
1628,-71,16,-7,-22,-14,-17,-36,-44,0.568359,-0.26416,0.457031,9.125,49.0625,74.375,-0.450724,-1.05429,2.03765
1633,6,5,0,-19,-10,-12,-23,-16,0.568359,-0.26416,0.457031,9.125,49.0625,74.375,-0.450724,-1.05429,2.03765
1633,-3,-1,-6,-12,-11,-10,-16,-17,0.568359,-0.26416,0.457031,9.125,49.0625,74.375,-0.450724,-1.05429,2.03765
1640,9,-28,2,-1,-7,-1,11,26,0.537598,-0.287109,0.390137,6.5,25,69.9375,-0.482894,-1.03227,2.0764
1640,48,-31,3,11,11,19,31,40,0.537598,-0.287109,0.390137,6.5,25,69.9375,-0.482894,-1.03227,2.0764
1655,-9,-6,-5,1,7,-16,30,-40,0.537598,-0.287109,0.390137,6.5,25,69.9375,-0.482894,-1.03227,2.0764
1655,-26,22,-9,-12,-16,-14,5,17,0.537598,-0.287109,0.390137,6.5,25,69.9375,-0.482894,-1.03227,2.0764
1657,-18,59,-1,-12,-10,-1,-11,-10,0.742188,-0.334473,0.503418,21.4375,11.0625,37.375,-0.493908,-1.01956,2.09722
1657,20,-34,-3,-2,-6,6,29,8,0.742188,-0.334473,0.503418,21.4375,11.0625,37.375,-0.493908,-1.01956,2.09722
1670,-10,-22,5,8,4,3,-33,-12,0.742188,-0.334473,0.503418,21.4375,11.0625,37.375,-0.493908,-1.01956,2.09722
1670,12,-11,2,12,9,-3,-27,-12,0.742188,-0.334473,0.503418,21.4375,11.0625,37.375,-0.493908,-1.01956,2.09722
1678,6,-5,5,17,10,3,5,-1,0.91748,-0.249512,0.548828,9.375,17.1875,35.375,-0.501347,-1.00791,2.11057
1678,-3,-39,-9,-9,-8,-11,15,-5,0.91748,-0.249512,0.548828,9.375,17.1875,35.375,-0.501347,-1.00791,2.11057
1692,-19,-2,-5,-12,-9,-3,-28,-12,0.91748,-0.249512,0.548828,9.375,17.1875,35.375,-0.501347,-1.00791,2.11057
1692,4,16,3,-5,-1,2,-11,0,0.91748,-0.249512,0.548828,9.375,17.1875,35.375,-0.501347,-1.00791,2.11057
1699,11,27,-1,4,3,8,-4,21,0.865234,-0.23877,0.545898,-21.8125,26.5625,36.375,-0.516402,-0.993032,2.12044
1699,68,67,4,4,0,-8,13,2,0.865234,-0.23877,0.545898,-21.8125,26.5625,36.375,-0.516402,-0.993032,2.12044
1715,-82,26,-2,-7,-4,29,13,-68,0.865234,-0.23877,0.545898,-21.8125,26.5625,36.375,-0.516402,-0.993032,2.12044
1715,29,-15,-3,-13,-13,-22,7,27,0.865234,-0.23877,0.545898,-21.8125,26.5625,36.375,-0.516402,-0.993032,2.12044
1717,-10,-21,2,-1,1,10,10,4,0.784668,-0.347168,0.666992,-26.25,25.75,30.9375,-0.531259,-0.975428,2.12796
1717,15,10,11,20,11,4,5,18,0.784668,-0.347168,0.666992,-26.25,25.75,30.9375,-0.531259,-0.975428,2.12796
1729,4,-17,-13,-10,-7,-12,-20,-9,0.784668,-0.347168,0.666992,-26.25,25.75,30.9375,-0.531259,-0.975428,2.12796
1729,-2,-16,0,-1,2,6,2,-14,0.784668,-0.347168,0.666992,-26.25,25.75,30.9375,-0.531259,-0.975428,2.12796
1738,-8,-24,-1,-1,-5,-17,29,3,0.766602,-0.416992,0.82959,-12.5625,27.8125,14.5625,-0.532102,-0.956716,2.12469
1738,15,-8,-4,-3,-6,2,-1,5,0.766602,-0.416992,0.82959,-12.5625,27.8125,14.5625,-0.532102,-0.956716,2.12469
1753,22,9,0,-1,0,1,3,21,0.766602,-0.416992,0.82959,-12.5625,27.8125,14.5625,-0.532102,-0.956716,2.12469
1753,53,-22,-18,-23,-9,3,43,11,0.766602,-0.416992,0.82959,-12.5625,27.8125,14.5625,-0.532102,-0.956716,2.12469
1760,-37,-10,-3,-43,-15,-29,-110,-17,0.836914,-0.365723,0.836914,-14.6875,28.9375,14.625,-0.531631,-0.93955,2.11975
1760,-38,1,8,57,23,31,-7,10,0.836914,-0.365723,0.836914,-14.6875,28.9375,14.625,-0.531631,-0.93955,2.11975
1784,88,10,8,24,23,-35,-88,8,0.836914,-0.365723,0.836914,-14.6875,28.9375,14.625,-0.531631,-0.93955,2.11975
1784,-10,29,16,27,-6,9,23,22,0.836914,-0.365723,0.836914,-14.6875,28.9375,14.625,-0.531631,-0.93955,2.11975
1786,-71,-16,-25,-46,-25,-18,51,-21,0.8125,-0.419434,0.899414,-8,25.125,27.6875,-0.535553,-0.919789,2.12295
1786,2,-9,-1,-8,16,40,-13,-2,0.8125,-0.419434,0.899414,-8,25.125,27.6875,-0.535553,-0.919789,2.12295
1789,11,6,-2,17,7,26,-33,9,0.8125,-0.419434,0.899414,-8,25.125,27.6875,-0.535553,-0.919789,2.12295
1789,-48,-39,5,7,30,43,87,-14,0.8125,-0.419434,0.899414,-8,25.125,27.6875,-0.535553,-0.919789,2.12295
1798,21,-6,2,12,-5,10,-2,28,0.918945,-0.598633,1.04443,-0.6875,17.25,38.5,-0.545503,-0.898467,2.1358
1798,-53,48,0,-11,-43,-57,-29,-8,0.918945,-0.598633,1.04443,-0.6875,17.25,38.5,-0.545503,-0.898467,2.1358
1813,13,1,-8,-66,-50,-34,-2,-4,0.918945,-0.598633,1.04443,-0.6875,17.25,38.5,-0.545503,-0.898467,2.1358
1813,-45,-27,-9,44,55,22,-74,-30,0.918945,-0.598633,1.04443,-0.6875,17.25,38.5,-0.545503,-0.898467,2.1358
1827,61,-53,-9,-30,-32,-1,37,-3,1.11963,-0.697754,1.04639,21.6875,22.75,45.8125,-0.551411,-0.877025,2.15228
1827,127,-59,-14,-30,-24,75,108,91,1.11963,-0.697754,1.04639,21.6875,22.75,45.8125,-0.551411,-0.877025,2.15228
1835,-97,17,3,58,82,67,-37,-39,1.11963,-0.697754,1.04639,21.6875,22.75,45.8125,-0.551411,-0.877025,2.15228
1835,-3,72,27,-21,7,-57,-128,-106,1.11963,-0.697754,1.04639,21.6875,22.75,45.8125,-0.551411,-0.877025,2.15228
1837,36,48,-10,127,108,-15,-24,34,0.786621,-0.406738,0.841309,20.75,0.5625,52.6875,-0.5587,-0.862301,2.17338
1837,118,22,22,-100,-97,13,49,71,0.786621,-0.406738,0.841309,20.75,0.5625,52.6875,-0.5587,-0.862301,2.17338
1857,9,7,-19,-125,-32,-62,-64,-59,0.786621,-0.406738,0.841309,20.75,0.5625,52.6875,-0.5587,-0.862301,2.17338
1857,13,-75,-80,-49,-53,0,100,-5,0.786621,-0.406738,0.841309,20.75,0.5625,52.6875,-0.5587,-0.862301,2.17338
1859,68,9,23,98,105,83,-2,17,0.813965,-0.430664,0.396973,4.6875,-44.4375,32.1875,-0.583354,-0.871517,2.205
1859,-33,17,18,-60,-78,-128,-98,-79,0.813965,-0.430664,0.396973,4.6875,-44.4375,32.1875,-0.583354,-0.871517,2.205
1872,-49,-1,36,124,111,81,-38,75,0.813965,-0.430664,0.396973,4.6875,-44.4375,32.1875,-0.583354,-0.871517,2.205
1872,86,22,14,-56,-92,50,59,-4,0.813965,-0.430664,0.396973,4.6875,-44.4375,32.1875,-0.583354,-0.871517,2.205
1879,68,-118,-18,-104,-108,99,58,43,1.23584,-0.222656,0.164062,31.375,-57.3125,37.1875,-0.602234,-0.895004,2.24198
1879,-35,-89,-65,-28,59,-12,-70,21,1.23584,-0.222656,0.164062,31.375,-57.3125,37.1875,-0.602234,-0.895004,2.24198
1896,24,-28,2,-123,13,-30,127,15,1.23584,-0.222656,0.164062,31.375,-57.3125,37.1875,-0.602234,-0.895004,2.24198
1896,66,81,69,123,119,-37,-32,82,1.23584,-0.222656,0.164062,31.375,-57.3125,37.1875,-0.602234,-0.895004,2.24198
1897,70,127,13,44,70,92,32,20,1.44971,-0.0585938,0.301758,20.6875,-47.3125,-2.6875,-0.600877,-0.925041,2.25193
1897,-35,74,34,-36,-51,-18,-34,-49,1.44971,-0.0585938,0.301758,20.6875,-47.3125,-2.6875,-0.600877,-0.925041,2.25193
1901,-105,31,-22,-15,-128,-111,-61,-75,1.44971,-0.0585938,0.301758,20.6875,-47.3125,-2.6875,-0.600877,-0.925041,2.25193
1901,48,-67,-59,75,4,-79,-18,32,1.44971,-0.0585938,0.301758,20.6875,-47.3125,-2.6875,-0.600877,-0.925041,2.25193
1910,86,-23,118,28,103,71,75,8,1.47168,0.0654297,0.425781,-30.875,-18.625,-44.625,-0.587131,-0.953978,2.22665
1910,51,-1,-35,33,39,-14,-3,0,1.47168,0.0654297,0.425781,-30.875,-18.625,-44.625,-0.587131,-0.953978,2.22665
1925,85,-11,37,-71,-114,-32,50,21,1.47168,0.0654297,0.425781,-30.875,-18.625,-44.625,-0.587131,-0.953978,2.22665
1925,-4,-15,-54,-15,-128,38,-97,-15,1.47168,0.0654297,0.425781,-30.875,-18.625,-44.625,-0.587131,-0.953978,2.22665
1934,-41,-11,-34,-37,-128,-128,-44,-31,0.958984,-0.195801,0.54541,-29.1875,4.0625,-20.6875,-0.581796,-0.958832,2.21003
1934,10,-68,5,36,127,127,127,19,0.958984,-0.195801,0.54541,-29.1875,4.0625,-20.6875,-0.581796,-0.958832,2.21003
1947,45,44,79,127,87,-24,-58,-16,0.958984,-0.195801,0.54541,-29.1875,4.0625,-20.6875,-0.581796,-0.958832,2.21003
1947,1,26,15,-128,-46,38,11,-2,0.958984,-0.195801,0.54541,-29.1875,4.0625,-20.6875,-0.581796,-0.958832,2.21003
1954,-67,-14,-24,8,-73,-57,31,8,1.18066,-0.413086,0.657227,-3.25,15.0625,-1,-0.577955,-0.955902,2.20413
1954,4,36,-24,-49,-118,25,20,52,1.18066,-0.413086,0.657227,-3.25,15.0625,-1,-0.577955,-0.955902,2.20413
1961,42,-25,-68,-85,-105,-5,-9,8,1.18066,-0.413086,0.657227,-3.25,15.0625,-1,-0.577955,-0.955902,2.20413
1961,52,-50,32,18,92,48,-50,33,1.18066,-0.413086,0.657227,-3.25,15.0625,-1,-0.577955,-0.955902,2.20413
1971,-108,-5,2,-4,77,-24,-54,-35,1.43311,-0.21582,0.66748,27.0625,36.8125,10.875,-0.556113,-0.949974,2.19196
1971,65,14,18,109,23,20,47,16,1.43311,-0.21582,0.66748,27.0625,36.8125,10.875,-0.556113,-0.949974,2.19196
1993,17,6,7,-38,1,8,28,7,1.43311,-0.21582,0.66748,27.0625,36.8125,10.875,-0.556113,-0.949974,2.19196
1993,-35,-2,-10,2,-117,-74,-47,-45,1.43311,-0.21582,0.66748,27.0625,36.8125,10.875,-0.556113,-0.949974,2.19196
1995,42,-34,-38,-128,-128,-39,0,18,1.25391,-0.165527,0.659668,5.3125,51.5625,4.8125,-0.53515,-0.938996,2.17187
1995,-124,-20,-44,-29,127,-26,-36,-32,1.25391,-0.165527,0.659668,5.3125,51.5625,4.8125,-0.53515,-0.938996,2.17187
2007,11,0,41,105,101,75,19,-7,1.25391,-0.165527,0.659668,5.3125,51.5625,4.8125,-0.53515,-0.938996,2.17187
2007,91,32,-27,-53,37,-52,21,51,1.25391,-0.165527,0.659668,5.3125,51.5625,4.8125,-0.53515,-0.938996,2.17187
2015,-91,-12,2,-49,-80,-18,-126,-99,1.18164,-0.308594,0.662109,6.6875,52,7.125,-0.520747,-0.925364,2.15802
2015,18,-17,-38,-94,-104,18,88,-11,1.18164,-0.308594,0.662109,6.6875,52,7.125,-0.520747,-0.925364,2.15802
2037,-13,6,-8,-38,-24,-30,18,23,1.18164,-0.308594,0.662109,6.6875,52,7.125,-0.520747,-0.925364,2.15802
2037,-67,-30,28,91,68,56,37,0,1.18164,-0.308594,0.662109,6.6875,52,7.125,-0.520747,-0.925364,2.15802
2040,38,10,32,25,40,-17,-39,7,1.04102,-0.375977,0.579102,27.75,46.125,18.6875,-0.509872,-0.9104,2.15566
2040,0,27,23,22,-48,-71,-76,-32,1.04102,-0.375977,0.579102,27.75,46.125,18.6875,-0.509872,-0.9104,2.15566
2052,3,0,-51,-35,-82,3,4,17,1.04102,-0.375977,0.579102,27.75,46.125,18.6875,-0.509872,-0.9104,2.15566
2052,14,-16,15,-69,-75,-39,0,45,1.04102,-0.375977,0.579102,27.75,46.125,18.6875,-0.509872,-0.9104,2.15566
2060,-36,32,-20,70,84,94,37,-81,0.849121,-0.412598,0.500488,31.1875,47.0625,23.125,-0.502759,-0.893117,2.15815
2060,-15,57,24,118,-2,-53,39,12,0.849121,-0.412598,0.500488,31.1875,47.0625,23.125,-0.502759,-0.893117,2.15815
2075,108,45,38,42,50,56,35,64,0.849121,-0.412598,0.500488,31.1875,47.0625,23.125,-0.502759,-0.893117,2.15815
2075,-101,17,-15,-63,-41,-6,-3,-49,0.849121,-0.412598,0.500488,31.1875,47.0625,23.125,-0.502759,-0.893117,2.15815
2084,4,-38,-35,-97,-28,-47,-26,7,0.670898,-0.506348,0.432617,20.5,57.0625,17.75,-0.49965,-0.871507,2.15861
2084,35,-40,-9,76,14,10,28,31,0.670898,-0.506348,0.432617,20.5,57.0625,17.75,-0.49965,-0.871507,2.15861
2098,6,-17,12,-2,-33,-22,24,-49,0.670898,-0.506348,0.432617,20.5,57.0625,17.75,-0.49965,-0.871507,2.15861
2098,48,-2,-2,0,60,22,-90,-21,0.670898,-0.506348,0.432617,20.5,57.0625,17.75,-0.49965,-0.871507,2.15861
2099,0,14,39,32,41,-16,22,52,0.522461,-0.49707,0.398926,19.4375,62.625,15.3125,-0.495413,-0.847342,2.15683
2099,27,-32,-74,-93,-53,-74,-30,-26,0.522461,-0.49707,0.398926,19.4375,62.625,15.3125,-0.495413,-0.847342,2.15683
2112,-16,-70,5,74,-30,60,0,43,0.522461,-0.49707,0.398926,19.4375,62.625,15.3125,-0.495413,-0.847342,2.15683
2112,19,-54,26,-72,23,36,48,-11,0.522461,-0.49707,0.398926,19.4375,62.625,15.3125,-0.495413,-0.847342,2.15683
2120,68,-96,-46,-9,-18,-30,11,3,0.585938,-0.421387,0.386719,17.875,66.625,17.4375,-0.490007,-0.824021,2.15371
2120,-47,14,54,50,76,9,-41,-29,0.585938,-0.421387,0.386719,17.875,66.625,17.4375,-0.490007,-0.824021,2.15371
2135,10,79,11,39,70,34,-59,17,0.585938,-0.421387,0.386719,17.875,66.625,17.4375,-0.490007,-0.824021,2.15371
2135,-50,119,7,-80,-92,-1,94,-10,0.585938,-0.421387,0.386719,17.875,66.625,17.4375,-0.490007,-0.824021,2.15371
2137,-22,85,-22,-22,-7,-35,-65,-22,0.432617,-0.38916,0.431641,1.0625,73.8125,11.625,-0.485715,-0.796979,2.14498
2137,36,-10,22,17,-3,-10,7,11,0.432617,-0.38916,0.431641,1.0625,73.8125,11.625,-0.485715,-0.796979,2.14498
2157,7,-34,-46,14,28,4,24,-2,0.432617,-0.38916,0.431641,1.0625,73.8125,11.625,-0.485715,-0.796979,2.14498
2157,-18,38,-9,5,1,-22,-91,-29,0.432617,-0.38916,0.431641,1.0625,73.8125,11.625,-0.485715,-0.796979,2.14498
2159,-9,-10,34,49,3,14,118,38,0.277344,-0.305664,0.438965,-8.6875,80.8125,5.3125,-0.479564,-0.766873,2.13037
2159,-69,-34,54,-40,34,-17,-73,-74,0.277344,-0.305664,0.438965,-8.6875,80.8125,5.3125,-0.479564,-0.766873,2.13037
2172,37,-56,-23,-4,-52,-4,24,3,0.277344,-0.305664,0.438965,-8.6875,80.8125,5.3125,-0.479564,-0.766873,2.13037
2172,45,-36,-14,-4,51,-19,-38,7,0.277344,-0.305664,0.438965,-8.6875,80.8125,5.3125,-0.479564,-0.766873,2.13037
2181,-1,-63,-18,-65,-76,-40,-5,-1,0.373047,-0.310547,0.45166,-9.375,89,5.125,-0.473368,-0.736363,2.11465
2181,3,-39,11,50,66,35,-30,2,0.373047,-0.310547,0.45166,-9.375,89,5.125,-0.473368,-0.736363,2.11465
2203,5,-6,-5,-76,-33,46,105,-9,0.373047,-0.310547,0.45166,-9.375,89,5.125,-0.473368,-0.736363,2.11465
2203,-19,49,1,33,44,-15,98,15,0.373047,-0.310547,0.45166,-9.375,89,5.125,-0.473368,-0.736363,2.11465
2204,45,127,28,66,45,17,-58,14,0.375977,-0.28125,0.483887,-4.3125,94.25,8.1875,-0.465235,-0.703793,2.09912
2204,-10,90,44,-23,-38,-5,22,8,0.375977,-0.28125,0.483887,-4.3125,94.25,8.1875,-0.465235,-0.703793,2.09912
2218,-60,-13,-4,-65,-24,-62,-43,-18,0.375977,-0.28125,0.483887,-4.3125,94.25,8.1875,-0.465235,-0.703793,2.09912
2218,7,-20,-18,38,42,19,21,7,0.375977,-0.28125,0.483887,-4.3125,94.25,8.1875,-0.465235,-0.703793,2.09912
2219,39,-40,-84,-85,-35,-13,18,19,0.317871,-0.218262,0.493164,1.75,96.375,7.1875,-0.453481,-0.670387,2.08228
2219,-5,-91,46,93,120,-4,17,-23,0.317871,-0.218262,0.493164,1.75,96.375,7.1875,-0.453481,-0.670387,2.08228
2232,-38,-93,9,31,32,17,-31,10,0.317871,-0.218262,0.493164,1.75,96.375,7.1875,-0.453481,-0.670387,2.08228
2232,-35,-47,21,-23,-30,9,6,-17,0.317871,-0.218262,0.493164,1.75,96.375,7.1875,-0.453481,-0.670387,2.08228
2241,-11,16,23,-47,-25,2,-31,-6,0.30957,-0.221191,0.525391,-5.25,94.625,4.375,-0.444542,-0.637812,2.0654
2241,66,93,-96,-128,-128,-44,17,23,0.30957,-0.221191,0.525391,-5.25,94.625,4.375,-0.444542,-0.637812,2.0654
2247,33,72,17,30,11,-12,11,3,0.30957,-0.221191,0.525391,-5.25,94.625,4.375,-0.444542,-0.637812,2.0654
2247,-76,11,32,127,98,43,-51,-23,0.30957,-0.221191,0.525391,-5.25,94.625,4.375,-0.444542,-0.637812,2.0654
2262,-8,-23,-2,-56,-67,-2,-1,2,0.364258,-0.248047,0.568359,0.25,94.4375,1.75,-0.434339,-0.606309,2.04854
2262,16,-30,-19,-31,-58,41,102,17,0.364258,-0.248047,0.568359,0.25,94.4375,1.75,-0.434339,-0.606309,2.04854
2271,10,42,-4,83,91,-6,-85,-15,0.364258,-0.248047,0.568359,0.25,94.4375,1.75,-0.434339,-0.606309,2.04854
2271,51,-21,86,27,20,5,22,18,0.364258,-0.248047,0.568359,0.25,94.4375,1.75,-0.434339,-0.606309,2.04854
2272,-88,-45,-65,52,65,12,22,-47,0.338379,-0.247559,0.603516,-1.25,89.4375,1.1875,-0.425531,-0.576026,2.03295
2272,-21,12,-29,-119,-108,-18,-29,-1,0.338379,-0.247559,0.603516,-1.25,89.4375,1.1875,-0.425531,-0.576026,2.03295
2284,1,-68,-64,-69,-75,-14,13,1,0.338379,-0.247559,0.603516,-1.25,89.4375,1.1875,-0.425531,-0.576026,2.03295
2284,26,46,17,74,27,-21,-27,5,0.338379,-0.247559,0.603516,-1.25,89.4375,1.1875,-0.425531,-0.576026,2.03295
2293,69,100,10,-74,-78,13,-50,11,0.256836,-0.210449,0.600098,6,86.4375,0.5625,-0.414408,-0.545783,2.01798
2293,-80,67,33,119,49,0,-4,-13,0.256836,-0.210449,0.600098,6,86.4375,0.5625,-0.414408,-0.545783,2.01798
2307,-2,37,-97,-22,76,-12,33,19,0.256836,-0.210449,0.600098,6,86.4375,0.5625,-0.414408,-0.545783,2.01798
2307,-3,-2,21,-38,-117,18,-9,-7,0.256836,-0.210449,0.600098,6,86.4375,0.5625,-0.414408,-0.545783,2.01798
2315,-12,-26,41,124,127,12,50,-9,0.21582,-0.271973,0.641113,-1.0625,78.4375,4.8125,-0.409075,-0.516143,2.00686
2315,63,-11,7,-125,-81,9,-36,1,0.21582,-0.271973,0.641113,-1.0625,78.4375,4.8125,-0.409075,-0.516143,2.00686
2337,0,-16,-4,-127,-87,-103,-24,8,0.21582,-0.271973,0.641113,-1.0625,78.4375,4.8125,-0.409075,-0.516143,2.00686
2337,-16,-92,-37,89,97,96,-7,9,0.21582,-0.271973,0.641113,-1.0625,78.4375,4.8125,-0.409075,-0.516143,2.00686
2340,81,5,4,-97,-29,-47,97,19,0.275391,-0.310547,0.697754,5.625,77.875,10.1875,-0.403351,-0.486912,1.99862
2340,-66,-6,62,112,127,60,-63,-29,0.275391,-0.310547,0.697754,5.625,77.875,10.1875,-0.403351,-0.486912,1.99862
2344,-11,103,70,32,29,16,19,-15,0.275391,-0.310547,0.697754,5.625,77.875,10.1875,-0.403351,-0.486912,1.99862
2344,0,-74,-91,-128,-78,-73,-2,17,0.275391,-0.310547,0.697754,5.625,77.875,10.1875,-0.403351,-0.486912,1.99862
2368,-28,-110,-26,-38,-98,-10,-62,-25,0.230469,-0.257324,0.680176,7.6875,69.625,13.0625,-0.397161,-0.459953,1.99224
2368,57,-128,63,71,33,-4,17,11,0.230469,-0.257324,0.680176,7.6875,69.625,13.0625,-0.397161,-0.459953,1.99224
2369,37,-123,-1,-33,18,-7,10,5,0.230469,-0.257324,0.680176,7.6875,69.625,13.0625,-0.397161,-0.459953,1.99224
2369,-1,110,36,93,50,34,42,-5,0.230469,-0.257324,0.680176,7.6875,69.625,13.0625,-0.397161,-0.459953,1.99224
2375,-3,117,-43,-67,-67,-30,-20,3,0.250488,-0.235352,0.673828,8.0625,66.75,17.25,-0.391684,-0.434338,1.98809
2375,-22,119,-117,24,-26,-89,-17,19,0.250488,-0.235352,0.673828,8.0625,66.75,17.25,-0.391684,-0.434338,1.98809
2398,20,44,21,94,52,119,-118,-9,0.250488,-0.235352,0.673828,8.0625,66.75,17.25,-0.391684,-0.434338,1.98809
2398,87,31,12,-32,-95,-86,109,45,0.250488,-0.235352,0.673828,8.0625,66.75,17.25,-0.391684,-0.434338,1.98809
2399,-62,-15,9,0,-8,1,-65,-19,0.299316,-0.311035,0.716309,0.8125,67.4375,19.75,-0.390563,-0.409055,1.98535
2399,-47,-5,45,69,89,-12,3,-24,0.299316,-0.311035,0.716309,0.8125,67.4375,19.75,-0.390563,-0.409055,1.98535
2404,46,9,45,-3,40,27,23,19,0.299316,-0.311035,0.716309,0.8125,67.4375,19.75,-0.390563,-0.409055,1.98535
2404,-49,-62,-55,-124,-88,-45,-46,-7,0.299316,-0.311035,0.716309,0.8125,67.4375,19.75,-0.390563,-0.409055,1.98535
2420,-3,-50,35,80,64,107,21,-15,0.289551,-0.319824,0.709473,1.3125,65.125,18.5,-0.389679,-0.384926,1.98265
2420,45,-17,5,6,2,-11,-38,16,0.289551,-0.319824,0.709473,1.3125,65.125,18.5,-0.389679,-0.384926,1.98265
2427,39,-20,-34,-99,-114,-91,88,32,0.289551,-0.319824,0.709473,1.3125,65.125,18.5,-0.389679,-0.384926,1.98265
2427,-77,0,29,127,127,47,-6,-27,0.289551,-0.319824,0.709473,1.3125,65.125,18.5,-0.389679,-0.384926,1.98265
2434,-23,10,50,57,-13,-34,-34,15,0.279297,-0.307129,0.720703,-1.4375,60.5,17.25,-0.389504,-0.362674,1.9802
2434,69,-44,-8,-77,-95,-14,-9,7,0.279297,-0.307129,0.720703,-1.4375,60.5,17.25,-0.389504,-0.362674,1.9802
2451,-52,14,-29,-39,66,47,70,-28,0.279297,-0.307129,0.720703,-1.4375,60.5,17.25,-0.389504,-0.362674,1.9802
2451,13,47,38,-38,-29,-62,18,36,0.279297,-0.307129,0.720703,-1.4375,60.5,17.25,-0.389504,-0.362674,1.9802
2453,14,37,45,82,24,54,1,-4,0.234863,-0.317871,0.750977,-1.125,60.8125,15.4375,-0.388927,-0.339754,1.977
2453,-12,27,-70,-82,-27,-10,3,9,0.234863,-0.317871,0.750977,-1.125,60.8125,15.4375,-0.388927,-0.339754,1.977
2488,32,3,1,94,-72,-73,43,-3,0.234863,-0.317871,0.750977,-1.125,60.8125,15.4375,-0.388927,-0.339754,1.977
2488,-16,-27,14,-36,49,13,25,-24,0.234863,-0.317871,0.750977,-1.125,60.8125,15.4375,-0.388927,-0.339754,1.977
2495,11,0,45,0,125,60,-57,-14,0.194824,-0.325684,0.753906,-1.3125,60.125,14.75,-0.388789,-0.316684,1.9738
2495,13,0,-10,-14,21,-13,33,15,0.194824,-0.325684,0.753906,-1.3125,60.125,14.75,-0.388789,-0.316684,1.9738
2503,-34,16,37,-63,-57,29,-24,-5,0.194824,-0.325684,0.753906,-1.3125,60.125,14.75,-0.388789,-0.316684,1.9738
2503,31,-32,-94,21,-106,-61,-95,-20,0.194824,-0.325684,0.753906,-1.3125,60.125,14.75,-0.388789,-0.316684,1.9738
2513,-1,-45,-34,-34,13,-44,35,5,0.300781,-0.265137,0.706055,-3.375,59.125,15,-0.388419,-0.297271,1.97048
2513,59,-6,-25,-31,54,48,22,-2,0.300781,-0.265137,0.706055,-3.375,59.125,15,-0.388419,-0.297271,1.97048
2513,-20,17,26,56,-16,2,-42,8,0.300781,-0.265137,0.706055,-3.375,59.125,15,-0.388419,-0.297271,1.97048
2513,14,-11,43,-31,35,-14,-1,6,0.300781,-0.265137,0.706055,-3.375,59.125,15,-0.388419,-0.297271,1.97048
2525,-73,-10,-8,40,-56,43,-12,-26,0.806152,-0.164062,1.45117,-4.8125,58.9375,9.1875,-0.378735,-0.286366,1.96273
2525,53,3,-5,-43,-60,-20,-37,17,0.806152,-0.164062,1.45117,-4.8125,58.9375,9.1875,-0.378735,-0.286366,1.96273
2525,11,-14,-44,36,17,-26,-42,10,0.806152,-0.164062,1.45117,-4.8125,58.9375,9.1875,-0.378735,-0.286366,1.96273
2525,-15,-8,-19,-71,-11,22,-74,-30,0.806152,-0.164062,1.45117,-4.8125,58.9375,9.1875,-0.378735,-0.286366,1.96273
2533,-44,-16,-54,-12,60,-68,65,-4,-0.116211,-0.586426,0.654785,1.125,59.5625,7.1875,-0.38432,-0.258103,1.95916
2533,-30,3,65,-79,-4,29,-31,-12,-0.116211,-0.586426,0.654785,1.125,59.5625,7.1875,-0.38432,-0.258103,1.95916
2556,-13,-6,39,123,38,14,6,8,-0.116211,-0.586426,0.654785,1.125,59.5625,7.1875,-0.38432,-0.258103,1.95916
2556,12,-11,-55,-128,-128,-33,-7,8,-0.116211,-0.586426,0.654785,1.125,59.5625,7.1875,-0.38432,-0.258103,1.95916
2557,54,-7,26,111,85,-14,27,18,0.683594,-0.0708008,1.86768,-8.5625,58.5625,14.375,-0.37074,-0.24337,1.95229
2557,-72,-14,-53,14,35,-24,31,-26,0.683594,-0.0708008,1.86768,-8.5625,58.5625,14.375,-0.37074,-0.24337,1.95229
2562,21,0,-50,-128,-110,-65,-36,-27,0.683594,-0.0708008,1.86768,-8.5625,58.5625,14.375,-0.37074,-0.24337,1.95229
2562,-29,7,89,127,121,107,77,-23,0.683594,-0.0708008,1.86768,-8.5625,58.5625,14.375,-0.37074,-0.24337,1.95229
2571,-60,13,36,-67,-20,-24,47,11,0.154297,-0.0961914,0.845215,-5.6875,53.75,17.5,-0.367091,-0.222866,1.95
2571,16,-1,-42,-39,-86,12,54,15,0.154297,-0.0961914,0.845215,-5.6875,53.75,17.5,-0.367091,-0.222866,1.95
2593,-7,-5,-25,-128,-13,-57,5,-22,0.154297,-0.0961914,0.845215,-5.6875,53.75,17.5,-0.367091,-0.222866,1.95
2593,16,-2,6,74,49,8,-17,-4,0.154297,-0.0961914,0.845215,-5.6875,53.75,17.5,-0.367091,-0.222866,1.95
2595,-5,2,-2,-83,-92,-11,-26,5,-0.421875,-0.477539,0,5.4375,54.1875,16.8125,-0.375798,-0.192322,1.95073
2595,-30,15,8,47,107,9,4,0,-0.421875,-0.477539,0,5.4375,54.1875,16.8125,-0.375798,-0.192322,1.95073
2615,6,-18,-7,-18,-45,7,-77,-15,-0.421875,-0.477539,0,5.4375,54.1875,16.8125,-0.375798,-0.192322,1.95073
2615,-11,-8,-6,-14,58,4,4,-12,-0.421875,-0.477539,0,5.4375,54.1875,16.8125,-0.375798,-0.192322,1.95073
2624,28,16,23,121,126,41,18,25,-0.164062,-0.604004,0.713379,8.8125,52.125,14.375,-0.379694,-0.165986,1.94993
2624,-12,12,35,-33,-64,-18,-51,1,-0.164062,-0.604004,0.713379,8.8125,52.125,14.375,-0.379694,-0.165986,1.94993
2624,-8,-4,11,-6,-64,-12,48,-6,-0.164062,-0.604004,0.713379,8.8125,52.125,14.375,-0.379694,-0.165986,1.94993
2624,31,10,-20,2,19,17,38,11,-0.164062,-0.604004,0.713379,8.8125,52.125,14.375,-0.379694,-0.165986,1.94993
2637,51,-23,8,-63,-67,-29,-30,-14,0.592773,-0.224609,1.81396,2.375,48.9375,13.0625,-0.36732,-0.156162,1.94623
2637,-22,3,-18,79,88,36,11,-1,0.592773,-0.224609,1.81396,2.375,48.9375,13.0625,-0.36732,-0.156162,1.94623
2653,-10,11,42,20,-23,-44,37,23,0.592773,-0.224609,1.81396,2.375,48.9375,13.0625,-0.36732,-0.156162,1.94623
2653,-27,-19,-63,-127,-128,4,-22,-22,0.592773,-0.224609,1.81396,2.375,48.9375,13.0625,-0.36732,-0.156162,1.94623
2655,70,14,31,63,74,22,17,37,0.421875,0.000488281,1.4082,1.9375,44.8125,19.5625,-0.354523,-0.144741,1.9452
2655,-4,7,-8,-70,-69,22,33,-13,0.421875,0.000488281,1.4082,1.9375,44.8125,19.5625,-0.354523,-0.144741,1.9452
2667,-65,-4,52,3,14,-45,-33,-16,0.421875,0.000488281,1.4082,1.9375,44.8125,19.5625,-0.354523,-0.144741,1.9452
2667,80,-17,-14,62,30,85,54,56,0.421875,0.000488281,1.4082,1.9375,44.8125,19.5625,-0.354523,-0.144741,1.9452
2674,-48,15,22,16,42,-39,-29,-32,-0.339355,-0.395996,0.223145,10.5,37.875,22.375,-0.358326,-0.120583,1.94892
2674,30,19,60,-47,-85,-44,-44,0,-0.339355,-0.395996,0.223145,10.5,37.875,22.375,-0.358326,-0.120583,1.94892
2682,26,-10,-85,63,71,30,-25,17,-0.339355,-0.395996,0.223145,10.5,37.875,22.375,-0.358326,-0.120583,1.94892
2682,43,20,72,5,27,-35,14,0,-0.339355,-0.395996,0.223145,10.5,37.875,22.375,-0.358326,-0.120583,1.94892
2691,-54,-14,-81,-69,-69,9,11,3,-0.291016,-0.638184,0.383789,24,34.0625,18.625,-0.3614,-0.0985816,1.95209
2691,43,0,11,76,77,27,-3,4,-0.291016,-0.638184,0.383789,24,34.0625,18.625,-0.3614,-0.0985816,1.95209
2713,-72,13,27,-8,24,26,7,-3,-0.291016,-0.638184,0.383789,24,34.0625,18.625,-0.3614,-0.0985816,1.95209
2713,9,2,-14,-56,-88,-36,-7,11,-0.291016,-0.638184,0.383789,24,34.0625,18.625,-0.3614,-0.0985816,1.95209
2714,-38,-19,9,97,114,-41,-22,-47,0.477539,-0.303223,1.58887,15.75,30.3125,21.25,-0.349654,-0.0942207,1.95463
2714,-5,11,39,-72,-58,5,-48,12,0.477539,-0.303223,1.58887,15.75,30.3125,21.25,-0.349654,-0.0942207,1.95463
2736,85,-17,-17,-83,-38,15,5,13,0.477539,-0.303223,1.58887,15.75,30.3125,21.25,-0.349654,-0.0942207,1.95463
2736,-70,15,1,102,103,-37,-89,-2,0.477539,-0.303223,1.58887,15.75,30.3125,21.25,-0.349654,-0.0942207,1.95463
2737,-76,-3,26,-128,-128,62,94,-42,0.487793,-0.0541992,1.51855,10,25.4375,22.1875,-0.33539,-0.0920645,1.95793
2737,10,-4,-55,-30,-41,44,-35,13,0.487793,-0.0541992,1.51855,10,25.4375,22.1875,-0.33539,-0.0920645,1.95793
2742,-3,26,109,127,95,-1,13,21,0.487793,-0.0541992,1.51855,10,25.4375,22.1875,-0.33539,-0.0920645,1.95793
2742,-56,-40,-55,-64,-20,-5,-70,-39,0.487793,-0.0541992,1.51855,10,25.4375,22.1875,-0.33539,-0.0920645,1.95793
2751,66,14,-15,-43,-51,-47,-16,54,-0.293457,-0.392578,0.230469,15.6875,20.8125,19.9375,-0.337371,-0.0750818,1.96274
2751,-13,-1,49,93,67,36,15,-22,-0.293457,-0.392578,0.230469,15.6875,20.8125,19.9375,-0.337371,-0.0750818,1.96274
2764,20,35,37,-3,17,-8,31,22,-0.293457,-0.392578,0.230469,15.6875,20.8125,19.9375,-0.337371,-0.0750818,1.96274
2764,-18,6,21,-34,-69,-59,-30,-11,-0.293457,-0.392578,0.230469,15.6875,20.8125,19.9375,-0.337371,-0.0750818,1.96274
2773,56,-22,-96,-27,-25,5,-16,-1,-0.359863,-0.644043,0.178223,19.4375,17.4375,13.0625,-0.34395,-0.0586844,1.96594
2773,-66,-18,-33,63,-42,21,53,-17,-0.359863,-0.644043,0.178223,19.4375,17.4375,13.0625,-0.34395,-0.0586844,1.96594
2788,32,10,-20,-57,10,-10,-97,-8,-0.359863,-0.644043,0.178223,19.4375,17.4375,13.0625,-0.34395,-0.0586844,1.96594
2788,10,-10,75,80,49,-5,9,-5,-0.359863,-0.644043,0.178223,19.4375,17.4375,13.0625,-0.34395,-0.0586844,1.96594
2794,29,9,5,-37,-61,21,4,17,0.417969,-0.317871,1.47412,6.9375,16.875,11.625,-0.336999,-0.0599671,1.96753
2794,78,9,-14,-26,53,-54,17,16,0.417969,-0.317871,1.47412,6.9375,16.875,11.625,-0.336999,-0.0599671,1.96753
2802,-100,-14,-19,-37,-119,34,-72,-39,0.417969,-0.317871,1.47412,6.9375,16.875,11.625,-0.336999,-0.0599671,1.96753
2802,15,5,9,-40,29,-6,78,-29,0.417969,-0.317871,1.47412,6.9375,16.875,11.625,-0.336999,-0.0599671,1.96753
2817,54,6,17,-8,21,-15,14,22,0.498535,-0.0112305,1.47998,-0.0625,14.6875,11,-0.325593,-0.0639794,1.96874
2817,17,-5,-7,-8,-11,-41,-120,-13,0.498535,-0.0112305,1.47998,-0.0625,14.6875,11,-0.325593,-0.0639794,1.96874
2832,-61,-18,10,67,19,40,127,10,0.498535,-0.0112305,1.47998,-0.0625,14.6875,11,-0.325593,-0.0639794,1.96874
2832,-2,7,-51,-9,-68,-35,-3,11,0.498535,-0.0112305,1.47998,-0.0625,14.6875,11,-0.325593,-0.0639794,1.96874
2839,-1,4,38,-52,76,-66,-73,1,-0.296875,-0.369141,0.212402,0.5,9.625,13.375,-0.332377,-0.0516651,1.9725
2839,-2,-33,-37,-35,-23,51,55,-1,-0.296875,-0.369141,0.212402,0.5,9.625,13.375,-0.332377,-0.0516651,1.9725
2869,70,6,-17,88,21,44,38,40,-0.296875,-0.369141,0.212402,0.5,9.625,13.375,-0.332377,-0.0516651,1.9725
2869,-27,14,-13,-38,-26,-24,-49,-25,-0.296875,-0.369141,0.212402,0.5,9.625,13.375,-0.332377,-0.0516651,1.9725
2879,-64,-14,-18,109,78,5,-14,-16,0.506348,-0.254395,1.51807,-4.5,-0.125,2.5,-0.339214,-0.0515811,1.97505
2879,1,30,68,9,45,-22,-13,9,0.506348,-0.254395,1.51807,-4.5,-0.125,2.5,-0.339214,-0.0515811,1.97505
2893,44,-6,-38,-66,-19,17,6,-8,0.506348,-0.254395,1.51807,-4.5,-0.125,2.5,-0.339214,-0.0515811,1.97505
2893,-97,-44,-91,-119,-63,-13,24,-10,0.506348,-0.254395,1.51807,-4.5,-0.125,2.5,-0.339214,-0.0515811,1.97505
2893,47,0,61,74,21,7,-74,-5,0.506348,-0.254395,1.51807,-4.5,-0.125,2.5,-0.339214,-0.0515811,1.97505
2893,61,3,-23,-103,-95,-93,-2,20,0.506348,-0.254395,1.51807,-4.5,-0.125,2.5,-0.339214,-0.0515811,1.97505
2917,-88,-11,15,75,127,81,-54,-24,0.454102,-0.0244141,1.38672,-15.1875,-2.6875,4.3125,-0.333988,-0.0612093,1.97625
2917,61,24,59,6,-5,-1,-109,27,0.454102,-0.0244141,1.38672,-15.1875,-2.6875,4.3125,-0.333988,-0.0612093,1.97625
2917,-18,-9,-25,-3,14,-27,24,-13,0.454102,-0.0244141,1.38672,-15.1875,-2.6875,4.3125,-0.333988,-0.0612093,1.97625
2917,-53,-12,-28,-44,-42,75,-50,-12,0.454102,-0.0244141,1.38672,-15.1875,-2.6875,4.3125,-0.333988,-0.0612093,1.97625
2918,73,-1,-15,-104,-94,-11,73,12,0.454102,-0.0244141,1.38672,-15.1875,-2.6875,4.3125,-0.333988,-0.0612093,1.97625
2918,-3,8,40,126,95,27,-108,33,0.454102,-0.0244141,1.38672,-15.1875,-2.6875,4.3125,-0.333988,-0.0612093,1.97625
2922,36,-13,-23,-119,-128,-54,87,20,-0.38623,-0.402344,0.116699,-9.5,-1.875,-3.625,-0.345356,-0.0525665,1.97569
2922,-52,10,101,127,119,28,-7,-21,-0.38623,-0.402344,0.116699,-9.5,-1.875,-3.625,-0.345356,-0.0525665,1.97569
2939,-45,8,28,-59,23,-17,8,-10,-0.38623,-0.402344,0.116699,-9.5,-1.875,-3.625,-0.345356,-0.0525665,1.97569
2939,22,3,-2,-86,-94,35,38,9,-0.38623,-0.402344,0.116699,-9.5,-1.875,-3.625,-0.345356,-0.0525665,1.97569
2940,-21,-1,-37,25,-81,4,-42,-9,-0.255371,-0.642578,0.457031,-7.75,-6.25,-6.8125,-0.358673,-0.0485409,1.9747
2940,41,-24,-27,-38,36,-27,52,18,-0.255371,-0.642578,0.457031,-7.75,-6.25,-6.8125,-0.358673,-0.0485409,1.9747
2968,25,5,70,-24,39,-39,-59,-3,-0.255371,-0.642578,0.457031,-7.75,-6.25,-6.8125,-0.358673,-0.0485409,1.9747
2968,-34,-19,-33,-16,-60,-15,43,-42,-0.255371,-0.642578,0.457031,-7.75,-6.25,-6.8125,-0.358673,-0.0485409,1.9747
2969,-4,4,32,40,82,50,-46,-9,0.504395,-0.19873,1.73242,-13.3125,-6.0625,-4.125,-0.352973,-0.0610012,1.97351
2969,25,7,-49,-78,-65,-57,42,5,0.504395,-0.19873,1.73242,-13.3125,-6.0625,-4.125,-0.352973,-0.0610012,1.97351
2991,7,-14,-50,27,-51,82,-27,-6,0.504395,-0.19873,1.73242,-13.3125,-6.0625,-4.125,-0.352973,-0.0610012,1.97351
2991,44,33,67,52,40,-29,59,16,0.504395,-0.19873,1.73242,-13.3125,-6.0625,-4.125,-0.352973,-0.0610012,1.97351
2992,-84,-17,-9,-55,73,37,25,-2,0.288574,-0.0297852,1.23486,-17.4375,-5.75,-2.1875,-0.349276,-0.0682944,1.97291
2992,-67,5,88,24,-59,-9,-3,-6,0.288574,-0.0297852,1.23486,-17.4375,-5.75,-2.1875,-0.349276,-0.0682944,1.97291
3005,68,6,-23,18,70,-41,47,12,0.288574,-0.0297852,1.23486,-17.4375,-5.75,-2.1875,-0.349276,-0.0682944,1.97291
3005,-76,-13,-29,-27,-57,-35,-26,-26,0.288574,-0.0297852,1.23486,-17.4375,-5.75,-2.1875,-0.349276,-0.0682944,1.97291
3007,34,4,8,66,25,100,-43,20,-0.48291,-0.462402,0.0981445,-7.375,-6.4375,-3.375,-0.361459,-0.0588341,1.97328
3007,44,32,43,26,52,-34,82,23,-0.48291,-0.462402,0.0981445,-7.375,-6.4375,-3.375,-0.361459,-0.0588341,1.97328
3019,-35,-1,-21,-52,-23,-55,-36,-26,-0.48291,-0.462402,0.0981445,-7.375,-6.4375,-3.375,-0.361459,-0.0588341,1.97328
3019,-18,-30,-40,-94,-48,-26,-11,-17,-0.48291,-0.462402,0.0981445,-7.375,-6.4375,-3.375,-0.361459,-0.0588341,1.97328
3028,42,5,52,97,15,-23,-6,31,0.41748,-0.241699,1.24658,-14.3125,-8.0625,-1.8125,-0.36114,-0.0697302,1.97329
3028,-5,-19,27,-67,-64,21,13,-11,0.41748,-0.241699,1.24658,-14.3125,-8.0625,-1.8125,-0.36114,-0.0697302,1.97329
3043,-2,-1,9,2,-12,48,-24,5,0.41748,-0.241699,1.24658,-14.3125,-8.0625,-1.8125,-0.36114,-0.0697302,1.97329
3043,17,9,11,99,127,-14,-26,8,0.41748,-0.241699,1.24658,-14.3125,-8.0625,-1.8125,-0.36114,-0.0697302,1.97329
3050,44,-15,-86,-123,-86,11,-9,-4,0.0263672,-0.338379,0.939453,-12.375,-7.625,-4,-0.36501,-0.0716485,1.9729
3050,47,4,-22,12,12,39,32,11,0.0263672,-0.338379,0.939453,-12.375,-7.625,-4,-0.36501,-0.0716485,1.9729
3065,-31,1,-9,97,-10,-89,61,-20,0.0263672,-0.338379,0.939453,-12.375,-7.625,-4,-0.36501,-0.0716485,1.9729
3065,13,6,50,-31,39,67,-10,14,0.0263672,-0.338379,0.939453,-12.375,-7.625,-4,-0.36501,-0.0716485,1.9729
3067,-29,1,-36,-28,-86,-15,35,-10,0.0429688,-0.357422,0.941406,-8.4375,-9,-3.5,-0.367785,-0.0742398,1.97285
3067,15,-15,-45,-56,4,22,-65,10,0.0429688,-0.357422,0.941406,-8.4375,-9,-3.5,-0.367785,-0.0742398,1.97285
3096,-30,-14,-5,-100,-92,-88,70,-18,0.0429688,-0.357422,0.941406,-8.4375,-9,-3.5,-0.367785,-0.0742398,1.97285
3096,45,4,-25,47,34,-51,98,10,0.0429688,-0.357422,0.941406,-8.4375,-9,-3.5,-0.367785,-0.0742398,1.97285
3097,-77,13,18,-36,123,-3,-27,-21,0.015625,-0.354492,0.924805,-4.1875,-8.625,-2.625,-0.369128,-0.0758076,1.97319
3097,-6,7,-3,127,105,49,-2,-9,0.015625,-0.354492,0.924805,-4.1875,-8.625,-2.625,-0.369128,-0.0758076,1.97319
3118,46,22,27,-65,28,-22,-54,12,0.0327148,-0.34375,0.921875,-5.3125,-10.0625,-2.25,-0.370693,-0.0783849,1.97364
3118,11,0,-42,-112,-95,29,-7,28,0.0327148,-0.34375,0.921875,-5.3125,-10.0625,-2.25,-0.370693,-0.0783849,1.97364
3118,-14,-14,-44,-90,-32,-41,0,-34,0.0327148,-0.34375,0.921875,-5.3125,-10.0625,-2.25,-0.370693,-0.0783849,1.97364
3118,-41,-5,59,96,67,-40,-10,-5,0.0327148,-0.34375,0.921875,-5.3125,-10.0625,-2.25,-0.370693,-0.0783849,1.97364
3126,-46,9,16,-96,8,58,2,13,0.0385742,-0.359863,0.882324,-5.75,-13.125,-1.9375,-0.37311,-0.0818452,1.97464
3126,58,-26,-76,-18,-61,-29,-15,-6,0.0385742,-0.359863,0.882324,-5.75,-13.125,-1.9375,-0.37311,-0.0818452,1.97464
3133,-2,19,46,7,30,-48,-16,3,-0.0415039,-0.347168,0.682129,-4,-15.125,-3.625,-0.376301,-0.0846387,1.97567
3133,-14,-2,5,-32,-25,71,12,15,-0.0415039,-0.347168,0.682129,-4,-15.125,-3.625,-0.376301,-0.0846387,1.97567
3147,42,6,0,65,11,15,2,-4,-0.0415039,-0.347168,0.682129,-4,-15.125,-3.625,-0.376301,-0.0846387,1.97567
3147,39,8,51,-83,12,5,54,22,-0.0415039,-0.347168,0.682129,-4,-15.125,-3.625,-0.376301,-0.0846387,1.97567
3156,-5,-12,6,81,60,-25,-80,-10,0.0146484,-0.475586,1.32764,-18.6875,-5.1875,-4.125,-0.38143,-0.0842252,1.97482
3156,7,-4,-43,-9,-46,-38,-75,-12,0.0146484,-0.475586,1.32764,-18.6875,-5.1875,-4.125,-0.38143,-0.0842252,1.97482
3172,-49,-14,-51,-67,-35,-59,35,19,0.0146484,-0.475586,1.32764,-18.6875,-5.1875,-4.125,-0.38143,-0.0842252,1.97482
3172,6,-9,-17,53,21,108,-21,-50,0.0146484,-0.475586,1.32764,-18.6875,-5.1875,-4.125,-0.38143,-0.0842252,1.97482
3173,117,39,87,78,10,-34,1,45,-0.500977,-0.354492,0.326172,-0.6875,-7.375,-4.25,-0.3866,-0.0743017,1.97488
3173,-94,-10,-49,94,26,-58,-39,-56,-0.500977,-0.354492,0.326172,-0.6875,-7.375,-4.25,-0.3866,-0.0743017,1.97488
3203,48,3,24,-48,13,-22,-77,13,-0.500977,-0.354492,0.326172,-0.6875,-7.375,-4.25,-0.3866,-0.0743017,1.97488
3203,73,-5,-67,-110,-107,5,-3,32,-0.500977,-0.354492,0.326172,-0.6875,-7.375,-4.25,-0.3866,-0.0743017,1.97488
3204,-91,-12,-19,86,93,40,39,-42,-0.307617,-0.503906,0.79541,-2.25,-8.3125,1.375,-0.391519,-0.06767,1.97666
3204,85,26,13,14,-11,16,5,19,-0.307617,-0.503906,0.79541,-2.25,-8.3125,1.375,-0.391519,-0.06767,1.97666
3231,-11,-33,-110,-40,16,14,-34,-14,-0.307617,-0.503906,0.79541,-2.25,-8.3125,1.375,-0.391519,-0.06767,1.97666
3231,-39,21,88,-15,-36,-25,-9,4,-0.307617,-0.503906,0.79541,-2.25,-8.3125,1.375,-0.391519,-0.06767,1.97666
3238,39,-32,-69,-42,-31,-45,36,1,0.619141,-0.421387,1.58887,-7.375,-6.5,0.1875,-0.389853,-0.0895011,1.97827
3238,5,11,38,-57,-24,17,66,18,0.619141,-0.421387,1.58887,-7.375,-6.5,0.1875,-0.389853,-0.0895011,1.97827
3261,-94,-16,66,39,-28,-32,-66,-63,0.619141,-0.421387,1.58887,-7.375,-6.5,0.1875,-0.389853,-0.0895011,1.97827
3261,24,21,41,23,117,49,8,15,0.619141,-0.421387,1.58887,-7.375,-6.5,0.1875,-0.389853,-0.0895011,1.97827
3268,23,9,-5,-20,-100,39,39,5,0.755371,-0.254395,1.6001,-5.125,-8.3125,-4.75,-0.382512,-0.107317,1.9768
3268,-53,-13,-29,39,25,-8,24,-19,0.755371,-0.254395,1.6001,-5.125,-8.3125,-4.75,-0.382512,-0.107317,1.9768
3292,111,-6,-18,69,-46,13,-17,17,0.755371,-0.254395,1.6001,-5.125,-8.3125,-4.75,-0.382512,-0.107317,1.9768
3292,-39,5,61,127,85,63,15,-5,0.755371,-0.254395,1.6001,-5.125,-8.3125,-4.75,-0.382512,-0.107317,1.9768
3298,4,16,63,-29,52,-84,3,22,0.554199,-0.138184,1.23828,-11.4375,-6.5625,-4.0625,-0.371288,-0.136982,1.97428
3298,-6,-20,-90,-128,-51,70,-8,-20,0.554199,-0.138184,1.23828,-11.4375,-6.5625,-4.0625,-0.371288,-0.136982,1.97428
3314,35,3,-22,35,56,22,94,17,0.554199,-0.138184,1.23828,-11.4375,-6.5625,-4.0625,-0.371288,-0.136982,1.97428
3314,14,-1,17,65,-44,-95,-57,-49,0.554199,-0.138184,1.23828,-11.4375,-6.5625,-4.0625,-0.371288,-0.136982,1.97428
3319,-43,-4,89,67,94,77,17,9,0.284668,-0.174316,0.919922,-5.5,-2.375,-7.1875,-0.368665,-0.142342,1.97163
3319,43,1,4,-37,-21,-8,-61,38,0.284668,-0.174316,0.919922,-5.5,-2.375,-7.1875,-0.368665,-0.142342,1.97163
3343,-54,-9,-61,-84,-2,-37,-25,-15,0.284668,-0.174316,0.919922,-5.5,-2.375,-7.1875,-0.368665,-0.142342,1.97163
3343,39,-1,-42,-48,2,11,38,30,0.284668,-0.174316,0.919922,-5.5,-2.375,-7.1875,-0.368665,-0.142342,1.97163
3351,-35,-7,-14,-32,-105,-7,-23,-44,-0.0498047,-0.177246,0.584473,2,1.1875,-5.375,-0.366652,-0.139396,1.96961
3351,-32,-7,-19,-87,-49,-66,2,-18,-0.0498047,-0.177246,0.584473,2,1.1875,-5.375,-0.366652,-0.139396,1.96961
3352,100,-4,-24,-56,-66,63,-59,26,-0.0498047,-0.177246,0.584473,2,1.1875,-5.375,-0.366652,-0.139396,1.96961
3352,-85,-10,47,58,72,-15,-3,-38,-0.0498047,-0.177246,0.584473,2,1.1875,-5.375,-0.366652,-0.139396,1.96961
3359,-5,0,-38,64,48,-10,-69,8,-0.348145,-0.295898,0.407715,-2.875,0.625,-2.3125,-0.370596,-0.129539,1.96925
3359,51,-11,-40,2,75,50,78,8,-0.348145,-0.295898,0.407715,-2.875,0.625,-2.3125,-0.370596,-0.129539,1.96925
3372,-11,12,20,-77,-49,79,73,-8,-0.348145,-0.295898,0.407715,-2.875,0.625,-2.3125,-0.370596,-0.129539,1.96925
3372,-37,1,-1,42,54,-2,-38,-5,-0.348145,-0.295898,0.407715,-2.875,0.625,-2.3125,-0.370596,-0.129539,1.96925
3381,32,15,44,-7,-121,-28,2,25,-0.523926,-0.398926,0.306641,-2.375,1.1875,3.3125,-0.377766,-0.114995,1.97082
3381,-72,-10,-44,-38,12,-60,-10,-24,-0.523926,-0.398926,0.306641,-2.375,1.1875,3.3125,-0.377766,-0.114995,1.97082
3396,24,11,48,112,120,8,-5,13,-0.523926,-0.398926,0.306641,-2.375,1.1875,3.3125,-0.377766,-0.114995,1.97082
3396,32,-17,36,-104,-115,-16,36,-3,-0.523926,-0.398926,0.306641,-2.375,1.1875,3.3125,-0.377766,-0.114995,1.97082
3401,-97,-24,-41,64,106,37,-11,-27,-0.59668,-0.469238,0.265137,1.625,2.375,2.25,-0.385508,-0.0984926,1.97227
3401,53,-2,-12,14,38,-18,-15,11,-0.59668,-0.469238,0.265137,1.625,2.375,2.25,-0.385508,-0.0984926,1.97227
3418,-8,3,-3,-48,-70,-28,-22,-7,-0.59668,-0.469238,0.265137,1.625,2.375,2.25,-0.385508,-0.0984926,1.97227
3418,-47,1,-59,96,127,10,48,-1,-0.59668,-0.469238,0.265137,1.625,2.375,2.25,-0.385508,-0.0984926,1.97227
3420,93,20,44,-22,-37,17,6,-5,-0.502441,-0.510254,0.35791,4.125,6.0625,-2.625,-0.392048,-0.083625,1.97128
3420,-3,-8,12,-12,-36,-90,-111,15,-0.502441,-0.510254,0.35791,4.125,6.0625,-2.625,-0.392048,-0.083625,1.97128
3448,-98,-21,-23,25,-17,28,-8,-18,-0.502441,-0.510254,0.35791,4.125,6.0625,-2.625,-0.392048,-0.083625,1.97128
3448,0,-5,-26,-95,2,82,19,-12,-0.502441,-0.510254,0.35791,4.125,6.0625,-2.625,-0.392048,-0.083625,1.97128
3465,38,-2,-6,-23,-68,-52,25,5,0.558594,-0.293457,1.0957,-1.375,-0.25,0.875,-0.388936,-0.0947541,1.97135
3465,-19,4,-10,127,127,77,3,-8,0.558594,-0.293457,1.0957,-1.375,-0.25,0.875,-0.388936,-0.0947541,1.97135
3466,20,17,1,-1,-65,-96,-13,33,0.558594,-0.293457,1.0957,-1.375,-0.25,0.875,-0.388936,-0.0947541,1.97135
3466,18,-15,-19,-36,21,31,41,18,0.558594,-0.293457,1.0957,-1.375,-0.25,0.875,-0.388936,-0.0947541,1.97135
3477,-16,3,-3,55,-8,44,-11,-13,0.129395,-0.416016,0.941895,-2.3125,6.9375,2.125,-0.390422,-0.0929599,1.97117
3477,13,26,53,33,74,23,6,15,0.129395,-0.416016,0.941895,-2.3125,6.9375,2.125,-0.390422,-0.0929599,1.97117
3485,-10,-2,23,8,-6,-60,-6,13,0.129395,-0.416016,0.941895,-2.3125,6.9375,2.125,-0.390422,-0.0929599,1.97117
3485,-77,-14,0,-54,-80,-50,-50,-42,0.129395,-0.416016,0.941895,-2.3125,6.9375,2.125,-0.390422,-0.0929599,1.97117
3492,4,-9,-46,-128,-38,-21,10,6,0.0566406,-0.401367,0.909668,-0.0625,5.5625,0.3125,-0.390888,-0.0902873,1.9706
3492,39,2,19,127,0,-3,-13,-4,0.0566406,-0.401367,0.909668,-0.0625,5.5625,0.3125,-0.390888,-0.0902873,1.9706
3501,54,-4,13,-69,15,38,44,10,0.0566406,-0.401367,0.909668,-0.0625,5.5625,0.3125,-0.390888,-0.0902873,1.9706
3501,-21,14,14,-33,-69,-72,-2,15,0.0566406,-0.401367,0.909668,-0.0625,5.5625,0.3125,-0.390888,-0.0902873,1.9706
3502,2,-4,-12,-84,26,24,-7,13,0.0390625,-0.330078,0.866211,4.8125,7.3125,-2.9375,-0.388482,-0.0873414,1.9686
3502,43,1,3,34,-20,-74,20,10,0.0390625,-0.330078,0.866211,4.8125,7.3125,-2.9375,-0.388482,-0.0873414,1.9686
3523,-100,-3,40,-27,55,95,0,-40,0.0390625,-0.330078,0.866211,4.8125,7.3125,-2.9375,-0.388482,-0.0873414,1.9686
3523,69,8,-22,-46,-9,-86,-36,36,0.0390625,-0.330078,0.866211,4.8125,7.3125,-2.9375,-0.388482,-0.0873414,1.9686
3530,47,-5,-6,33,78,80,45,20,0.0888672,-0.344727,0.901855,4,3.375,-0.0625,-0.386515,-0.0862788,1.96812
3530,86,15,11,-19,22,-67,35,2,0.0888672,-0.344727,0.901855,4,3.375,-0.0625,-0.386515,-0.0862788,1.96812
3546,-33,1,6,48,46,99,-53,-30,0.0888672,-0.344727,0.901855,4,3.375,-0.0625,-0.386515,-0.0862788,1.96812
3546,-50,0,41,97,-4,-37,-6,4,0.0888672,-0.344727,0.901855,4,3.375,-0.0625,-0.386515,-0.0862788,1.96812
3547,2,10,-97,-67,-68,-48,-33,6,0.0668945,-0.378418,0.930664,5,6.125,2.5625,-0.384805,-0.0836381,1.96819
3547,-28,-33,-13,-128,-128,-22,9,-15,0.0668945,-0.378418,0.930664,5,6.125,2.5625,-0.384805,-0.0836381,1.96819
3575,11,1,-5,127,127,-29,-57,-4,0.0668945,-0.378418,0.930664,5,6.125,2.5625,-0.384805,-0.0836381,1.96819
3575,2,8,-2,61,-30,31,37,5,0.0668945,-0.378418,0.930664,5,6.125,2.5625,-0.384805,-0.0836381,1.96819
3593,59,5,44,-9,9,-7,15,9,0.0693359,-0.330566,0.950684,4.6875,6.4375,-0.6875,-0.379896,-0.0787954,1.96647
3593,-24,-7,-11,-20,40,48,-14,-12,0.0693359,-0.330566,0.950684,4.6875,6.4375,-0.6875,-0.379896,-0.0787954,1.96647
3622,29,10,-52,-29,3,-28,42,32,0.0693359,-0.330566,0.950684,4.6875,6.4375,-0.6875,-0.379896,-0.0787954,1.96647
3622,46,-1,-18,-48,-23,9,-14,-3,0.0693359,-0.330566,0.950684,4.6875,6.4375,-0.6875,-0.379896,-0.0787954,1.96647
3627,-68,-12,2,-20,7,-33,-3,-17,-0.0126953,-0.331543,0.650879,11.3125,-8.5625,0.25,-0.375676,-0.0785608,1.9682
3627,-52,-5,-9,-26,-96,40,-65,-7,-0.0126953,-0.331543,0.650879,11.3125,-8.5625,0.25,-0.375676,-0.0785608,1.9682
3652,29,1,13,-86,-13,-86,21,4,-0.0126953,-0.331543,0.650879,11.3125,-8.5625,0.25,-0.375676,-0.0785608,1.9682
3652,56,0,38,115,24,76,-31,5,-0.0126953,-0.331543,0.650879,11.3125,-8.5625,0.25,-0.375676,-0.0785608,1.9682
3653,-18,-2,-10,25,59,-80,41,-4,-0.143555,-0.442383,1.00195,2.75,3.75,-2.25,-0.3722,-0.0790919,1.96807
3653,25,21,43,44,6,101,-31,1,-0.143555,-0.442383,1.00195,2.75,3.75,-2.25,-0.3722,-0.0790919,1.96807
3664,-59,-18,2,-47,-78,-62,14,-11,-0.143555,-0.442383,1.00195,2.75,3.75,-2.25,-0.3722,-0.0790919,1.96807
3664,20,10,22,-76,-34,-68,-24,-12,-0.143555,-0.442383,1.00195,2.75,3.75,-2.25,-0.3722,-0.0790919,1.96807
3665,-28,-6,-11,28,10,49,-28,-19,-0.143555,-0.442383,1.00195,2.75,3.75,-2.25,-0.3722,-0.0790919,1.96807
3665,-44,-8,12,35,110,-7,80,7,-0.143555,-0.442383,1.00195,2.75,3.75,-2.25,-0.3722,-0.0790919,1.96807
3680,77,11,-3,89,4,15,-14,9,-0.143555,-0.442383,1.00195,2.75,3.75,-2.25,-0.3722,-0.0790919,1.96807
3680,-55,-9,-41,-120,-29,-50,-43,-8,-0.143555,-0.442383,1.00195,2.75,3.75,-2.25,-0.3722,-0.0790919,1.96807
3687,-13,-33,-57,-17,-116,-4,-13,-20,0.120605,-0.260254,0.622559,12.875,-8.4375,0.1875,-0.368249,-0.0833331,1.9692
3687,30,10,32,89,63,6,32,19,0.120605,-0.260254,0.622559,12.875,-8.4375,0.1875,-0.368249,-0.0833331,1.9692
3703,-18,8,74,2,-85,-9,-23,-10,0.120605,-0.260254,0.622559,12.875,-8.4375,0.1875,-0.368249,-0.0833331,1.9692
3703,13,-5,-40,-82,-31,-8,29,-10,0.120605,-0.260254,0.622559,12.875,-8.4375,0.1875,-0.368249,-0.0833331,1.9692
3711,-11,-17,23,90,69,80,20,7,0.09375,-0.437988,1.24365,-1.875,5.875,0.5,-0.367907,-0.0809967,1.96868
3711,33,4,11,-114,-112,-35,70,10,0.09375,-0.437988,1.24365,-1.875,5.875,0.5,-0.367907,-0.0809967,1.96868
3717,-9,7,0,3,20,10,100,-13,0.09375,-0.437988,1.24365,-1.875,5.875,0.5,-0.367907,-0.0809967,1.96868
3717,2,-9,0,26,42,32,-40,14,0.09375,-0.437988,1.24365,-1.875,5.875,0.5,-0.367907,-0.0809967,1.96868
3726,54,13,13,-90,-113,-15,-30,31,-0.0268555,-0.290527,0.54541,14.875,-7.0625,-4.1875,-0.364482,-0.0819008,1.96829
3726,-66,-32,-109,13,18,-44,-59,-40,-0.0268555,-0.290527,0.54541,14.875,-7.0625,-4.1875,-0.364482,-0.0819008,1.96829
3740,20,15,66,114,127,71,13,11,-0.0268555,-0.290527,0.54541,14.875,-7.0625,-4.1875,-0.364482,-0.0819008,1.96829
3740,-38,-9,-4,2,-20,-67,65,14,-0.0268555,-0.290527,0.54541,14.875,-7.0625,-4.1875,-0.364482,-0.0819008,1.96829
3750,63,-19,-9,-107,-48,10,18,-7,0.189453,-0.356445,1.25977,-5.75,0.6875,-0.5625,-0.363576,-0.0837615,1.96783
3750,-64,-18,-49,36,-60,-33,-25,-25,0.189453,-0.356445,1.25977,-5.75,0.6875,-0.5625,-0.363576,-0.0837615,1.96783
3750,44,5,-3,22,64,-31,17,12,0.189453,-0.356445,1.25977,-5.75,0.6875,-0.5625,-0.363576,-0.0837615,1.96783
3750,-7,11,-37,81,89,72,-27,-2,0.189453,-0.356445,1.25977,-5.75,0.6875,-0.5625,-0.363576,-0.0837615,1.96783
3762,5,19,108,30,-2,-9,7,6,-0.0668945,-0.345215,0.486816,12.6875,-10.875,-2.375,-0.36287,-0.0847417,1.96871
3762,-19,-24,-24,-59,12,-62,-66,-6,-0.0668945,-0.345215,0.486816,12.6875,-10.875,-2.375,-0.36287,-0.0847417,1.96871
3770,78,-14,-33,-35,-89,63,20,0,-0.0668945,-0.345215,0.486816,12.6875,-10.875,-2.375,-0.36287,-0.0847417,1.96871
3770,-72,-9,35,81,-2,-11,59,-16,-0.0668945,-0.345215,0.486816,12.6875,-10.875,-2.375,-0.36287,-0.0847417,1.96871
3770,10,7,-24,23,67,-37,-81,-31,-0.0668945,-0.345215,0.486816,12.6875,-10.875,-2.375,-0.36287,-0.0847417,1.96871
3770,62,13,43,45,55,122,-36,32,-0.0668945,-0.345215,0.486816,12.6875,-10.875,-2.375,-0.36287,-0.0847417,1.96871
3785,1,1,-15,-50,-61,-128,43,16,0.229492,-0.345703,1.28906,-7.25,1.375,1.125,-0.36205,-0.0868865,1.96857
3785,5,-32,-36,-35,83,95,-89,-33,0.229492,-0.345703,1.28906,-7.25,1.375,1.125,-0.36205,-0.0868865,1.96857
3786,52,12,-35,19,-22,-76,-37,33,0.229492,-0.345703,1.28906,-7.25,1.375,1.125,-0.36205,-0.0868865,1.96857
3786,-76,-12,66,21,5,59,32,-20,0.229492,-0.345703,1.28906,-7.25,1.375,1.125,-0.36205,-0.0868865,1.96857
3800,-45,-11,-40,-82,30,-2,-62,-9,0.229492,-0.345703,1.28906,-7.25,1.375,1.125,-0.36205,-0.0868865,1.96857
3800,81,2,71,99,-126,5,68,7,0.229492,-0.345703,1.28906,-7.25,1.375,1.125,-0.36205,-0.0868865,1.96857
3808,-14,-6,-29,-50,39,-104,66,7,0.0444336,-0.243164,0.510254,10.4375,-11,-4.625,-0.359577,-0.0908806,1.96853
3808,54,-1,13,4,33,26,-52,6,0.0444336,-0.243164,0.510254,10.4375,-11,-4.625,-0.359577,-0.0908806,1.96853
3825,-114,-11,-29,-8,-17,0,-42,-4,0.0444336,-0.243164,0.510254,10.4375,-11,-4.625,-0.359577,-0.0908806,1.96853
3825,-27,-3,17,-95,-18,-15,52,3,0.0444336,-0.243164,0.510254,10.4375,-11,-4.625,-0.359577,-0.0908806,1.96853
3825,13,7,55,127,-37,71,14,0,-0.256348,-0.457031,0.936523,-4.6875,1.3125,-4.8125,-0.363298,-0.0827136,1.96701
3825,10,27,74,52,65,9,16,-8,-0.256348,-0.457031,0.936523,-4.6875,1.3125,-4.8125,-0.363298,-0.0827136,1.96701
3855,-9,-10,-57,-75,-87,-18,21,5,-0.256348,-0.457031,0.936523,-4.6875,1.3125,-4.8125,-0.363298,-0.0827136,1.96701
3855,21,2,-11,-25,32,-60,-15,1,-0.256348,-0.457031,0.936523,-4.6875,1.3125,-4.8125,-0.363298,-0.0827136,1.96701
3860,-9,-11,-65,-128,-120,102,2,-6,0.0800781,-0.281738,0.549316,3.125,-11.75,-4.5,-0.362707,-0.0974389,1.96916
3860,8,7,4,-125,-61,-37,18,-16,0.0800781,-0.281738,0.549316,3.125,-11.75,-4.5,-0.362707,-0.0974389,1.96916
3882,40,-6,22,127,104,4,37,0,0.0800781,-0.281738,0.549316,3.125,-11.75,-4.5,-0.362707,-0.0974389,1.96916
3882,35,23,11,-65,-38,-23,28,38,0.0800781,-0.281738,0.549316,3.125,-11.75,-4.5,-0.362707,-0.0974389,1.96916
3891,29,11,71,78,83,51,31,-1,-0.281738,-0.412109,0.93457,-0.1875,1.625,-6.6875,-0.363788,-0.0885723,1.96683
3891,-53,-26,-49,-26,1,-10,22,-7,-0.281738,-0.412109,0.93457,-0.1875,1.625,-6.6875,-0.363788,-0.0885723,1.96683
3929,-10,0,-15,-63,-52,-38,-46,-3,0.468262,-0.200684,1.29346,-9.4375,-9.25,3.25,-0.360586,-0.0995908,1.96838
3929,75,26,22,-20,44,-12,-13,22,0.468262,-0.200684,1.29346,-9.4375,-9.25,3.25,-0.360586,-0.0995908,1.96838
3941,-51,-22,-97,41,75,52,12,-3,0.0996094,-0.301758,0.552734,5.0625,-11.5625,-1.375,-0.360984,-0.104321,1.9697
3941,55,15,15,50,-88,-52,-25,21,0.0996094,-0.301758,0.552734,5.0625,-11.5625,-1.375,-0.360984,-0.104321,1.9697
3960,-46,-13,75,0,62,-13,33,-31,0.0996094,-0.301758,0.552734,5.0625,-11.5625,-1.375,-0.360984,-0.104321,1.9697
3960,-45,-17,-42,-38,-48,103,-93,-16,0.0996094,-0.301758,0.552734,5.0625,-11.5625,-1.375,-0.360984,-0.104321,1.9697
3964,-51,2,-45,-128,-69,-49,-2,-20,-0.316406,-0.462891,0.893555,-5.25,-2.0625,-0.75,-0.370467,-0.0855746,1.9698
3964,39,3,17,86,3,-41,9,34,-0.316406,-0.462891,0.893555,-5.25,-2.0625,-0.75,-0.370467,-0.0855746,1.9698
3988,23,4,30,12,43,-24,-94,29,-0.316406,-0.462891,0.893555,-5.25,-2.0625,-0.75,-0.370467,-0.0855746,1.9698
3988,56,23,20,40,59,71,61,0,-0.316406,-0.462891,0.893555,-5.25,-2.0625,-0.75,-0.370467,-0.0855746,1.9698
4003,-44,5,36,-25,36,-97,-104,-9,-0.253418,-0.507324,1.02441,-8.3125,0.25,0.5625,-0.378703,-0.0706633,1.9708
4003,-45,-32,-83,-128,-115,114,14,-29,-0.253418,-0.507324,1.02441,-8.3125,0.25,0.5625,-0.378703,-0.0706633,1.9708
4027,14,26,54,127,63,76,56,2,-0.253418,-0.507324,1.02441,-8.3125,0.25,0.5625,-0.378703,-0.0706633,1.9708
4027,12,-4,-14,75,84,-3,43,-4,-0.253418,-0.507324,1.02441,-8.3125,0.25,0.5625,-0.378703,-0.0706633,1.9708
4028,-44,0,3,-66,3,-78,1,-12,-0.501465,-0.519531,0.623047,-1.125,-0.25,-2.25,-0.385149,-0.0577651,1.97062
4028,23,10,-65,-128,-123,-84,-16,11,-0.501465,-0.519531,0.623047,-1.125,-0.25,-2.25,-0.385149,-0.0577651,1.97062
4064,-37,-39,-108,-71,-15,-4,-48,-26,-0.300781,-0.352539,0.307129,5.625,-3,-5.4375,-0.388173,-0.0515423,1.96947
4064,-45,-7,52,124,37,-28,7,6,-0.300781,-0.352539,0.307129,5.625,-3,-5.4375,-0.388173,-0.0515423,1.96947
4066,29,16,105,13,-27,50,24,9,0.110352,-0.42334,1.06592,-10.9375,2.625,1.625,-0.391632,-0.0517083,1.96972
4066,-39,13,17,-64,12,-44,-10,12,0.110352,-0.42334,1.06592,-10.9375,2.625,1.625,-0.391632,-0.0517083,1.96972
4110,18,6,64,74,-20,41,10,-39,0.110352,-0.42334,1.06592,-10.9375,2.625,1.625,-0.391632,-0.0517083,1.96972
4110,36,-1,-11,-62,5,-37,-40,-8,0.110352,-0.42334,1.06592,-10.9375,2.625,1.625,-0.391632,-0.0517083,1.96972
4122,-22,-23,-83,53,-65,-46,34,18,0.0834961,-0.328613,0.893555,-1.0625,-3.4375,0.8125,-0.391392,-0.0552673,1.9725
4122,-28,5,6,-19,18,51,100,-37,0.0834961,-0.328613,0.893555,-1.0625,-3.4375,0.8125,-0.391392,-0.0552673,1.9725
4132,16,10,10,-99,34,-6,-1,18,0.0834961,-0.328613,0.893555,-1.0625,-3.4375,0.8125,-0.391392,-0.0552673,1.9725
4132,1,20,71,100,58,-24,7,6,0.0834961,-0.328613,0.893555,-1.0625,-3.4375,0.8125,-0.391392,-0.0552673,1.9725
4145,-10,12,35,-74,-27,27,12,11,0.104492,-0.373047,0.898926,-3.5625,-5.5625,1.6875,-0.393385,-0.0603275,1.97443
4145,20,-5,-17,-42,-39,-94,60,4,0.104492,-0.373047,0.898926,-3.5625,-5.5625,1.6875,-0.393385,-0.0603275,1.97443
4169,15,-10,-13,14,-48,82,27,-29,0.104492,-0.373047,0.898926,-3.5625,-5.5625,1.6875,-0.393385,-0.0603275,1.97443
4169,41,1,-59,37,52,-39,-103,22,0.104492,-0.373047,0.898926,-3.5625,-5.5625,1.6875,-0.393385,-0.0603275,1.97443
4171,-24,4,-16,12,21,0,77,9,0.0952148,-0.367676,0.894531,-3.5,-4.3125,0.25,-0.394544,-0.0625893,1.9751
4171,54,17,58,-4,8,9,2,-4,0.0952148,-0.367676,0.894531,-3.5,-4.3125,0.25,-0.394544,-0.0625893,1.9751
4199,-32,-17,6,22,1,-49,-19,-1,0.0952148,-0.367676,0.894531,-3.5,-4.3125,0.25,-0.394544,-0.0625893,1.9751
4199,-39,-21,-63,-69,30,-48,-43,-19,0.0952148,-0.367676,0.894531,-3.5,-4.3125,0.25,-0.394544,-0.0625893,1.9751
4206,56,10,-59,29,-36,33,25,19,0.120117,-0.322754,0.873535,-2.4375,-4.9375,0.0625,-0.394345,-0.0689157,1.97613
4206,50,-7,38,22,26,3,-63,-8,0.120117,-0.322754,0.873535,-2.4375,-4.9375,0.0625,-0.394345,-0.0689157,1.97613
4228,22,4,-24,48,-2,-14,-4,3,0.120117,-0.322754,0.873535,-2.4375,-4.9375,0.0625,-0.394345,-0.0689157,1.97613
4228,-17,-25,-66,-119,-121,-94,-31,-5,0.120117,-0.322754,0.873535,-2.4375,-4.9375,0.0625,-0.394345,-0.0689157,1.97613
4259,28,-5,11,78,81,79,2,-13,0.148438,-0.376953,0.916992,-4.4375,-4,-0.125,-0.39578,-0.0721495,1.97654
4259,-40,5,-1,-44,-102,33,-93,10,0.148438,-0.376953,0.916992,-4.4375,-4,-0.125,-0.39578,-0.0721495,1.97654
4261,-20,-17,-25,-88,92,36,64,-4,0.133789,-0.36377,0.900879,-4.4375,-2.875,-0.75,-0.397024,-0.0745739,1.97669
4261,-84,21,49,91,-4,50,107,-12,0.133789,-0.36377,0.900879,-4.4375,-2.875,-0.75,-0.397024,-0.0745739,1.97669
4264,42,-1,13,-8,-36,-98,-105,-10,0.0849609,-0.3125,0.874512,-0.875,-3.3125,-3.3125,-0.396009,-0.0764312,1.97597
4264,-45,-22,4,40,19,54,-81,-7,0.0849609,-0.3125,0.874512,-0.875,-3.3125,-3.3125,-0.396009,-0.0764312,1.97597
4280,4,31,44,71,66,23,14,11,0.0849609,-0.3125,0.874512,-0.875,-3.3125,-3.3125,-0.396009,-0.0764312,1.97597
4280,36,5,9,-83,-60,-31,12,-11,0.0849609,-0.3125,0.874512,-0.875,-3.3125,-3.3125,-0.396009,-0.0764312,1.97597
4288,-69,-14,46,-67,-64,-15,-52,-11,0.105469,-0.319824,0.909668,-2.0625,-4.875,-0.8125,-0.395375,-0.0787704,1.97629
4288,28,-8,65,111,124,-17,-8,-7,0.105469,-0.319824,0.909668,-2.0625,-4.875,-0.8125,-0.395375,-0.0787704,1.97629
4311,-63,-7,-48,-90,-79,-48,-70,22,0.105469,-0.319824,0.909668,-2.0625,-4.875,-0.8125,-0.395375,-0.0787704,1.97629
4311,43,-17,-38,-7,-47,16,15,-10,0.105469,-0.319824,0.909668,-2.0625,-4.875,-0.8125,-0.395375,-0.0787704,1.97629
4316,-20,17,-8,125,111,25,-31,-6,0.100586,-0.366211,0.903809,-1.9375,-3.5,-0.1875,-0.397802,-0.0828603,1.97776
4316,23,-1,-81,-127,-95,-9,57,13,0.100586,-0.366211,0.903809,-1.9375,-3.5,-0.1875,-0.397802,-0.0828603,1.97776
4349,70,0,54,33,-57,-2,-23,5,0.100586,-0.366211,0.903809,-1.9375,-3.5,-0.1875,-0.397802,-0.0828603,1.97776
4349,-41,-1,52,59,-41,-89,-23,18,0.100586,-0.366211,0.903809,-1.9375,-3.5,-0.1875,-0.397802,-0.0828603,1.97776
4351,62,-14,-10,-128,-51,87,-46,-9,0.0805664,-0.320801,0.873047,0.125,-3,-2.25,-0.396691,-0.0841553,1.97729
4351,-109,-3,5,118,95,79,42,-13,0.0805664,-0.320801,0.873047,0.125,-3,-2.25,-0.396691,-0.0841553,1.97729
4377,68,12,14,-65,8,-65,-22,-9,0.0805664,-0.320801,0.873047,0.125,-3,-2.25,-0.396691,-0.0841553,1.97729
4377,-37,4,-22,-93,-62,41,-71,7,0.0805664,-0.320801,0.873047,0.125,-3,-2.25,-0.396691,-0.0841553,1.97729
4401,-5,-14,-20,-19,-3,39,101,7,0.118652,-0.385742,0.903809,-3.6875,-3.375,1.625,-0.398151,-0.0881484,1.97902
4401,32,9,-44,18,11,-57,-17,-17,0.118652,-0.385742,0.903809,-3.6875,-3.375,1.625,-0.398151,-0.0881484,1.97902
4402,33,16,63,90,62,44,-35,19,0.118652,-0.385742,0.903809,-3.6875,-3.375,1.625,-0.398151,-0.0881484,1.97902
4402,18,-4,20,-69,-84,-21,-19,-1,0.118652,-0.385742,0.903809,-3.6875,-3.375,1.625,-0.398151,-0.0881484,1.97902
4404,-63,-7,3,51,52,-36,33,-12,0.109863,-0.369141,0.889648,-3.875,-2,-0.375,-0.39942,-0.0894091,1.97912
4404,69,-5,32,62,65,3,34,7,0.109863,-0.369141,0.889648,-3.875,-2,-0.375,-0.39942,-0.0894091,1.97912
4416,-99,-4,2,17,-14,41,63,-32,0.109863,-0.369141,0.889648,-3.875,-2,-0.375,-0.39942,-0.0894091,1.97912
4416,-9,-4,-26,-63,2,42,39,3,0.109863,-0.369141,0.889648,-3.875,-2,-0.375,-0.39942,-0.0894091,1.97912
4417,63,34,-9,10,10,-47,-24,6,0.0698242,-0.341797,0.887207,-0.1875,-2.4375,-2.25,-0.398711,-0.090084,1.97864
4417,-39,-12,-21,-33,-90,-112,-39,0,0.0698242,-0.341797,0.887207,-0.1875,-2.4375,-2.25,-0.398711,-0.090084,1.97864
4437,-36,-23,-7,-84,21,35,17,4,0.0698242,-0.341797,0.887207,-0.1875,-2.4375,-2.25,-0.398711,-0.090084,1.97864
4437,21,2,-46,127,118,119,-14,1,0.0698242,-0.341797,0.887207,-0.1875,-2.4375,-2.25,-0.398711,-0.090084,1.97864
4440,-28,-19,24,-37,-42,-97,-51,-21,0.192383,-0.317383,0.805664,-5.125,-5.5,1.875,-0.400098,-0.0942634,1.97996
4440,24,7,-13,-48,-64,74,4,14,0.192383,-0.317383,0.805664,-5.125,-5.5,1.875,-0.400098,-0.0942634,1.97996
4454,-11,-9,-14,-50,-74,-98,29,-3,0.192383,-0.317383,0.805664,-5.125,-5.5,1.875,-0.400098,-0.0942634,1.97996
4454,2,7,46,84,86,-1,-21,12,0.192383,-0.317383,0.805664,-5.125,-5.5,1.875,-0.400098,-0.0942634,1.97996
4454,27,2,-58,-66,-17,32,102,13,0.186035,-0.282227,0.719727,0,-9.5625,2.5625,-0.399732,-0.0996095,1.98201
4454,29,4,-6,15,25,-50,-116,-4,0.186035,-0.282227,0.719727,0,-9.5625,2.5625,-0.399732,-0.0996095,1.98201
4467,-19,7,-4,-30,-97,4,39,13,0.186035,-0.282227,0.719727,0,-9.5625,2.5625,-0.399732,-0.0996095,1.98201
4467,-41,-26,-18,-75,-91,-20,-10,-37,0.186035,-0.282227,0.719727,0,-9.5625,2.5625,-0.399732,-0.0996095,1.98201
4468,31,-9,-20,70,127,-30,-61,8,0.186035,-0.282227,0.719727,0,-9.5625,2.5625,-0.399732,-0.0996095,1.98201
4468,-42,3,52,40,32,21,53,0,0.186035,-0.282227,0.719727,0,-9.5625,2.5625,-0.399732,-0.0996095,1.98201
4483,41,5,-86,-85,-104,12,-28,2,0.186035,-0.282227,0.719727,0,-9.5625,2.5625,-0.399732,-0.0996095,1.98201
4483,-21,14,65,114,86,-34,-22,-9,0.186035,-0.282227,0.719727,0,-9.5625,2.5625,-0.399732,-0.0996095,1.98201
4491,31,-15,29,57,-53,-34,50,12,0.17041,-0.407227,1.29102,-11.5,4.75,-0.3125,-0.400502,-0.0990288,1.98099
4491,-52,-8,-19,-100,57,72,-56,-33,0.17041,-0.407227,1.29102,-11.5,4.75,-0.3125,-0.400502,-0.0990288,1.98099
4499,60,0,-23,-50,-69,19,20,7,0.17041,-0.407227,1.29102,-11.5,4.75,-0.3125,-0.400502,-0.0990288,1.98099
4499,-66,0,44,89,98,-58,11,2,0.17041,-0.407227,1.29102,-11.5,4.75,-0.3125,-0.400502,-0.0990288,1.98099
4506,56,14,49,47,-10,90,-55,-9,0.400391,-0.197754,0.791992,3.5625,-11,-0.25,-0.396378,-0.110097,1.98214
4506,19,-2,-22,-76,-84,22,127,18,0.400391,-0.197754,0.791992,3.5625,-11,-0.25,-0.396378,-0.110097,1.98214
4527,42,3,-4,123,57,27,-109,-19,0.400391,-0.197754,0.791992,3.5625,-11,-0.25,-0.396378,-0.110097,1.98214
4527,22,2,-17,-31,60,24,93,7,0.400391,-0.197754,0.791992,3.5625,-11,-0.25,-0.396378,-0.110097,1.98214
4559,14,5,31,-65,-74,25,-52,9,-0.140137,-0.378906,0.378418,7.0625,-5.3125,-2.4375,-0.398799,-0.107462,1.98251
4559,-38,5,-17,15,61,-60,37,-19,-0.140137,-0.378906,0.378418,7.0625,-5.3125,-2.4375,-0.398799,-0.107462,1.98251
4559,32,21,78,1,-6,-22,-30,8,-0.140137,-0.378906,0.378418,7.0625,-5.3125,-2.4375,-0.398799,-0.107462,1.98251
4559,-35,-7,17,-74,-74,-3,-35,-11,-0.140137,-0.378906,0.378418,7.0625,-5.3125,-2.4375,-0.398799,-0.107462,1.98251
4561,-27,-4,14,47,-22,-21,-18,-7,-0.389648,-0.474609,0.429199,1.1875,-0.625,-2.5,-0.404831,-0.0972322,1.9825
4561,-22,-2,7,13,-22,-16,22,12,-0.389648,-0.474609,0.429199,1.1875,-0.625,-2.5,-0.404831,-0.0972322,1.9825
4573,64,12,67,72,107,23,-40,11,-0.389648,-0.474609,0.429199,1.1875,-0.625,-2.5,-0.404831,-0.0972322,1.9825
4573,-23,-23,-127,-106,-73,-9,57,-18,-0.389648,-0.474609,0.429199,1.1875,-0.625,-2.5,-0.404831,-0.0972322,1.9825
4579,-91,-8,36,27,43,40,-3,-27,0.115234,-0.353027,0.866211,1.1875,-5.9375,-1.3125,-0.40425,-0.102719,1.98271
4579,63,21,34,60,-24,-85,-83,16,0.115234,-0.353027,0.866211,1.1875,-5.9375,-1.3125,-0.40425,-0.102719,1.98271
4604,-128,-14,-3,63,99,15,60,-13,0.115234,-0.353027,0.866211,1.1875,-5.9375,-1.3125,-0.40425,-0.102719,1.98271
4604,76,24,13,-55,-103,37,0,18,0.115234,-0.353027,0.866211,1.1875,-5.9375,-1.3125,-0.40425,-0.102719,1.98271
4609,-45,-21,-53,39,100,10,66,-40,0.141602,-0.37793,0.899414,-3.125,-3.4375,1.25,-0.4052,-0.104623,1.98358
4609,23,-9,-5,-10,57,42,-14,2,0.141602,-0.37793,0.899414,-3.125,-3.4375,1.25,-0.4052,-0.104623,1.98358
4625,-4,-3,-28,-63,-56,-81,14,17,0.141602,-0.37793,0.899414,-3.125,-3.4375,1.25,-0.4052,-0.104623,1.98358
4625,67,-6,66,35,5,-77,-107,-43,0.141602,-0.37793,0.899414,-3.125,-3.4375,1.25,-0.4052,-0.104623,1.98358
4628,-58,8,6,-59,-81,41,81,12,0.131348,-0.363281,0.90332,-1.4375,-2.625,-0.0625,-0.405229,-0.106188,1.98397
4628,-10,9,60,6,43,-55,-45,-10,0.131348,-0.363281,0.90332,-1.4375,-2.625,-0.0625,-0.405229,-0.106188,1.98397
4656,-28,-28,-36,-76,39,10,32,-8,0.131348,-0.363281,0.90332,-1.4375,-2.625,-0.0625,-0.405229,-0.106188,1.98397
4656,42,-8,-43,7,-34,-25,-34,18,0.131348,-0.363281,0.90332,-1.4375,-2.625,-0.0625,-0.405229,-0.106188,1.98397
4658,-14,9,38,-66,-44,-24,-12,-14,0.128906,-0.347168,0.893555,-2.5,-4.375,-0.25,-0.404232,-0.108842,1.98436
4658,26,-3,3,127,100,62,35,40,0.128906,-0.347168,0.893555,-2.5,-4.375,-0.25,-0.404232,-0.108842,1.98436
4669,-69,-18,-66,-128,-103,-35,-42,-55,0.128906,-0.347168,0.893555,-2.5,-4.375,-0.25,-0.404232,-0.108842,1.98436
4669,48,10,23,-66,-53,-14,12,18,0.128906,-0.347168,0.893555,-2.5,-4.375,-0.25,-0.404232,-0.108842,1.98436
4679,26,-20,-25,57,63,-9,8,-11,0.169434,-0.37207,0.900391,-1.0625,-4.3125,1.3125,-0.404359,-0.11151,1.98524
4679,30,8,18,-74,-19,32,44,19,0.169434,-0.37207,0.900391,-1.0625,-4.3125,1.3125,-0.404359,-0.11151,1.98524
4700,27,3,32,96,41,20,39,13,0.169434,-0.37207,0.900391,-1.0625,-4.3125,1.3125,-0.404359,-0.11151,1.98524
4700,2,-7,-31,2,35,108,31,1,0.169434,-0.37207,0.900391,-1.0625,-4.3125,1.3125,-0.404359,-0.11151,1.98524
4708,-59,22,60,78,42,-51,47,42,0.132324,-0.385254,0.896973,-1.0625,-4,-0.25,-0.404807,-0.113327,1.98569
4708,-35,2,12,-122,-55,-38,-32,-26,0.132324,-0.385254,0.896973,-1.0625,-4,-0.25,-0.404807,-0.113327,1.98569
4731,64,4,-21,72,12,71,-36,6,0.132324,-0.385254,0.896973,-1.0625,-4,-0.25,-0.404807,-0.113327,1.98569
4731,-98,-4,-31,-66,-71,-57,53,-15,0.132324,-0.385254,0.896973,-1.0625,-4,-0.25,-0.404807,-0.113327,1.98569
4732,127,-11,-67,-128,32,-11,-75,43,0.132812,-0.350586,0.882324,1.25,-4.1875,-1.75,-0.403745,-0.11544,1.98568
4732,-67,-6,46,116,56,-23,34,-31,0.132812,-0.350586,0.882324,1.25,-4.1875,-1.75,-0.403745,-0.11544,1.98568
4744,-40,-1,29,49,-24,7,33,4,0.132812,-0.350586,0.882324,1.25,-4.1875,-1.75,-0.403745,-0.11544,1.98568
4744,-24,29,87,-23,-39,-3,-47,12,0.132812,-0.350586,0.882324,1.25,-4.1875,-1.75,-0.403745,-0.11544,1.98568
4763,22,-18,-61,30,46,-36,-19,-3,0.15918,-0.388184,0.883301,-1.5,-3.4375,-1.1875,-0.404343,-0.12006,1.98592
4763,26,-6,-75,10,-31,29,-36,15,0.15918,-0.388184,0.883301,-1.5,-3.4375,-1.1875,-0.404343,-0.12006,1.98592
4776,3,5,41,-67,-10,-15,19,-12,0.15918,-0.388184,0.883301,-1.5,-3.4375,-1.1875,-0.404343,-0.12006,1.98592
4776,-29,10,76,23,-6,-13,-3,-4,0.15918,-0.388184,0.883301,-1.5,-3.4375,-1.1875,-0.404343,-0.12006,1.98592
4782,20,-8,-60,15,6,-37,-20,0,0.125977,-0.381836,0.885742,-3.125,-5.1875,-1.6875,-0.405456,-0.122077,1.98617
4782,42,3,-20,-56,-45,-14,59,10,0.125977,-0.381836,0.885742,-3.125,-5.1875,-1.6875,-0.405456,-0.122077,1.98617
4798,-54,-18,-17,27,-45,-31,-12,-11,0.125977,-0.381836,0.885742,-3.125,-5.1875,-1.6875,-0.405456,-0.122077,1.98617
4798,49,-2,-31,-22,49,69,23,8,0.125977,-0.381836,0.885742,-3.125,-5.1875,-1.6875,-0.405456,-0.122077,1.98617
4799,-28,4,17,-78,-37,1,9,-1,0.133301,-0.350586,0.862305,-2.1875,-5.8125,-2.0625,-0.40575,-0.124624,1.98618
4799,54,-11,-71,121,117,-18,-47,20,0.133301,-0.350586,0.862305,-2.1875,-5.8125,-2.0625,-0.40575,-0.124624,1.98618
4819,38,46,90,71,18,-15,25,-2,0.133301,-0.350586,0.862305,-2.1875,-5.8125,-2.0625,-0.40575,-0.124624,1.98618
4819,-13,-37,-91,-55,14,-11,-60,-3,0.133301,-0.350586,0.862305,-2.1875,-5.8125,-2.0625,-0.40575,-0.124624,1.98618
4835,-88,4,19,-52,-116,10,42,-32,0.165039,-0.364746,0.88623,-3.1875,-4.4375,-0.25,-0.40654,-0.127084,1.98673
4835,51,-2,-7,-9,41,27,-7,13,0.165039,-0.364746,0.88623,-3.1875,-4.4375,-0.25,-0.40654,-0.127084,1.98673
4858,28,0,-3,-46,-4,-28,-65,7,0.165039,-0.364746,0.88623,-3.1875,-4.4375,-0.25,-0.40654,-0.127084,1.98673
4858,-58,-1,-30,23,55,4,10,-16,0.165039,-0.364746,0.88623,-3.1875,-4.4375,-0.25,-0.40654,-0.127084,1.98673
4861,71,14,49,-66,-120,11,27,13,0.140625,-0.37793,0.883789,-5.4375,-4.875,-3.625,-0.408778,-0.130888,1.98626
4861,-37,-14,28,-28,-18,-45,-68,-34,0.140625,-0.37793,0.883789,-5.4375,-4.875,-3.625,-0.408778,-0.130888,1.98626
4873,11,7,-7,106,100,7,-16,21,0.140625,-0.37793,0.883789,-5.4375,-4.875,-3.625,-0.408778,-0.130888,1.98626
4873,-6,-3,28,71,40,11,8,-29,0.140625,-0.37793,0.883789,-5.4375,-4.875,-3.625,-0.408778,-0.130888,1.98626
4874,40,-2,-27,-113,-111,-70,-22,26,0.131348,-0.350586,0.880859,-1.375,-5.4375,-3.125,-0.408426,-0.13311,1.98591
4874,-68,-11,-42,-39,-42,6,-56,-29,0.131348,-0.350586,0.880859,-1.375,-5.4375,-3.125,-0.408426,-0.13311,1.98591
4894,28,-9,6,78,-10,44,-29,17,0.131348,-0.350586,0.880859,-1.375,-5.4375,-3.125,-0.408426,-0.13311,1.98591
4894,54,22,54,43,69,14,-12,16,0.131348,-0.350586,0.880859,-1.375,-5.4375,-3.125,-0.408426,-0.13311,1.98591
4910,-11,16,4,69,89,58,35,6,0.157227,-0.345703,0.892578,-5.3125,-5.375,-1.5625,-0.409375,-0.135628,1.98608
4910,-54,-5,59,-128,-102,-57,24,-5,0.157227,-0.345703,0.892578,-5.3125,-5.375,-1.5625,-0.409375,-0.135628,1.98608
4925,44,-20,-98,-121,2,-66,-66,15,0.157227,-0.345703,0.892578,-5.3125,-5.375,-1.5625,-0.409375,-0.135628,1.98608
4925,-77,-2,14,93,28,37,34,3,0.157227,-0.345703,0.892578,-5.3125,-5.375,-1.5625,-0.409375,-0.135628,1.98608
4933,-6,-5,66,-13,41,-14,-31,-28,0.148438,-0.366699,0.919434,-0.8125,-5.875,0,-0.40907,-0.13788,1.98689
4933,29,21,104,9,-33,42,59,14,0.148438,-0.366699,0.919434,-0.8125,-5.875,0,-0.40907,-0.13788,1.98689
4948,-12,-19,-119,-128,-35,-11,-27,-2,0.148438,-0.366699,0.919434,-0.8125,-5.875,0,-0.40907,-0.13788,1.98689
4948,34,-1,39,-112,-114,-40,25,10,0.148438,-0.366699,0.919434,-0.8125,-5.875,0,-0.40907,-0.13788,1.98689
4962,-46,-23,-16,127,127,42,-27,-39,0.160645,-0.375488,0.891113,-2.0625,-7.6875,-2.25,-0.407957,-0.143082,1.98738
4962,30,18,12,7,-27,-35,1,18,0.160645,-0.375488,0.891113,-2.0625,-7.6875,-2.25,-0.407957,-0.143082,1.98738
4969,-9,-9,-11,-83,-95,-38,0,-7,0.160645,-0.375488,0.891113,-2.0625,-7.6875,-2.25,-0.407957,-0.143082,1.98738
4969,50,-7,-3,96,126,97,76,17,0.160645,-0.375488,0.891113,-2.0625,-7.6875,-2.25,-0.407957,-0.143082,1.98738
4978,27,17,11,-18,-9,-87,-56,7,0.152832,-0.384277,0.884766,0.25,-7.3125,-1.875,-0.407922,-0.145901,1.98781
4978,-20,-15,-79,-67,-57,-82,-79,-12,0.152832,-0.384277,0.884766,0.25,-7.3125,-1.875,-0.407922,-0.145901,1.98781
5000,39,3,21,-37,-39,56,14,6,0.152832,-0.384277,0.884766,0.25,-7.3125,-1.875,-0.407922,-0.145901,1.98781
5000,-23,-13,-15,-24,-38,19,-36,-17,0.152832,-0.384277,0.884766,0.25,-7.3125,-1.875,-0.407922,-0.145901,1.98781
5002,-20,-6,-9,99,58,54,16,4,0.139648,-0.386719,0.891113,-3,-5.0625,-1.4375,-0.409001,-0.147729,1.9881
5002,20,9,10,19,47,26,41,2,0.139648,-0.386719,0.891113,-3,-5.0625,-1.4375,-0.409001,-0.147729,1.9881
5029,-25,-2,63,-94,-78,-14,19,-12,0.139648,-0.386719,0.891113,-3,-5.0625,-1.4375,-0.409001,-0.147729,1.9881
5029,35,-5,-77,59,57,-19,-65,8,0.139648,-0.386719,0.891113,-3,-5.0625,-1.4375,-0.409001,-0.147729,1.9881
5040,9,15,83,58,73,23,-3,13,0.187988,-0.327637,0.882812,-6.4375,-9.25,-0.3125,-0.407427,-0.152467,1.98857
5040,-6,-13,-77,-100,-76,-6,32,-4,0.187988,-0.327637,0.882812,-6.4375,-9.25,-0.3125,-0.407427,-0.152467,1.98857
5054,-65,-6,96,67,37,-18,-23,-20,0.187988,-0.327637,0.882812,-6.4375,-9.25,-0.3125,-0.407427,-0.152467,1.98857
5054,32,13,27,-28,43,19,47,18,0.187988,-0.327637,0.882812,-6.4375,-9.25,-0.3125,-0.407427,-0.152467,1.98857
5059,66,3,-71,75,5,-10,11,6,0.189453,-0.379883,0.891113,-7.5,-5.625,1.9375,-0.410022,-0.154856,1.98993
5059,-48,7,10,-79,-65,-37,17,9,0.189453,-0.379883,0.891113,-7.5,-5.625,1.9375,-0.410022,-0.154856,1.98993
5068,-55,1,-19,11,53,89,1,-5,0.189453,-0.379883,0.891113,-7.5,-5.625,1.9375,-0.410022,-0.154856,1.98993
5068,0,-8,34,100,-12,-83,-2,11,0.189453,-0.379883,0.891113,-7.5,-5.625,1.9375,-0.410022,-0.154856,1.98993
5068,15,10,17,-45,40,25,-47,26,0.189453,-0.379883,0.891113,-7.5,-5.625,1.9375,-0.410022,-0.154856,1.98993
5068,84,-5,12,5,11,-45,30,-16,0.189453,-0.379883,0.891113,-7.5,-5.625,1.9375,-0.410022,-0.154856,1.98993
5082,-92,8,5,-13,-66,78,30,-7,0.115234,-0.38916,0.858398,0.5625,-2.3125,-0.875,-0.410242,-0.154964,1.99006
5082,26,-4,-9,-21,44,-61,-33,1,0.115234,-0.38916,0.858398,0.5625,-2.3125,-0.875,-0.410242,-0.154964,1.99006
5097,-31,5,-9,20,49,16,4,-8,0.115234,-0.38916,0.858398,0.5625,-2.3125,-0.875,-0.410242,-0.154964,1.99006
5097,27,-31,-70,8,-16,23,90,3,0.115234,-0.38916,0.858398,0.5625,-2.3125,-0.875,-0.410242,-0.154964,1.99006
5098,46,10,52,49,-13,-68,-77,-6,0.115234,-0.38916,0.858398,0.5625,-2.3125,-0.875,-0.410242,-0.154964,1.99006
5098,19,-1,-17,-4,7,9,-6,7,0.115234,-0.38916,0.858398,0.5625,-2.3125,-0.875,-0.410242,-0.154964,1.99006
5114,-25,-4,37,-123,-128,-10,-3,-6,0.217285,-0.350098,1.14307,-9.0625,6.1875,-1.0625,-0.409812,-0.153942,1.98839
5114,-5,3,28,98,60,27,7,4,0.217285,-0.350098,1.14307,-9.0625,6.1875,-1.0625,-0.409812,-0.153942,1.98839
5120,40,0,45,-20,113,-15,26,-7,0.217285,-0.350098,1.14307,-9.0625,6.1875,-1.0625,-0.409812,-0.153942,1.98839
5120,3,-1,-17,5,-128,32,-4,-10,0.217285,-0.350098,1.14307,-9.0625,6.1875,-1.0625,-0.409812,-0.153942,1.98839
5122,3,-9,-20,-29,66,-10,12,2,-0.0644531,-0.504883,0.922363,1.3125,5.25,-1.6875,-0.411552,-0.147066,1.98738
5122,2,10,-1,-55,1,49,-7,6,-0.0644531,-0.504883,0.922363,1.3125,5.25,-1.6875,-0.411552,-0.147066,1.98738
5136,3,4,-1,77,22,36,-21,-13,-0.0644531,-0.504883,0.922363,1.3125,5.25,-1.6875,-0.411552,-0.147066,1.98738
5136,-37,-6,4,-128,-106,-62,55,-5,-0.0644531,-0.504883,0.922363,1.3125,5.25,-1.6875,-0.411552,-0.147066,1.98738
5137,15,-12,8,70,61,84,39,-6,0.534668,-0.245605,0.985352,7.5625,-7.875,9.1875,-0.405437,-0.15748,1.99097
5137,-7,23,27,114,38,-51,-105,-16,0.534668,-0.245605,0.985352,7.5625,-7.875,9.1875,-0.405437,-0.15748,1.99097
5149,-24,-14,-48,-57,-65,52,57,44,0.534668,-0.245605,0.985352,7.5625,-7.875,9.1875,-0.405437,-0.15748,1.99097
5149,-31,18,81,-1,80,-14,-16,-26,0.534668,-0.245605,0.985352,7.5625,-7.875,9.1875,-0.405437,-0.15748,1.99097
5158,-30,-17,-22,11,-11,-4,-24,-50,-0.104004,-0.407227,0.367188,15.125,0.3125,-1,-0.40566,-0.153079,1.99146
5158,-23,-6,-27,-104,-49,-45,-3,25,-0.104004,-0.407227,0.367188,15.125,0.3125,-1,-0.40566,-0.153079,1.99146
5173,41,-17,5,60,35,-64,-2,-16,-0.104004,-0.407227,0.367188,15.125,0.3125,-1,-0.40566,-0.153079,1.99146
5173,68,18,36,83,65,78,39,11,-0.104004,-0.407227,0.367188,15.125,0.3125,-1,-0.40566,-0.153079,1.99146
5175,-6,6,27,-128,-128,-44,28,24,-0.339844,-0.460449,0.525879,6.125,2.4375,-2.8125,-0.408611,-0.142174,1.99095
5175,-13,1,30,23,31,16,-72,-21,-0.339844,-0.460449,0.525879,6.125,2.4375,-2.8125,-0.408611,-0.142174,1.99095
5188,-16,-10,-66,-107,-76,-84,-1,-2,-0.339844,-0.460449,0.525879,6.125,2.4375,-2.8125,-0.408611,-0.142174,1.99095
5188,36,-22,-64,2,53,-5,-53,15,-0.339844,-0.460449,0.525879,6.125,2.4375,-2.8125,-0.408611,-0.142174,1.99095
5188,66,3,26,74,22,44,8,-3,-0.339844,-0.460449,0.525879,6.125,2.4375,-2.8125,-0.408611,-0.142174,1.99095
5188,-53,-8,3,-43,-66,48,-26,-42,-0.339844,-0.460449,0.525879,6.125,2.4375,-2.8125,-0.408611,-0.142174,1.99095
5210,5,4,-59,-70,-71,-44,50,-2,-0.339844,-0.460449,0.525879,6.125,2.4375,-2.8125,-0.408611,-0.142174,1.99095
5210,3,-14,29,62,54,9,-43,2,-0.339844,-0.460449,0.525879,6.125,2.4375,-2.8125,-0.408611,-0.142174,1.99095
5219,0,5,-63,-18,31,15,79,-5,-0.317383,-0.531738,0.647949,-3.3125,0.8125,-0.75,-0.415229,-0.131802,1.99138
5219,-81,-8,-13,110,-4,-64,-42,23,-0.317383,-0.531738,0.647949,-3.3125,0.8125,-0.75,-0.415229,-0.131802,1.99138
5219,-1,9,9,-73,-42,82,81,-16,-0.317383,-0.531738,0.647949,-3.3125,0.8125,-0.75,-0.415229,-0.131802,1.99138
5219,14,5,-4,-27,45,-19,47,-4,-0.317383,-0.531738,0.647949,-3.3125,0.8125,-0.75,-0.415229,-0.131802,1.99138
5224,-52,-9,11,-12,-124,-17,-23,1,-0.39502,-0.553711,0.459473,-4.625,-1.125,-1.4375,-0.424536,-0.120908,1.99194
5224,43,3,25,-30,93,17,-16,8,-0.39502,-0.553711,0.459473,-4.625,-1.125,-1.4375,-0.424536,-0.120908,1.99194
5241,-22,-6,-25,119,17,-79,-79,-37,-0.39502,-0.553711,0.459473,-4.625,-1.125,-1.4375,-0.424536,-0.120908,1.99194
5241,-93,3,49,20,-6,7,16,0,-0.39502,-0.553711,0.459473,-4.625,-1.125,-1.4375,-0.424536,-0.120908,1.99194
5242,53,5,-52,85,83,42,-10,21,-0.160645,-0.377441,0.257324,3.125,-3.875,-4,-0.429153,-0.117716,1.99202
5242,5,0,93,-53,-83,-45,50,-1,-0.160645,-0.377441,0.257324,3.125,-3.875,-4,-0.429153,-0.117716,1.99202
5255,51,-13,22,44,108,62,-18,7,-0.160645,-0.377441,0.257324,3.125,-3.875,-4,-0.429153,-0.117716,1.99202
5255,4,14,-29,-37,-83,42,-35,16,-0.160645,-0.377441,0.257324,3.125,-3.875,-4,-0.429153,-0.117716,1.99202
5261,-33,-9,1,-46,67,-97,-62,-64,0.629883,-0.21875,0.911133,-2.25,-6.8125,-0.6875,-0.425631,-0.132337,1.99225
5261,0,11,39,127,104,67,-20,18,0.629883,-0.21875,0.911133,-2.25,-6.8125,-0.6875,-0.425631,-0.132337,1.99225
5278,28,-3,2,-85,-81,-8,50,14,0.629883,-0.21875,0.911133,-2.25,-6.8125,-0.6875,-0.425631,-0.132337,1.99225
5278,-46,-10,-67,-128,-119,-2,-62,-11,0.629883,-0.21875,0.911133,-2.25,-6.8125,-0.6875,-0.425631,-0.132337,1.99225
5285,-56,-9,-30,7,36,-16,82,15,0.337891,-0.436523,1.35791,-12.75,-1.125,2.4375,-0.426032,-0.135891,1.99265
5285,44,0,-37,65,46,36,21,8,0.337891,-0.436523,1.35791,-12.75,-1.125,2.4375,-0.426032,-0.135891,1.99265
5292,-27,30,94,50,127,11,16,3,0.337891,-0.436523,1.35791,-12.75,-1.125,2.4375,-0.426032,-0.135891,1.99265
5292,-10,-9,-2,92,53,1,2,-12,0.337891,-0.436523,1.35791,-12.75,-1.125,2.4375,-0.426032,-0.135891,1.99265
5299,16,20,17,-120,-108,-2,13,30,-0.292969,-0.424316,0.299805,-2.125,1.75,0.25,-0.433083,-0.126909,1.99327
5299,-14,-36,-56,9,46,-62,13,-7,-0.292969,-0.424316,0.299805,-2.125,1.75,0.25,-0.433083,-0.126909,1.99327
5308,-45,19,39,-65,-58,73,-11,13,-0.292969,-0.424316,0.299805,-2.125,1.75,0.25,-0.433083,-0.126909,1.99327
5308,28,-10,-32,-24,14,-19,53,-8,-0.292969,-0.424316,0.299805,-2.125,1.75,0.25,-0.433083,-0.126909,1.99327
5309,-32,-12,-6,106,25,-58,-68,-2,-0.292969,-0.424316,0.299805,-2.125,1.75,0.25,-0.433083,-0.126909,1.99327
5309,3,1,-14,-124,-66,-15,-21,-15,-0.292969,-0.424316,0.299805,-2.125,1.75,0.25,-0.433083,-0.126909,1.99327
5322,14,-17,-33,82,14,12,-18,-4,0.683105,-0.319824,1.55469,-3.9375,0.5,-1.4375,-0.425523,-0.138496,1.99162
5322,23,4,5,24,-8,16,4,-13,0.683105,-0.319824,1.55469,-3.9375,0.5,-1.4375,-0.425523,-0.138496,1.99162
5323,-13,-1,36,27,17,24,-32,-19,0.683105,-0.319824,1.55469,-3.9375,0.5,-1.4375,-0.425523,-0.138496,1.99162
5323,52,31,82,-48,-47,28,51,36,0.683105,-0.319824,1.55469,-3.9375,0.5,-1.4375,-0.425523,-0.138496,1.99162
5337,8,-37,-91,-48,42,-22,41,-26,0.683105,-0.319824,1.55469,-3.9375,0.5,-1.4375,-0.425523,-0.138496,1.99162
5337,13,4,55,-64,2,-20,-8,-1,0.683105,-0.319824,1.55469,-3.9375,0.5,-1.4375,-0.425523,-0.138496,1.99162
5346,-23,-24,-30,-14,-53,-21,-52,-7,-0.209473,-0.32666,0.32666,0.375,0.5,-0.75,-0.426523,-0.136886,1.99178
5346,3,-11,-22,-82,-50,-1,-4,-36,-0.209473,-0.32666,0.32666,0.375,0.5,-0.75,-0.426523,-0.136886,1.99178
5361,12,30,70,118,5,-12,17,12,-0.209473,-0.32666,0.32666,0.375,0.5,-0.75,-0.426523,-0.136886,1.99178
5361,56,-1,-16,24,93,2,-43,38,-0.209473,-0.32666,0.32666,0.375,0.5,-0.75,-0.426523,-0.136886,1.99178
5366,-57,22,13,-87,-29,25,-32,-5,0.109375,-0.495117,1.20605,-5.4375,0,3.75,-0.427405,-0.134707,1.99276
5366,46,14,2,-58,-79,16,41,8,0.109375,-0.495117,1.20605,-5.4375,0,3.75,-0.427405,-0.134707,1.99276
5375,-41,-13,-40,-74,-121,-78,-60,-8,0.109375,-0.495117,1.20605,-5.4375,0,3.75,-0.427405,-0.134707,1.99276
5375,-56,-15,-46,9,-62,-68,38,-27,0.109375,-0.495117,1.20605,-5.4375,0,3.75,-0.427405,-0.134707,1.99276
5377,55,-2,30,52,74,-25,-7,26,0.739746,-0.227539,1.29053,-0.125,-1.8125,0,-0.419401,-0.148728,1.99185
5377,6,6,0,122,51,111,52,-21,0.739746,-0.227539,1.29053,-0.125,-1.8125,0,-0.419401,-0.148728,1.99185
5390,23,8,-13,-35,2,2,0,40,0.739746,-0.227539,1.29053,-0.125,-1.8125,0,-0.419401,-0.148728,1.99185
5390,-39,8,22,68,-21,-29,-63,-19,0.739746,-0.227539,1.29053,-0.125,-1.8125,0,-0.419401,-0.148728,1.99185
5397,46,-3,-9,-74,-103,-103,-20,2,-0.208008,-0.299805,0.306641,3.875,-1.5625,0.0625,-0.421759,-0.14283,1.99268
5397,-53,-13,6,-25,-50,17,-6,-23,-0.208008,-0.299805,0.306641,3.875,-1.5625,0.0625,-0.421759,-0.14283,1.99268
5413,6,4,84,127,127,31,35,-14,-0.208008,-0.299805,0.306641,3.875,-1.5625,0.0625,-0.421759,-0.14283,1.99268
5413,20,-8,-80,-56,-34,2,31,6,-0.208008,-0.299805,0.306641,3.875,-1.5625,0.0625,-0.421759,-0.14283,1.99268
5415,25,6,92,-42,-37,29,-25,13,-0.463379,-0.517578,0.320312,1.875,-0.875,4,-0.429618,-0.129743,1.99527
5415,-87,-13,-102,-81,-56,-58,126,-20,-0.463379,-0.517578,0.320312,1.875,-0.875,4,-0.429618,-0.129743,1.99527
5435,93,24,87,61,61,-6,-38,21,-0.463379,-0.517578,0.320312,1.875,-0.875,4,-0.429618,-0.129743,1.99527
5435,4,-7,9,-128,-29,-1,-39,-22,-0.463379,-0.517578,0.320312,1.875,-0.875,4,-0.429618,-0.129743,1.99527
5435,-78,-8,17,127,53,41,42,-12,-0.463379,-0.517578,0.320312,1.875,-0.875,4,-0.429618,-0.129743,1.99527
5435,53,2,35,-76,-28,-37,-97,17,-0.463379,-0.517578,0.320312,1.875,-0.875,4,-0.429618,-0.129743,1.99527
5443,0,-9,36,29,7,3,-16,6,-0.463379,-0.517578,0.320312,1.875,-0.875,4,-0.429618,-0.129743,1.99527
5443,-7,7,-12,-50,-57,0,95,-3,-0.463379,-0.517578,0.320312,1.875,-0.875,4,-0.429618,-0.129743,1.99527
5444,64,-9,-70,-42,-23,30,-25,-3,-0.0478516,-0.588867,0.895508,-1.6875,-2.125,4.375,-0.434194,-0.125369,1.99749
5444,-68,-20,58,51,127,-60,-8,11,-0.0478516,-0.588867,0.895508,-1.6875,-2.125,4.375,-0.434194,-0.125369,1.99749
5458,79,0,-47,-69,-104,16,-79,8,-0.0478516,-0.588867,0.895508,-1.6875,-2.125,4.375,-0.434194,-0.125369,1.99749
5458,-78,-8,42,86,125,93,-23,-13,-0.0478516,-0.588867,0.895508,-1.6875,-2.125,4.375,-0.434194,-0.125369,1.99749
5459,24,15,-5,-8,30,-76,-33,5,0.38916,-0.494141,1.22705,2,-0.875,0.375,-0.431911,-0.130813,1.99745
5459,16,17,25,66,23,120,76,-8,0.38916,-0.494141,1.22705,2,-0.875,0.375,-0.431911,-0.130813,1.99745
5481,-20,-1,-29,-60,-50,-57,-68,0,0.38916,-0.494141,1.22705,2,-0.875,0.375,-0.431911,-0.130813,1.99745
5481,37,-28,-56,26,-53,-18,8,7,0.38916,-0.494141,1.22705,2,-0.875,0.375,-0.431911,-0.130813,1.99745
5482,19,12,34,-102,-120,-17,-95,-6,0.512207,-0.408203,1.35449,0.875,-0.9375,-0.875,-0.430828,-0.132792,1.99738
5482,24,-16,-61,127,127,18,-1,11,0.512207,-0.408203,1.35449,0.875,-0.9375,-0.875,-0.430828,-0.132792,1.99738
5496,-15,-12,-65,-63,-75,-32,-8,-9,0.512207,-0.408203,1.35449,0.875,-0.9375,-0.875,-0.430828,-0.132792,1.99738
5496,-24,2,41,-118,-35,49,-15,1,0.512207,-0.408203,1.35449,0.875,-0.9375,-0.875,-0.430828,-0.132792,1.99738
5497,-1,-15,7,118,64,-3,64,-1,0.519043,-0.460938,1.37305,-1.8125,-1.375,2.5,-0.427729,-0.140699,1.99776
5497,60,15,48,-53,-74,-59,3,29,0.519043,-0.460938,1.37305,-1.8125,-1.375,2.5,-0.427729,-0.140699,1.99776
5511,21,1,-17,-101,-88,33,-15,-21,0.519043,-0.460938,1.37305,-1.8125,-1.375,2.5,-0.427729,-0.140699,1.99776
5511,-10,-17,-4,110,63,-58,-26,-4,0.519043,-0.460938,1.37305,-1.8125,-1.375,2.5,-0.427729,-0.140699,1.99776
5512,-36,-2,28,-28,62,42,-72,-17,0.314453,-0.529297,1.21191,0.5625,0,3.125,-0.427157,-0.143173,1.99874
5512,-29,6,-49,-2,-18,4,86,1,0.314453,-0.529297,1.21191,0.5625,0,3.125,-0.427157,-0.143173,1.99874
5525,8,6,-22,121,127,0,67,10,0.314453,-0.529297,1.21191,0.5625,0,3.125,-0.427157,-0.143173,1.99874
5525,5,30,63,-41,-71,-5,5,-25,0.314453,-0.529297,1.21191,0.5625,0,3.125,-0.427157,-0.143173,1.99874
5525,10,-8,-23,39,14,-30,11,13,0.314453,-0.529297,1.21191,0.5625,0,3.125,-0.427157,-0.143173,1.99874
5525,35,-6,-93,-110,-98,-13,-45,6,0.314453,-0.529297,1.21191,0.5625,0,3.125,-0.427157,-0.143173,1.99874
5540,-38,-25,14,116,82,-51,-71,13,0.314453,-0.529297,1.21191,0.5625,0,3.125,-0.427157,-0.143173,1.99874
5540,76,5,-1,-53,45,22,21,25,0.314453,-0.529297,1.21191,0.5625,0,3.125,-0.427157,-0.143173,1.99874
5546,-86,-23,-96,-128,-128,-20,15,-23,-0.0620117,-0.583496,0.755859,2.875,2.6875,-0.25,-0.431326,-0.137702,1.99897
5546,59,-3,4,18,79,7,-27,15,-0.0620117,-0.583496,0.755859,2.875,2.6875,-0.25,-0.431326,-0.137702,1.99897
5571,-37,5,-28,29,22,33,0,-29,-0.0620117,-0.583496,0.755859,2.875,2.6875,-0.25,-0.431326,-0.137702,1.99897
5571,8,-1,39,31,39,-17,-27,13,-0.0620117,-0.583496,0.755859,2.875,2.6875,-0.25,-0.431326,-0.137702,1.99897
5578,45,1,49,109,105,54,52,5,-0.479492,-0.581543,0.172852,0.75,1.1875,0.9375,-0.44212,-0.124525,2.00067
5578,-41,3,-30,-114,-128,-89,-86,8,-0.479492,-0.581543,0.172852,0.75,1.1875,0.9375,-0.44212,-0.124525,2.00067
5579,-11,-24,-23,-74,62,98,93,-33,-0.479492,-0.581543,0.172852,0.75,1.1875,0.9375,-0.44212,-0.124525,2.00067
5579,-39,10,65,75,5,-97,-31,3,-0.479492,-0.581543,0.172852,0.75,1.1875,0.9375,-0.44212,-0.124525,2.00067
5585,53,20,-53,10,-28,125,115,9,-0.221191,-0.333984,0.306641,1.0625,0.8125,3.75,-0.446028,-0.117222,2.00219
5585,-77,-7,49,127,59,-49,-50,-4,-0.221191,-0.333984,0.306641,1.0625,0.8125,3.75,-0.446028,-0.117222,2.00219
5594,3,-11,12,-121,-29,-15,34,-3,-0.221191,-0.333984,0.306641,1.0625,0.8125,3.75,-0.446028,-0.117222,2.00219
5594,23,8,-58,3,-79,-74,25,-1,-0.221191,-0.333984,0.306641,1.0625,0.8125,3.75,-0.446028,-0.117222,2.00219
5595,3,4,73,-58,-5,76,0,-11,0.612793,-0.0864258,1.37646,-1.0625,-0.3125,4.5625,-0.434057,-0.127591,2.00223
5595,41,-4,7,105,95,22,-24,-1,0.612793,-0.0864258,1.37646,-1.0625,-0.3125,4.5625,-0.434057,-0.127591,2.00223
5607,-46,14,0,-40,-24,-19,-23,23,0.612793,-0.0864258,1.37646,-1.0625,-0.3125,4.5625,-0.434057,-0.127591,2.00223
5607,-27,-25,-8,-3,-35,-19,-25,-7,0.612793,-0.0864258,1.37646,-1.0625,-0.3125,4.5625,-0.434057,-0.127591,2.00223
5615,-35,-21,-45,-64,1,-32,76,-1,0.567383,-0.390137,1.45703,4.25,3.125,-0.9375,-0.426173,-0.135713,2.00056
5615,71,17,45,-25,-67,34,-70,9,0.567383,-0.390137,1.45703,4.25,3.125,-0.9375,-0.426173,-0.135713,2.00056
5631,-80,1,43,79,6,-46,-21,-18,0.567383,-0.390137,1.45703,4.25,3.125,-0.9375,-0.426173,-0.135713,2.00056
5631,64,2,26,36,60,112,-2,-5,0.567383,-0.390137,1.45703,4.25,3.125,-0.9375,-0.426173,-0.135713,2.00056
5631,-8,2,-28,-62,-115,-73,17,25,0.567383,-0.390137,1.45703,4.25,3.125,-0.9375,-0.426173,-0.135713,2.00056
5631,-16,-18,-22,-92,17,-28,-28,-10,0.567383,-0.390137,1.45703,4.25,3.125,-0.9375,-0.426173,-0.135713,2.00056
5645,-46,-2,27,116,94,87,26,-17,-0.466797,-0.586426,0.0869141,3.875,2.4375,0.4375,-0.436853,-0.122698,2.00188
5645,46,25,20,-51,-56,-23,16,23,-0.466797,-0.586426,0.0869141,3.875,2.4375,0.4375,-0.436853,-0.122698,2.00188
5645,-80,-10,-18,-10,-37,11,-25,-19,-0.466797,-0.586426,0.0869141,3.875,2.4375,0.4375,-0.436853,-0.122698,2.00188
5645,20,-4,10,71,90,1,88,21,-0.466797,-0.586426,0.0869141,3.875,2.4375,0.4375,-0.436853,-0.122698,2.00188
5667,12,21,54,-45,14,-50,-47,-20,-0.466797,-0.586426,0.0869141,3.875,2.4375,0.4375,-0.436853,-0.122698,2.00188
5667,-60,-27,-72,-40,-9,58,50,2,-0.466797,-0.586426,0.0869141,3.875,2.4375,0.4375,-0.436853,-0.122698,2.00188
5669,59,20,47,-3,10,-26,-77,1,0.456055,-0.151855,1.15918,-5.5,-0.75,2.0625,-0.430344,-0.130205,2.00159
5669,-26,16,30,-19,-25,16,34,-20,0.456055,-0.151855,1.15918,-5.5,-0.75,2.0625,-0.430344,-0.130205,2.00159
5684,47,-13,13,-14,-71,-41,15,-1,0.456055,-0.151855,1.15918,-5.5,-0.75,2.0625,-0.430344,-0.130205,2.00159
5684,25,4,-54,-128,-119,-42,39,29,0.456055,-0.151855,1.15918,-5.5,-0.75,2.0625,-0.430344,-0.130205,2.00159
5685,-33,-10,-39,107,92,-5,-27,-28,0.248535,-0.528809,1.0835,4.1875,-2.375,3.125,-0.429722,-0.132658,2.00306
5685,-35,-6,71,-23,19,37,-36,-10,0.248535,-0.528809,1.0835,4.1875,-2.375,3.125,-0.429722,-0.132658,2.00306
5698,59,4,-68,-48,7,0,45,26,0.248535,-0.528809,1.0835,4.1875,-2.375,3.125,-0.429722,-0.132658,2.00306
5698,9,12,1,2,-69,-51,-24,17,0.248535,-0.528809,1.0835,4.1875,-2.375,3.125,-0.429722,-0.132658,2.00306
5699,-60,-32,-59,-110,31,-36,-15,-30,-0.0908203,-0.239258,0.371094,-2.25,-1.8125,1.5,-0.432163,-0.129423,2.00408
5699,15,19,38,117,26,97,26,-6,-0.0908203,-0.239258,0.371094,-2.25,-1.8125,1.5,-0.432163,-0.129423,2.00408
5713,76,14,23,-107,-26,33,65,5,-0.0908203,-0.239258,0.371094,-2.25,-1.8125,1.5,-0.432163,-0.129423,2.00408
5713,-66,-12,1,-40,8,-78,-63,-19,-0.0908203,-0.239258,0.371094,-2.25,-1.8125,1.5,-0.432163,-0.129423,2.00408
5714,48,9,32,29,15,38,41,18,0.46582,-0.429199,1.39844,-0.0625,-1.125,1.4375,-0.427493,-0.13611,2.0041
5714,-3,-1,28,-63,13,-40,-57,-27,0.46582,-0.429199,1.39844,-0.0625,-1.125,1.4375,-0.427493,-0.13611,2.0041
5736,-28,-18,-86,-20,-126,29,19,10,0.46582,-0.429199,1.39844,-0.0625,-1.125,1.4375,-0.427493,-0.13611,2.0041
5736,18,15,23,122,123,10,35,-25,0.46582,-0.429199,1.39844,-0.0625,-1.125,1.4375,-0.427493,-0.13611,2.0041
5736,31,7,-18,-59,1,-50,5,27,0.46582,-0.429199,1.39844,-0.0625,-1.125,1.4375,-0.427493,-0.13611,2.0041
5736,56,14,-38,-67,16,20,8,9,0.46582,-0.429199,1.39844,-0.0625,-1.125,1.4375,-0.427493,-0.13611,2.0041
5742,10,-10,27,-86,-116,-73,2,23,-0.0410156,-0.314941,0.415527,-5.6875,-1.9375,1.875,-0.43226,-0.133879,2.00531
5742,-4,-9,18,1,114,55,-35,-41,-0.0410156,-0.314941,0.415527,-5.6875,-1.9375,1.875,-0.43226,-0.133879,2.00531
5757,27,0,6,118,68,23,16,16,-0.0410156,-0.314941,0.415527,-5.6875,-1.9375,1.875,-0.43226,-0.133879,2.00531
5757,-76,7,12,-94,-128,-42,-21,-10,-0.0410156,-0.314941,0.415527,-5.6875,-1.9375,1.875,-0.43226,-0.133879,2.00531
5757,20,5,-26,90,111,-13,47,15,-0.0410156,-0.314941,0.415527,-5.6875,-1.9375,1.875,-0.43226,-0.133879,2.00531
5757,-36,-8,-7,-43,-33,-22,-28,-21,-0.0410156,-0.314941,0.415527,-5.6875,-1.9375,1.875,-0.43226,-0.133879,2.00531
5766,25,-11,-4,-106,-117,84,-107,-19,0.190918,-0.564453,1.03613,2.875,-2,0.3125,-0.433178,-0.135201,2.00589
5766,0,3,25,127,127,18,74,-3,0.190918,-0.564453,1.03613,2.875,-2,0.3125,-0.433178,-0.135201,2.00589
5781,-16,7,-2,0,14,-69,-6,-4,0.190918,-0.564453,1.03613,2.875,-2,0.3125,-0.433178,-0.135201,2.00589
5781,3,-12,0,-96,-41,-57,72,2,0.190918,-0.564453,1.03613,2.875,-2,0.3125,-0.433178,-0.135201,2.00589
5782,58,8,31,73,60,49,46,21,0.430176,-0.0839844,1.29688,-5.5625,-4.5625,2.125,-0.423936,-0.142514,2.00567
5782,-18,3,14,-50,-64,-10,-77,-10,0.430176,-0.0839844,1.29688,-5.5625,-4.5625,2.125,-0.423936,-0.142514,2.00567
5795,-67,-16,-7,67,-2,36,-11,-21,0.430176,-0.0839844,1.29688,-5.5625,-4.5625,2.125,-0.423936,-0.142514,2.00567
5795,2,-24,-86,-66,-98,-25,-25,1,0.430176,-0.0839844,1.29688,-5.5625,-4.5625,2.125,-0.423936,-0.142514,2.00567
5797,-56,0,118,55,55,-55,-62,-23,-0.338867,-0.653809,-0.0473633,2,-5.75,1.8125,-0.438275,-0.135265,2.00917
5797,90,19,88,107,90,45,8,28,-0.338867,-0.653809,-0.0473633,2,-5.75,1.8125,-0.438275,-0.135265,2.00917
5809,0,-21,-60,-54,-50,-45,-63,-3,-0.338867,-0.653809,-0.0473633,2,-5.75,1.8125,-0.438275,-0.135265,2.00917
5809,12,12,81,111,51,62,-6,22,-0.338867,-0.653809,-0.0473633,2,-5.75,1.8125,-0.438275,-0.135265,2.00917
5818,-5,4,25,-30,-80,-24,54,-6,0.535645,-0.304688,1.58643,-0.3125,-2.8125,3.8125,-0.428973,-0.143158,2.0095
5818,-60,-13,-20,-86,-23,-42,21,-18,0.535645,-0.304688,1.58643,-0.3125,-2.8125,3.8125,-0.428973,-0.143158,2.0095
5832,35,-5,0,-57,-18,20,-77,-5,0.535645,-0.304688,1.58643,-0.3125,-2.8125,3.8125,-0.428973,-0.143158,2.0095
5832,17,4,-25,-25,-41,34,31,9,0.535645,-0.304688,1.58643,-0.3125,-2.8125,3.8125,-0.428973,-0.143158,2.0095
5839,69,6,1,94,104,23,22,25,0.456055,-0.0439453,1.26611,-5.875,-2.1875,-1.375,-0.419117,-0.150958,2.00758
5839,-60,3,18,66,-10,-13,35,-26,0.456055,-0.0439453,1.26611,-5.875,-2.1875,-1.375,-0.419117,-0.150958,2.00758
5847,-4,12,6,-71,15,100,56,12,0.456055,-0.0439453,1.26611,-5.875,-2.1875,-1.375,-0.419117,-0.150958,2.00758
5847,-2,3,35,-33,-18,-50,-56,-6,0.456055,-0.0439453,1.26611,-5.875,-2.1875,-1.375,-0.419117,-0.150958,2.00758
5849,57,11,48,-73,-48,-56,-2,14,0.456055,-0.0439453,1.26611,-5.875,-2.1875,-1.375,-0.419117,-0.150958,2.00758
5849,3,-5,-10,27,61,20,-5,-11,0.456055,-0.0439453,1.26611,-5.875,-2.1875,-1.375,-0.419117,-0.150958,2.00758
5903,-49,11,-20,13,43,-7,11,5,0.456055,-0.0439453,1.26611,-5.875,-2.1875,-1.375,-0.419117,-0.150958,2.00758
5903,-7,8,15,-33,-41,1,5,-3,0.456055,-0.0439453,1.26611,-5.875,-2.1875,-1.375,-0.419117,-0.150958,2.00758
