0,-1,0,-1,0,0,0,-1,-1,0.870605,0.159668,0.0444336,-22.6875,-61.125,1.125,0.623351,-1.49383,-2.69039
0,-2,1,0,0,0,-1,0,-1,0.870605,0.159668,0.0444336,-22.6875,-61.125,1.125,0.623351,-1.49383,-2.69039
1,0,-2,-1,0,0,0,-2,-1,0.870605,0.159668,0.0444336,-22.6875,-61.125,1.125,0.623351,-1.49383,-2.69039
1,-2,0,-1,-1,-2,-1,-1,-1,0.870605,0.159668,0.0444336,-22.6875,-61.125,1.125,0.623351,-1.49383,-2.69039
5,1,1,-2,-1,-3,0,-1,-2,0.870605,0.159668,0.0444336,-22.6875,-61.125,1.125,0.623351,-1.49383,-2.69039
5,0,-1,0,-1,-1,-1,-2,0,0.870605,0.159668,0.0444336,-22.6875,-61.125,1.125,0.623351,-1.49383,-2.69039
5,0,-2,-3,-1,0,0,-1,-1,0.870605,0.159668,0.0444336,-22.6875,-61.125,1.125,0.623351,-1.49383,-2.69039
5,-1,-2,1,1,0,-2,-1,-1,0.870605,0.159668,0.0444336,-22.6875,-61.125,1.125,0.623351,-1.49383,-2.69039
11,-1,-1,7,-2,-2,-3,-2,0,0.880371,0.0380859,0.0180664,-28.125,-66.75,-1.625,0.850685,-1.51181,-2.92746
11,-2,0,-8,-3,-1,0,-2,-2,0.880371,0.0380859,0.0180664,-28.125,-66.75,-1.625,0.850685,-1.51181,-2.92746
19,-2,0,0,0,-2,-1,-2,-2,0.880371,0.0380859,0.0180664,-28.125,-66.75,-1.625,0.850685,-1.51181,-2.92746
19,1,0,-3,-1,-2,-2,-2,0,0.880371,0.0380859,0.0180664,-28.125,-66.75,-1.625,0.850685,-1.51181,-2.92746
27,-1,1,3,0,0,-2,-2,-2,0.929199,-0.0776367,-0.00683594,-21.5625,-69.1875,-9.6875,1.24564,-1.5264,2.95597
27,-1,-2,-1,-1,-1,-2,0,-1,0.929199,-0.0776367,-0.00683594,-21.5625,-69.1875,-9.6875,1.24564,-1.5264,2.95597
41,-2,-3,-3,-2,-1,0,-2,0,0.929199,-0.0776367,-0.00683594,-21.5625,-69.1875,-9.6875,1.24564,-1.5264,2.95597
41,-1,0,0,-1,0,-1,-2,-1,0.929199,-0.0776367,-0.00683594,-21.5625,-69.1875,-9.6875,1.24564,-1.5264,2.95597
49,0,-1,-3,0,-1,-1,0,-1,0.955078,-0.125977,-0.00878906,-6,-66.5,-17.875,1.72952,-1.52358,2.46689
49,0,-1,0,-1,-2,-2,-2,-2,0.955078,-0.125977,-0.00878906,-6,-66.5,-17.875,1.72952,-1.52358,2.46689
74,-1,0,-6,-1,-1,-2,-2,0,0.955078,-0.125977,-0.00878906,-6,-66.5,-17.875,1.72952,-1.52358,2.46689
74,0,-2,-1,-3,-1,-1,1,-2,0.955078,-0.125977,-0.00878906,-6,-66.5,-17.875,1.72952,-1.52358,2.46689
76,-2,-4,-4,0,-1,-2,-2,1,0.98584,-0.105469,0.00244141,3,-63.5625,-24.9375,2.07743,-1.51236,2.12062
76,-1,-2,0,0,-1,0,0,0,0.98584,-0.105469,0.00244141,3,-63.5625,-24.9375,2.07743,-1.51236,2.12062
87,-1,0,1,0,-3,-2,-1,0,0.98584,-0.105469,0.00244141,3,-63.5625,-24.9375,2.07743,-1.51236,2.12062
87,-1,-1,-1,0,-1,-1,-2,-2,0.98584,-0.105469,0.00244141,3,-63.5625,-24.9375,2.07743,-1.51236,2.12062
127,-1,-1,-1,-1,-1,0,-1,-2,1.09521,-0.00585938,0.00830078,-36.5,-60.875,-37.5,2.3781,-1.45217,1.79618
127,-1,-1,-1,0,-1,-2,-1,-2,1.09521,-0.00585938,0.00830078,-36.5,-60.875,-37.5,2.3781,-1.45217,1.79618
132,-1,-1,-1,-1,-2,-1,-1,-1,1.09521,-0.00585938,0.00830078,-36.5,-60.875,-37.5,2.3781,-1.45217,1.79618
132,-1,-1,-1,-1,1,0,0,-1,1.09521,-0.00585938,0.00830078,-36.5,-60.875,-37.5,2.3781,-1.45217,1.79618
132,-1,0,0,0,0,-1,-1,0,1.09521,-0.00585938,0.00830078,-36.5,-60.875,-37.5,2.3781,-1.45217,1.79618
132,-2,-2,-3,0,-2,1,0,-1,1.09521,-0.00585938,0.00830078,-36.5,-60.875,-37.5,2.3781,-1.45217,1.79618
134,-1,0,-1,0,0,-1,-1,0,1.09521,-0.00585938,0.00830078,-36.5,-60.875,-37.5,2.3781,-1.45217,1.79618
134,-1,1,4,-2,-2,0,-2,0,1.09521,-0.00585938,0.00830078,-36.5,-60.875,-37.5,2.3781,-1.45217,1.79618
147,-1,-2,-8,-1,-1,-1,-1,-2,1.09521,-0.00585938,0.00830078,-36.5,-60.875,-37.5,2.3781,-1.45217,1.79618
147,0,-2,0,-1,-2,-2,-2,-1,1.09521,-0.00585938,0.00830078,-36.5,-60.875,-37.5,2.3781,-1.45217,1.79618
148,0,-1,-1,0,-1,0,-2,-2,1.08301,0.0180664,0.0249023,-44.6875,-58.375,-36,2.39329,-1.43216,1.7644
148,0,0,1,1,-1,-3,-1,0,1.08301,0.0180664,0.0249023,-44.6875,-58.375,-36,2.39329,-1.43216,1.7644
161,2,1,2,0,-1,1,0,-1,1.08301,0.0180664,0.0249023,-44.6875,-58.375,-36,2.39329,-1.43216,1.7644
161,0,1,-1,-1,0,-1,-1,0,1.08301,0.0180664,0.0249023,-44.6875,-58.375,-36,2.39329,-1.43216,1.7644
170,-1,-1,-4,0,0,-1,-1,-1,1.04199,0.0644531,-0.000488281,-46.9375,-55.5,-31.875,2.40228,-1.41391,1.73964
170,-1,-1,-3,-2,-1,-1,0,-1,1.04199,0.0644531,-0.000488281,-46.9375,-55.5,-31.875,2.40228,-1.41391,1.73964
176,-1,-3,1,-2,-1,-1,-3,-2,1.04199,0.0644531,-0.000488281,-46.9375,-55.5,-31.875,2.40228,-1.41391,1.73964
176,-1,0,3,0,1,0,-1,1,1.04199,0.0644531,-0.000488281,-46.9375,-55.5,-31.875,2.40228,-1.41391,1.73964
198,-1,0,-3,-3,0,0,-1,-2,0.978516,0.116699,-0.0258789,-45.125,-50.875,-24.4375,2.40944,-1.39689,1.71613
198,-1,-2,-5,0,0,-2,-1,0,0.978516,0.116699,-0.0258789,-45.125,-50.875,-24.4375,2.40944,-1.39689,1.71613
199,0,-1,4,-1,0,0,0,-1,0.978516,0.116699,-0.0258789,-45.125,-50.875,-24.4375,2.40944,-1.39689,1.71613
199,-1,-3,-3,0,-1,-1,-1,-1,0.978516,0.116699,-0.0258789,-45.125,-50.875,-24.4375,2.40944,-1.39689,1.71613
213,0,1,4,0,0,0,-2,0,0.942383,0.123535,-0.0439453,-36.125,-46.6875,-18.8125,2.41994,-1.38185,1.69217
213,-1,-1,-4,-3,-1,0,-1,1,0.942383,0.123535,-0.0439453,-36.125,-46.6875,-18.8125,2.41994,-1.38185,1.69217
221,0,-2,-1,0,-2,-2,-2,1,0.942383,0.123535,-0.0439453,-36.125,-46.6875,-18.8125,2.41994,-1.38185,1.69217
221,-1,-1,-2,-3,0,-2,-1,-1,0.942383,0.123535,-0.0439453,-36.125,-46.6875,-18.8125,2.41994,-1.38185,1.69217
236,-2,-1,2,-1,-1,0,2,-1,0.945801,0.0986328,-0.0600586,-28.9375,-42.125,-15.75,2.43261,-1.36875,1.66804
236,0,-2,-1,-2,-2,0,0,-2,0.945801,0.0986328,-0.0600586,-28.9375,-42.125,-15.75,2.43261,-1.36875,1.66804
237,0,-1,-1,0,-2,0,-1,-1,0.945801,0.0986328,-0.0600586,-28.9375,-42.125,-15.75,2.43261,-1.36875,1.66804
237,0,0,1,-2,-1,-1,-1,-1,0.945801,0.0986328,-0.0600586,-28.9375,-42.125,-15.75,2.43261,-1.36875,1.66804
259,-2,1,-1,-1,-1,-2,-2,0,0.946777,0.0585938,-0.0761719,-25.6875,-36.25,-15.3125,2.44398,-1.35862,1.64786
259,-2,-1,1,0,-3,-3,-1,-1,0.946777,0.0585938,-0.0761719,-25.6875,-36.25,-15.3125,2.44398,-1.35862,1.64786
259,-1,-2,-10,-1,-1,0,0,-1,0.946777,0.0585938,-0.0761719,-25.6875,-36.25,-15.3125,2.44398,-1.35862,1.64786
259,-1,-2,1,-1,-3,-1,1,-1,0.946777,0.0585938,-0.0761719,-25.6875,-36.25,-15.3125,2.44398,-1.35862,1.64786
273,0,-1,-1,-1,-1,0,-1,-3,0.949219,0.0375977,-0.0722656,-21.875,-31.3125,-14.5625,2.45196,-1.3501,1.63191
273,-1,0,7,1,0,0,-1,-1,0.949219,0.0375977,-0.0722656,-21.875,-31.3125,-14.5625,2.45196,-1.3501,1.63191
280,-1,0,-2,-2,0,-1,-1,0,0.949219,0.0375977,-0.0722656,-21.875,-31.3125,-14.5625,2.45196,-1.3501,1.63191
280,-2,-2,-4,0,-1,-2,-3,-2,0.949219,0.0375977,-0.0722656,-21.875,-31.3125,-14.5625,2.45196,-1.3501,1.63191
304,-1,-2,-3,-2,-2,-2,0,1,0.954102,0.0244141,-0.0810547,-20.1875,-26.625,-14.8125,2.45647,-1.34269,1.61943
304,-1,0,0,-1,0,-2,-1,-3,0.954102,0.0244141,-0.0810547,-20.1875,-26.625,-14.8125,2.45647,-1.34269,1.61943
305,-1,0,1,-2,-2,-1,-2,-1,0.954102,0.0244141,-0.0810547,-20.1875,-26.625,-14.8125,2.45647,-1.34269,1.61943
305,-2,-1,0,0,-1,1,-1,0,0.954102,0.0244141,-0.0810547,-20.1875,-26.625,-14.8125,2.45647,-1.34269,1.61943
319,-1,0,2,0,-1,-1,-2,-2,0.942871,0.0478516,-0.0996094,-22.0625,-22.1875,-13.75,2.45647,-1.33647,1.61176
319,-1,1,-3,-1,0,0,0,-1,0.942871,0.0478516,-0.0996094,-22.0625,-22.1875,-13.75,2.45647,-1.33647,1.61176
319,-3,0,0,0,1,0,1,-1,0.942871,0.0478516,-0.0996094,-22.0625,-22.1875,-13.75,2.45647,-1.33647,1.61176
319,-1,-1,-5,-2,-1,1,-1,-2,0.942871,0.0478516,-0.0996094,-22.0625,-22.1875,-13.75,2.45647,-1.33647,1.61176
333,-1,-2,-1,-2,-1,0,-1,1,0.92627,0.0898438,-0.118164,-27.1875,-17.375,-10.9375,2.4513,-1.33154,1.60781
333,-2,-2,-4,-1,0,0,-1,-1,0.92627,0.0898438,-0.118164,-27.1875,-17.375,-10.9375,2.4513,-1.33154,1.60781
341,0,-1,0,-1,-3,-3,-1,0,0.92627,0.0898438,-0.118164,-27.1875,-17.375,-10.9375,2.4513,-1.33154,1.60781
341,-1,0,0,0,-2,-1,0,1,0.92627,0.0898438,-0.118164,-27.1875,-17.375,-10.9375,2.4513,-1.33154,1.60781
357,-2,0,-2,-1,-3,-1,0,-1,0.907227,0.114258,-0.117188,-28.125,-13.0625,-8.1875,2.44312,-1.32769,1.60595
357,0,-2,-3,-1,-1,0,-2,0,0.907227,0.114258,-0.117188,-28.125,-13.0625,-8.1875,2.44312,-1.32769,1.60595
357,-1,0,2,0,0,0,-2,-1,0.907227,0.114258,-0.117188,-28.125,-13.0625,-8.1875,2.44312,-1.32769,1.60595
357,1,1,1,-1,-1,0,1,0,0.907227,0.114258,-0.117188,-28.125,-13.0625,-8.1875,2.44312,-1.32769,1.60595
379,-1,-3,-3,1,0,-1,0,-2,0.916504,0.116211,-0.128906,-27.1875,-9.75,-6.5,2.43504,-1.32493,1.60442
379,0,-1,-2,-1,0,1,-2,-1,0.916504,0.116211,-0.128906,-27.1875,-9.75,-6.5,2.43504,-1.32493,1.60442
379,0,0,2,-1,0,-1,1,-1,0.916504,0.116211,-0.128906,-27.1875,-9.75,-6.5,2.43504,-1.32493,1.60442
379,-2,-1,-2,-1,0,-1,-3,0,0.916504,0.116211,-0.128906,-27.1875,-9.75,-6.5,2.43504,-1.32493,1.60442
401,1,1,1,-1,-1,-1,-1,-2,0.912109,0.124023,-0.145996,-26.3125,-5.8125,-4.9375,2.42634,-1.32317,1.60379
401,-3,-3,0,0,-2,-2,0,-1,0.912109,0.124023,-0.145996,-26.3125,-5.8125,-4.9375,2.42634,-1.32317,1.60379
401,-1,-2,0,-1,-1,-1,-2,0,0.912109,0.124023,-0.145996,-26.3125,-5.8125,-4.9375,2.42634,-1.32317,1.60379
401,-2,-2,-2,0,1,-2,-1,-1,0.912109,0.124023,-0.145996,-26.3125,-5.8125,-4.9375,2.42634,-1.32317,1.60379
424,0,1,1,1,-1,0,-2,1,0.912598,0.132812,-0.148926,-22.625,-2.75,-2.375,2.41808,-1.3228,1.6044
424,1,0,-4,-1,-2,1,-2,-1,0.912598,0.132812,-0.148926,-22.625,-2.75,-2.375,2.41808,-1.3228,1.6044
425,1,-2,0,-2,-3,-1,0,0,0.912598,0.132812,-0.148926,-22.625,-2.75,-2.375,2.41808,-1.3228,1.6044
425,-1,-1,0,1,0,0,-1,-2,0.912598,0.132812,-0.148926,-22.625,-2.75,-2.375,2.41808,-1.3228,1.6044
449,0,-2,-2,-1,0,1,-1,0,0.939453,0.130859,-0.167969,-19.5,-0.5,-0.4375,2.41265,-1.32306,1.60286
449,-1,-2,-2,-1,-1,-2,0,0,0.939453,0.130859,-0.167969,-19.5,-0.5,-0.4375,2.41265,-1.32306,1.60286
449,-1,-1,-1,-2,-1,-2,-2,-2,0.939453,0.130859,-0.167969,-19.5,-0.5,-0.4375,2.41265,-1.32306,1.60286
449,1,-1,-2,-1,-3,-2,1,-2,0.939453,0.130859,-0.167969,-19.5,-0.5,-0.4375,2.41265,-1.32306,1.60286
461,-3,-1,-2,-1,0,-1,1,-2,0.95752,0.140137,-0.175293,-20,2.4375,3,2.40772,-1.3249,1.601
461,-2,-2,0,-2,-1,-1,-1,-2,0.95752,0.140137,-0.175293,-20,2.4375,3,2.40772,-1.3249,1.601
462,-1,0,-1,0,-1,1,-2,-2,0.95752,0.140137,-0.175293,-20,2.4375,3,2.40772,-1.3249,1.601
462,0,-3,1,-1,-1,0,-1,0,0.95752,0.140137,-0.175293,-20,2.4375,3,2.40772,-1.3249,1.601
476,0,0,2,-1,0,-3,-1,-1,0.943848,0.148926,-0.164551,-17.375,4.125,6.9375,2.40535,-1.32802,1.59728
476,-2,-2,-2,-3,-1,0,0,-2,0.943848,0.148926,-0.164551,-17.375,4.125,6.9375,2.40535,-1.32802,1.59728
477,-1,0,-1,-1,0,-1,0,-1,0.943848,0.148926,-0.164551,-17.375,4.125,6.9375,2.40535,-1.32802,1.59728
477,0,-1,0,-1,0,-1,1,-2,0.943848,0.148926,-0.164551,-17.375,4.125,6.9375,2.40535,-1.32802,1.59728
499,-2,-3,-4,0,-3,-1,0,0,0.936035,0.146484,-0.167969,-11.8125,4.0625,9.8125,2.40831,-1.33165,1.59037
499,-2,-1,1,-1,-1,-2,0,-1,0.936035,0.146484,-0.167969,-11.8125,4.0625,9.8125,2.40831,-1.33165,1.59037
500,4,1,0,0,-1,0,-2,0,0.936035,0.146484,-0.167969,-11.8125,4.0625,9.8125,2.40831,-1.33165,1.59037
500,-3,-2,-3,-2,-1,-2,-1,-2,0.936035,0.146484,-0.167969,-11.8125,4.0625,9.8125,2.40831,-1.33165,1.59037
521,1,0,-1,-1,-2,-2,-2,-1,0.914551,0.141602,-0.165527,-6.5,3.5625,10.875,2.41411,-1.33493,1.58164
521,1,0,0,-1,-1,-1,-1,1,0.914551,0.141602,-0.165527,-6.5,3.5625,10.875,2.41411,-1.33493,1.58164
522,1,2,4,-2,-1,0,-1,-2,0.914551,0.141602,-0.165527,-6.5,3.5625,10.875,2.41411,-1.33493,1.58164
522,-1,-3,-6,-1,-1,-2,0,0,0.914551,0.141602,-0.165527,-6.5,3.5625,10.875,2.41411,-1.33493,1.58164
536,0,-2,-3,-2,-1,-1,0,-1,0.894531,0.143066,-0.16748,-4.75,2.8125,11.125,2.42215,-1.33818,1.57171
536,-3,0,-1,-1,-2,-1,-3,-2,0.894531,0.143066,-0.16748,-4.75,2.8125,11.125,2.42215,-1.33818,1.57171
537,0,-4,0,0,1,0,-1,0,0.894531,0.143066,-0.16748,-4.75,2.8125,11.125,2.42215,-1.33818,1.57171
537,2,3,4,0,-1,0,-1,1,0.894531,0.143066,-0.16748,-4.75,2.8125,11.125,2.42215,-1.33818,1.57171
559,-4,-2,-1,-1,-2,-2,-1,-3,0.902344,0.125977,-0.17627,-4.4375,1,10.0625,2.43305,-1.34054,1.55889
559,3,0,1,0,-1,0,1,-2,0.902344,0.125977,-0.17627,-4.4375,1,10.0625,2.43305,-1.34054,1.55889
559,-2,-3,-4,-2,-1,-1,-1,-2,0.902344,0.125977,-0.17627,-4.4375,1,10.0625,2.43305,-1.34054,1.55889
559,-4,-3,-1,0,-1,-2,-2,-2,0.902344,0.125977,-0.17627,-4.4375,1,10.0625,2.43305,-1.34054,1.55889
581,0,-1,-1,-2,-2,0,-2,-1,0.921875,0.106934,-0.179199,-4.5625,-1,9.3125,2.44679,-1.34254,1.54327
581,-1,-1,0,-1,-2,-1,-2,0,0.921875,0.106934,-0.179199,-4.5625,-1,9.3125,2.44679,-1.34254,1.54327
582,-3,-1,-1,-1,-1,0,-1,-2,0.921875,0.106934,-0.179199,-4.5625,-1,9.3125,2.44679,-1.34254,1.54327
582,0,0,1,-1,-2,1,-1,-1,0.921875,0.106934,-0.179199,-4.5625,-1,9.3125,2.44679,-1.34254,1.54327
596,-1,-2,-1,-1,0,1,-2,1,0.929199,0.105469,-0.197266,-5.9375,-1.0625,10,2.46178,-1.34434,1.52604
596,-1,-2,-1,1,0,-1,-1,0,0.929199,0.105469,-0.197266,-5.9375,-1.0625,10,2.46178,-1.34434,1.52604
597,-2,-1,-2,-1,-1,-2,1,-1,0.929199,0.105469,-0.197266,-5.9375,-1.0625,10,2.46178,-1.34434,1.52604
597,1,0,-1,-3,-1,-2,0,-1,0.929199,0.105469,-0.197266,-5.9375,-1.0625,10,2.46178,-1.34434,1.52604
619,1,1,1,-2,0,-1,1,-2,0.933594,0.125488,-0.205078,-3.6875,-1,11.4375,2.47792,-1.34619,1.50846
619,0,-1,-1,-1,-1,1,0,-1,0.933594,0.125488,-0.205078,-3.6875,-1,11.4375,2.47792,-1.34619,1.50846
619,-1,-2,-2,-1,-1,-2,0,0,0.933594,0.125488,-0.205078,-3.6875,-1,11.4375,2.47792,-1.34619,1.50846
619,-2,-1,-2,-1,-1,0,-1,-2,0.933594,0.125488,-0.205078,-3.6875,-1,11.4375,2.47792,-1.34619,1.50846
641,-1,-2,-1,0,-2,-2,-1,-1,0.939453,0.131836,-0.216309,-2.875,-0.8125,11.9375,2.49528,-1.3476,1.48998
641,-1,0,-1,-1,-1,-1,-2,-2,0.939453,0.131836,-0.216309,-2.875,-0.8125,11.9375,2.49528,-1.3476,1.48998
641,1,0,-1,-1,1,-1,-2,0,0.939453,0.131836,-0.216309,-2.875,-0.8125,11.9375,2.49528,-1.3476,1.48998
641,-1,-1,-1,0,0,-1,-2,-2,0.939453,0.131836,-0.216309,-2.875,-0.8125,11.9375,2.49528,-1.3476,1.48998
656,-2,1,5,0,-1,0,-1,-1,0.958496,0.134277,-0.212891,-2.5625,-1.75,12.0625,2.51262,-1.34883,1.4713
656,-1,-1,-9,-3,-2,-1,-1,-1,0.958496,0.134277,-0.212891,-2.5625,-1.75,12.0625,2.51262,-1.34883,1.4713
657,-2,-2,-3,-1,0,-1,-2,-1,0.958496,0.134277,-0.212891,-2.5625,-1.75,12.0625,2.51262,-1.34883,1.4713
657,0,-3,-1,-1,-1,-1,0,-1,0.958496,0.134277,-0.212891,-2.5625,-1.75,12.0625,2.51262,-1.34883,1.4713
679,0,1,1,0,-1,-2,0,-1,0.987793,0.120117,-0.207031,-1.75,-3,12.625,2.53273,-1.35004,1.45
679,-1,1,3,-1,-1,-1,-3,-1,0.987793,0.120117,-0.207031,-1.75,-3,12.625,2.53273,-1.35004,1.45
679,0,-1,-1,0,-1,-1,-1,-2,0.987793,0.120117,-0.207031,-1.75,-3,12.625,2.53273,-1.35004,1.45
679,-2,-1,-3,-1,-1,-1,-3,0,0.987793,0.120117,-0.207031,-1.75,-3,12.625,2.53273,-1.35004,1.45
701,-1,-2,-1,-1,-1,0,-1,-1,0.999023,0.114746,-0.21875,-1,-3.5,14.4375,2.55728,-1.35156,1.42494
701,-2,0,2,0,-1,0,1,-1,0.999023,0.114746,-0.21875,-1,-3.5,14.4375,2.55728,-1.35156,1.42494
701,-2,-1,-5,-1,-1,-1,0,-1,0.999023,0.114746,-0.21875,-1,-3.5,14.4375,2.55728,-1.35156,1.42494
701,0,-3,0,-1,0,-2,0,-2,0.999023,0.114746,-0.21875,-1,-3.5,14.4375,2.55728,-1.35156,1.42494
716,0,0,-3,-2,-1,0,-1,0,0.986816,0.12207,-0.219238,-1.0625,-3.5625,15.5,2.58129,-1.35249,1.39971
716,-1,-2,0,-1,-1,-1,-3,0,0.986816,0.12207,-0.219238,-1.0625,-3.5625,15.5,2.58129,-1.35249,1.39971
717,-2,0,1,0,-1,0,0,-2,0.986816,0.12207,-0.219238,-1.0625,-3.5625,15.5,2.58129,-1.35249,1.39971
717,-1,1,0,0,-2,-2,-1,1,0.986816,0.12207,-0.219238,-1.0625,-3.5625,15.5,2.58129,-1.35249,1.39971
738,2,-3,-1,-1,0,-1,0,0,0.989746,0.123047,-0.227051,-1.9375,-3.5625,14.75,2.60492,-1.35348,1.37518
738,0,-2,-2,-1,-1,-1,-1,-3,0.989746,0.123047,-0.227051,-1.9375,-3.5625,14.75,2.60492,-1.35348,1.37518
739,-1,-1,-1,-1,-1,0,-1,-1,0.989746,0.123047,-0.227051,-1.9375,-3.5625,14.75,2.60492,-1.35348,1.37518
739,0,2,-1,-1,0,-2,-2,-1,0.989746,0.123047,-0.227051,-1.9375,-3.5625,14.75,2.60492,-1.35348,1.37518
761,-1,-1,-2,-2,-1,-1,-2,0,0.994141,0.102539,-0.225586,-2.9375,-4.0625,13.9375,2.62882,-1.35384,1.34964
761,0,0,1,1,-1,-3,-1,-1,0.994141,0.102539,-0.225586,-2.9375,-4.0625,13.9375,2.62882,-1.35384,1.34964
761,-2,-3,-2,-2,-2,-2,-2,-1,0.994141,0.102539,-0.225586,-2.9375,-4.0625,13.9375,2.62882,-1.35384,1.34964
761,1,1,0,0,1,-1,-1,-1,0.994141,0.102539,-0.225586,-2.9375,-4.0625,13.9375,2.62882,-1.35384,1.34964
776,-2,-3,-1,-1,-1,-2,0,-1,0.994141,0.0834961,-0.208984,-1.625,-5.25,12.8125,2.65236,-1.35412,1.32477
776,-1,-1,-1,-2,-1,-2,1,-1,0.994141,0.0834961,-0.208984,-1.625,-5.25,12.8125,2.65236,-1.35412,1.32477
777,1,3,0,-1,-1,-2,-2,0,0.994141,0.0834961,-0.208984,-1.625,-5.25,12.8125,2.65236,-1.35412,1.32477
777,-1,-3,-3,-1,0,2,1,-2,0.994141,0.0834961,-0.208984,-1.625,-5.25,12.8125,2.65236,-1.35412,1.32477
799,-3,-2,-5,-2,-3,-1,-1,-1,1.00879,0.0854492,-0.209961,-1,-6.375,10.75,2.6744,-1.35412,1.30242
799,0,-1,-2,-1,-1,-1,1,0,1.00879,0.0854492,-0.209961,-1,-6.375,10.75,2.6744,-1.35412,1.30242
799,0,0,-1,-1,-1,-2,0,-1,1.00879,0.0854492,-0.209961,-1,-6.375,10.75,2.6744,-1.35412,1.30242
799,1,6,-1,-1,-1,-1,0,-3,1.00879,0.0854492,-0.209961,-1,-6.375,10.75,2.6744,-1.35412,1.30242
822,-1,-3,-1,0,-1,-2,-2,-2,1.0127,0.0917969,-0.21875,-1.125,-6.625,9.3125,2.69299,-1.35333,1.2831
822,-2,-10,-1,-2,-1,0,-1,-1,1.0127,0.0917969,-0.21875,-1.125,-6.625,9.3125,2.69299,-1.35333,1.2831
822,0,2,0,-1,-1,-2,0,0,1.0127,0.0917969,-0.21875,-1.125,-6.625,9.3125,2.69299,-1.35333,1.2831
822,-1,-2,0,-3,-1,-1,-1,0,1.0127,0.0917969,-0.21875,-1.125,-6.625,9.3125,2.69299,-1.35333,1.2831
836,1,5,1,0,-1,0,1,0,1.00391,0.0932617,-0.227539,-3.8125,-5.9375,8.0625,2.70822,-1.352,1.26607
836,0,2,-1,-2,1,-1,-2,-1,1.00391,0.0932617,-0.227539,-3.8125,-5.9375,8.0625,2.70822,-1.352,1.26607
836,-1,0,-1,0,0,0,0,-1,1.00391,0.0932617,-0.227539,-3.8125,-5.9375,8.0625,2.70822,-1.352,1.26607
836,-1,-3,-1,-2,-2,-2,0,-2,1.00391,0.0932617,-0.227539,-3.8125,-5.9375,8.0625,2.70822,-1.352,1.26607
859,-1,-2,-2,-1,1,0,-2,1,1.00195,0.0981445,-0.228027,-5.8125,-5.5625,7.25,2.72034,-1.35049,1.2512
859,-2,2,0,0,-1,0,-1,-2,1.00195,0.0981445,-0.228027,-5.8125,-5.5625,7.25,2.72034,-1.35049,1.2512
860,-1,-3,-1,-2,-2,-2,-1,-1,1.00195,0.0981445,-0.228027,-5.8125,-5.5625,7.25,2.72034,-1.35049,1.2512
860,-1,-3,0,0,0,1,-1,0,1.00195,0.0981445,-0.228027,-5.8125,-5.5625,7.25,2.72034,-1.35049,1.2512
881,-1,1,-2,-2,-1,-2,-1,0,0.98877,0.0927734,-0.225586,-5.4375,-5.0625,6.0625,2.73067,-1.34947,1.23901
881,0,1,-2,-2,-2,-1,-1,-1,0.98877,0.0927734,-0.225586,-5.4375,-5.0625,6.0625,2.73067,-1.34947,1.23901
882,0,-2,-2,0,-1,0,0,-2,0.98877,0.0927734,-0.225586,-5.4375,-5.0625,6.0625,2.73067,-1.34947,1.23901
882,-2,-2,-1,1,-2,-2,-1,-1,0.98877,0.0927734,-0.225586,-5.4375,-5.0625,6.0625,2.73067,-1.34947,1.23901
896,-2,-1,-1,-1,0,0,0,-1,0.98291,0.0893555,-0.219238,-4.875,-4.5,4.75,2.739,-1.34849,1.22889
896,1,-2,-3,-2,-1,-1,-2,1,0.98291,0.0893555,-0.219238,-4.875,-4.5,4.75,2.739,-1.34849,1.22889
897,-1,-1,-2,-2,-1,0,0,-1,0.98291,0.0893555,-0.219238,-4.875,-4.5,4.75,2.739,-1.34849,1.22889
897,-1,-8,-2,-1,-1,-1,0,-1,0.98291,0.0893555,-0.219238,-4.875,-4.5,4.75,2.739,-1.34849,1.22889
918,4,7,1,-1,-1,-2,-1,-4,0.989746,0.0878906,-0.22168,-3.75,-4.4375,3.5625,2.74632,-1.34716,1.21999
918,-2,0,-1,0,-1,-1,-1,-2,0.989746,0.0878906,-0.22168,-3.75,-4.4375,3.5625,2.74632,-1.34716,1.21999
919,-2,1,-2,-2,-1,-1,-4,-1,0.989746,0.0878906,-0.22168,-3.75,-4.4375,3.5625,2.74632,-1.34716,1.21999
919,-2,-1,-1,1,-1,-1,-2,-1,0.989746,0.0878906,-0.22168,-3.75,-4.4375,3.5625,2.74632,-1.34716,1.21999
942,-2,-4,-1,-1,-2,0,-3,1,0.988281,0.0839844,-0.224609,-5.6875,-3.625,2.8125,2.75102,-1.34586,1.21298
942,2,2,0,-1,-1,-2,1,-1,0.988281,0.0839844,-0.224609,-5.6875,-3.625,2.8125,2.75102,-1.34586,1.21298
942,1,0,1,0,-2,-1,0,0,0.988281,0.0839844,-0.224609,-5.6875,-3.625,2.8125,2.75102,-1.34586,1.21298
942,-2,4,0,1,0,0,-2,-1,0.988281,0.0839844,-0.224609,-5.6875,-3.625,2.8125,2.75102,-1.34586,1.21298
956,-2,-14,-2,-1,0,0,-1,-1,0.981445,0.081543,-0.225586,-7.4375,-3.125,1.3125,2.75299,-1.34475,1.20829
956,-1,3,0,-1,0,-2,-2,0,0.981445,0.081543,-0.225586,-7.4375,-3.125,1.3125,2.75299,-1.34475,1.20829
957,-1,-1,0,-1,-1,-1,2,0,0.981445,0.081543,-0.225586,-7.4375,-3.125,1.3125,2.75299,-1.34475,1.20829
957,0,0,0,-2,-2,-1,-1,-1,0.981445,0.081543,-0.225586,-7.4375,-3.125,1.3125,2.75299,-1.34475,1.20829
979,-1,5,-1,0,-1,0,0,0,0.983887,0.0678711,-0.213867,-7.1875,-3.0625,0.5625,2.75507,-1.34407,1.20391
979,-2,-2,-2,0,0,1,-1,-3,0.983887,0.0678711,-0.213867,-7.1875,-3.0625,0.5625,2.75507,-1.34407,1.20391
979,-1,-5,0,-2,-3,-1,-1,-1,0.983887,0.0678711,-0.213867,-7.1875,-3.0625,0.5625,2.75507,-1.34407,1.20391
979,0,2,-1,-1,-3,-1,-2,-1,0.983887,0.0678711,-0.213867,-7.1875,-3.0625,0.5625,2.75507,-1.34407,1.20391
1001,1,-4,-2,-3,-2,-1,0,-1,0.994629,0.0610352,-0.219727,-6.5,-2.5,-0.3125,2.75688,-1.34326,1.19969
1001,-1,0,1,-1,-1,-2,0,0,0.994629,0.0610352,-0.219727,-6.5,-2.5,-0.3125,2.75688,-1.34326,1.19969
1002,-2,0,-1,0,1,0,-2,-1,0.994629,0.0610352,-0.219727,-6.5,-2.5,-0.3125,2.75688,-1.34326,1.19969
1002,-2,-1,-1,-1,0,-3,-1,0,0.994629,0.0610352,-0.219727,-6.5,-2.5,-0.3125,2.75688,-1.34326,1.19969
1015,-2,0,-2,-1,-1,-1,-1,-1,0.988281,0.0605469,-0.227051,-5.5,-1.5625,-0.875,2.75745,-1.34286,1.19768
1015,-1,-3,-1,0,-1,0,0,0,0.988281,0.0605469,-0.227051,-5.5,-1.5625,-0.875,2.75745,-1.34286,1.19768
1023,0,-2,-2,0,0,0,-2,-1,0.988281,0.0605469,-0.227051,-5.5,-1.5625,-0.875,2.75745,-1.34286,1.19768
1023,-1,-1,-2,-2,0,-1,-2,0,0.988281,0.0605469,-0.227051,-5.5,-1.5625,-0.875,2.75745,-1.34286,1.19768
1039,-1,-2,-1,1,-1,-2,-1,0,0.984863,0.074707,-0.214844,-6.1875,-1,-0.4375,2.75669,-1.34255,1.19637
1039,0,-2,-1,-2,-2,-1,-1,-1,0.984863,0.074707,-0.214844,-6.1875,-1,-0.4375,2.75669,-1.34255,1.19637
1046,-2,-1,-1,0,-2,-2,-1,-1,0.984863,0.074707,-0.214844,-6.1875,-1,-0.4375,2.75669,-1.34255,1.19637
1046,0,-2,-1,-2,-1,-1,-2,-1,0.984863,0.074707,-0.214844,-6.1875,-1,-0.4375,2.75669,-1.34255,1.19637
1061,-2,2,0,0,-2,-1,-1,-1,0.980469,0.0629883,-0.211426,-4.1875,-0.875,-0.1875,2.75781,-1.34237,1.19369
1061,0,-3,-1,-1,-1,-2,-1,0,0.980469,0.0629883,-0.211426,-4.1875,-0.875,-0.1875,2.75781,-1.34237,1.19369
1061,-1,0,-2,-1,1,0,-2,-1,0.980469,0.0629883,-0.211426,-4.1875,-0.875,-0.1875,2.75781,-1.34237,1.19369
1061,1,-3,-2,-1,-1,0,-2,0,0.980469,0.0629883,-0.211426,-4.1875,-0.875,-0.1875,2.75781,-1.34237,1.19369
1084,-1,-1,0,-2,-3,0,-2,-1,0.982422,0.0561523,-0.215332,-5.8125,-0.5,-0.4375,2.75843,-1.34237,1.1911
1084,-4,-1,0,-1,0,1,-1,-1,0.982422,0.0561523,-0.215332,-5.8125,-0.5,-0.4375,2.75843,-1.34237,1.1911
1085,0,-1,-1,-2,-1,0,-1,-1,0.982422,0.0561523,-0.215332,-5.8125,-0.5,-0.4375,2.75843,-1.34237,1.1911
1085,-1,-2,1,0,0,0,1,-1,0.982422,0.0561523,-0.215332,-5.8125,-0.5,-0.4375,2.75843,-1.34237,1.1911
1108,0,0,-1,0,0,-2,0,0,0.973145,0.0405273,-0.209961,-6.125,-0.625,-0.8125,2.75955,-1.34245,1.18792
1108,-1,0,-1,1,1,0,-2,0,0.973145,0.0405273,-0.209961,-6.125,-0.625,-0.8125,2.75955,-1.34245,1.18792
1109,0,-7,-2,-2,0,0,-1,-1,0.973145,0.0405273,-0.209961,-6.125,-0.625,-0.8125,2.75955,-1.34245,1.18792
1109,-3,-3,-2,-1,-2,0,-1,-1,0.973145,0.0405273,-0.209961,-6.125,-0.625,-0.8125,2.75955,-1.34245,1.18792
1121,0,0,-1,-1,0,-1,-1,-2,0.978027,0.0400391,-0.208008,-5.4375,-0.625,-1.0625,2.76139,-1.34263,1.18444
1121,-1,-3,-1,-1,-1,-2,-2,0,0.978027,0.0400391,-0.208008,-5.4375,-0.625,-1.0625,2.76139,-1.34263,1.18444
1122,0,3,0,0,-3,-1,-1,-1,0.978027,0.0400391,-0.208008,-5.4375,-0.625,-1.0625,2.76139,-1.34263,1.18444
1122,-2,0,0,-3,0,0,0,-1,0.978027,0.0400391,-0.208008,-5.4375,-0.625,-1.0625,2.76139,-1.34263,1.18444
1144,-2,-1,-2,-1,0,1,-1,-1,0.966309,0.0332031,-0.217773,-3.0625,-0.75,-0.9375,2.76466,-1.34248,1.18021
1144,1,-4,-2,-1,-2,-1,0,-1,0.966309,0.0332031,-0.217773,-3.0625,-0.75,-0.9375,2.76466,-1.34248,1.18021
1145,0,1,-1,-2,-1,-1,-1,-2,0.966309,0.0332031,-0.217773,-3.0625,-0.75,-0.9375,2.76466,-1.34248,1.18021
1145,-1,-1,1,-2,-1,-2,0,-2,0.966309,0.0332031,-0.217773,-3.0625,-0.75,-0.9375,2.76466,-1.34248,1.18021
1167,-2,1,0,-2,-3,0,-1,-1,0.970215,0.0449219,-0.21875,-2.125,-1.125,-1.25,2.76721,-1.34198,1.1768
1167,1,2,-1,0,0,0,-1,0,0.970215,0.0449219,-0.21875,-2.125,-1.125,-1.25,2.76721,-1.34198,1.1768
1168,-2,-5,-1,-1,-2,1,-1,1,0.970215,0.0449219,-0.21875,-2.125,-1.125,-1.25,2.76721,-1.34198,1.1768
1168,0,-1,-2,-3,-2,-1,-1,-1,0.970215,0.0449219,-0.21875,-2.125,-1.125,-1.25,2.76721,-1.34198,1.1768
1181,-1,0,-1,-2,0,-2,-1,-1,0.973633,0.050293,-0.22168,-1.0625,-0.9375,-0.5625,2.76974,-1.34176,1.17404
1181,-1,2,0,1,-2,-1,0,-1,0.973633,0.050293,-0.22168,-1.0625,-0.9375,-0.5625,2.76974,-1.34176,1.17404
1182,-3,-13,-1,2,-2,-2,-1,-2,0.973633,0.050293,-0.22168,-1.0625,-0.9375,-0.5625,2.76974,-1.34176,1.17404
1182,0,1,0,-1,-2,-1,-1,1,0.973633,0.050293,-0.22168,-1.0625,-0.9375,-0.5625,2.76974,-1.34176,1.17404
1204,0,-2,-1,0,-1,0,-2,-1,0.96582,0.0551758,-0.21875,-0.875,-0.125,0.625,2.77064,-1.34188,1.17345
1204,0,1,-1,-2,-3,-2,0,1,0.96582,0.0551758,-0.21875,-0.875,-0.125,0.625,2.77064,-1.34188,1.17345
1205,0,2,-1,-1,1,-3,-1,-2,0.96582,0.0551758,-0.21875,-0.875,-0.125,0.625,2.77064,-1.34188,1.17345
1205,0,0,0,-1,0,-1,0,-1,0.96582,0.0551758,-0.21875,-0.875,-0.125,0.625,2.77064,-1.34188,1.17345
1227,-1,-2,0,0,-2,-1,0,0,0.96875,0.0566406,-0.225098,-1.5625,0.0625,1.4375,2.77492,-1.34212,1.16868
1227,-2,-2,-2,-1,0,1,-2,-2,0.96875,0.0566406,-0.225098,-1.5625,0.0625,1.4375,2.77492,-1.34212,1.16868
1228,-2,2,-1,-1,-2,-1,-1,-1,0.96875,0.0566406,-0.225098,-1.5625,0.0625,1.4375,2.77492,-1.34212,1.16868
1228,0,-2,-2,-2,-1,-1,-1,-1,0.96875,0.0566406,-0.225098,-1.5625,0.0625,1.4375,2.77492,-1.34212,1.16868
1249,-2,0,-1,-2,1,-1,0,-2,0.966797,0.0444336,-0.212891,-0.25,-0.5,2,2.78183,-1.34229,1.16155
1249,-1,-1,-1,-1,-1,-2,-1,0,0.966797,0.0444336,-0.212891,-0.25,-0.5,2,2.78183,-1.34229,1.16155
1250,-1,2,-1,-1,-1,0,0,0,0.966797,0.0444336,-0.212891,-0.25,-0.5,2,2.78183,-1.34229,1.16155
1250,1,5,-1,1,-2,-1,-1,-1,0.966797,0.0444336,-0.212891,-0.25,-0.5,2,2.78183,-1.34229,1.16155
1264,-1,-14,-1,-1,0,-2,-1,0,0.970703,0.0336914,-0.215332,1.5,-0.8125,2.625,2.79071,-1.3427,1.15318
1264,0,-6,-2,-1,-1,-2,-4,-3,0.970703,0.0336914,-0.215332,1.5,-0.8125,2.625,2.79071,-1.3427,1.15318
1265,-2,3,1,-1,0,-1,-1,-1,0.970703,0.0336914,-0.215332,1.5,-0.8125,2.625,2.79071,-1.3427,1.15318
1265,-1,0,-2,1,0,-2,1,-2,0.970703,0.0336914,-0.215332,1.5,-0.8125,2.625,2.79071,-1.3427,1.15318
1287,1,4,-1,0,-3,-1,-3,-1,0.977051,0.0390625,-0.213867,3.5,-1,3.25,2.80102,-1.34302,1.14412
1287,-3,-3,-2,-2,-3,0,-1,0,0.977051,0.0390625,-0.213867,3.5,-1,3.25,2.80102,-1.34302,1.14412
1288,0,-3,0,0,0,-3,-2,-1,0.977051,0.0390625,-0.213867,3.5,-1,3.25,2.80102,-1.34302,1.14412
1288,-1,-1,0,0,-1,-2,-1,0,0.977051,0.0390625,-0.213867,3.5,-1,3.25,2.80102,-1.34302,1.14412
1301,-1,-3,-1,-1,0,0,0,-1,0.977051,0.0478516,-0.217285,3.9375,-0.9375,4,2.811,-1.34302,1.13497
1301,0,0,0,-2,0,-1,0,-2,0.977051,0.0478516,-0.217285,3.9375,-0.9375,4,2.811,-1.34302,1.13497
1302,0,0,-1,-1,-1,-2,0,1,0.977051,0.0478516,-0.217285,3.9375,-0.9375,4,2.811,-1.34302,1.13497
1302,-1,-1,-2,0,-3,0,-2,0,0.977051,0.0478516,-0.217285,3.9375,-0.9375,4,2.811,-1.34302,1.13497
1325,-1,-1,0,-1,0,-2,-2,-2,0.977539,0.0473633,-0.224121,4.9375,-1,4.125,2.82206,-1.34315,1.12555
1325,-1,-1,-1,1,-1,-1,1,-2,0.977539,0.0473633,-0.224121,4.9375,-1,4.125,2.82206,-1.34315,1.12555
1325,0,-1,-4,-1,-1,-1,-1,-1,0.977539,0.0473633,-0.224121,4.9375,-1,4.125,2.82206,-1.34315,1.12555
1325,-1,-4,0,-1,0,0,-1,-1,0.977539,0.0473633,-0.224121,4.9375,-1,4.125,2.82206,-1.34315,1.12555
1347,0,5,0,0,-1,1,-1,0,0.976074,0.0517578,-0.221191,5.8125,-0.625,4.5625,2.83297,-1.34381,1.11705
1347,-1,6,-1,0,-1,0,0,0,0.976074,0.0517578,-0.221191,5.8125,-0.625,4.5625,2.83297,-1.34381,1.11705
1347,-1,-8,-1,-1,0,0,-1,-1,0.976074,0.0517578,-0.221191,5.8125,-0.625,4.5625,2.83297,-1.34381,1.11705
1347,0,5,-1,-1,-2,-2,-2,-2,0.976074,0.0517578,-0.221191,5.8125,-0.625,4.5625,2.83297,-1.34381,1.11705
1361,0,2,-1,0,-1,0,1,-2,0.977539,0.0507812,-0.22998,7.625,-0.125,4.3125,2.84404,-1.34411,1.10862
1361,0,3,-2,-2,0,-2,0,-3,0.977539,0.0507812,-0.22998,7.625,-0.125,4.3125,2.84404,-1.34411,1.10862
1362,0,4,1,0,-1,0,-1,0,0.977539,0.0507812,-0.22998,7.625,-0.125,4.3125,2.84404,-1.34411,1.10862
1362,-2,-4,0,2,1,1,0,-1,0.977539,0.0507812,-0.22998,7.625,-0.125,4.3125,2.84404,-1.34411,1.10862
1384,-3,-1,-2,-2,1,0,-1,1,0.983887,0.059082,-0.233398,6.5625,0.875,4.125,2.85288,-1.34465,1.10201
1384,0,-2,-2,0,0,-1,-1,0,0.983887,0.059082,-0.233398,6.5625,0.875,4.125,2.85288,-1.34465,1.10201
1385,0,-1,-2,-1,-2,-1,1,-2,0.983887,0.059082,-0.233398,6.5625,0.875,4.125,2.85288,-1.34465,1.10201
1385,-1,-2,-2,-2,0,-2,-1,-1,0.983887,0.059082,-0.233398,6.5625,0.875,4.125,2.85288,-1.34465,1.10201
1407,0,1,-1,0,-2,-2,-2,-1,0.975586,0.0556641,-0.230957,6.6875,1.8125,4.3125,2.86183,-1.34532,1.09517
1407,-2,-5,0,-2,-2,-1,-2,0,0.975586,0.0556641,-0.230957,6.6875,1.8125,4.3125,2.86183,-1.34532,1.09517
1408,-1,1,-1,-1,0,-2,0,0,0.975586,0.0556641,-0.230957,6.6875,1.8125,4.3125,2.86183,-1.34532,1.09517
1408,0,2,0,-1,-2,1,-1,0,0.975586,0.0556641,-0.230957,6.6875,1.8125,4.3125,2.86183,-1.34532,1.09517
1421,0,7,0,-1,-2,-2,-1,-1,0.978027,0.0517578,-0.230469,6.625,2.4375,3.6875,2.87016,-1.34604,1.08899
1421,-4,-16,-3,-1,0,-2,-2,-2,0.978027,0.0517578,-0.230469,6.625,2.4375,3.6875,2.87016,-1.34604,1.08899
1422,-1,3,-1,0,-1,0,-3,-1,0.978027,0.0517578,-0.230469,6.625,2.4375,3.6875,2.87016,-1.34604,1.08899
1422,-1,-5,-2,-1,-1,-1,-1,0,0.978027,0.0517578,-0.230469,6.625,2.4375,3.6875,2.87016,-1.34604,1.08899
1444,0,-2,-1,-1,-1,-1,0,1,0.981445,0.046875,-0.231934,5.9375,3.125,2.5625,2.87609,-1.34715,1.08507
1444,1,6,1,0,-1,-1,-1,1,0.981445,0.046875,-0.231934,5.9375,3.125,2.5625,2.87609,-1.34715,1.08507
1445,0,-13,-3,0,-2,-3,-1,-1,0.982422,0.0522461,-0.240723,5.5625,4.125,1.8125,2.88054,-1.34823,1.08259
1445,-2,-3,-3,0,-1,-2,1,0,0.982422,0.0522461,-0.240723,5.5625,4.125,1.8125,2.88054,-1.34823,1.08259
1467,-1,-4,-3,0,1,0,0,-1,0.982422,0.0522461,-0.240723,5.5625,4.125,1.8125,2.88054,-1.34823,1.08259
1467,-1,2,3,-1,-1,0,0,-1,0.982422,0.0522461,-0.240723,5.5625,4.125,1.8125,2.88054,-1.34823,1.08259
1467,-2,2,-1,-2,-2,0,0,0,0.982422,0.0522461,-0.240723,5.5625,4.125,1.8125,2.88054,-1.34823,1.08259
1467,-1,1,-1,-1,-1,0,-2,-2,0.982422,0.0522461,-0.240723,5.5625,4.125,1.8125,2.88054,-1.34823,1.08259
1481,0,-11,-3,0,-2,-1,0,-1,0.987793,0.0566406,-0.245117,3.125,5.1875,0.5,2.88124,-1.34954,1.08337
1481,1,10,1,1,0,0,0,0,0.987793,0.0566406,-0.245117,3.125,5.1875,0.5,2.88124,-1.34954,1.08337
1482,-1,0,0,-2,0,1,-1,0,0.987793,0.0566406,-0.245117,3.125,5.1875,0.5,2.88124,-1.34954,1.08337
1482,-1,-2,-1,-1,-1,-1,-1,-1,0.987793,0.0566406,-0.245117,3.125,5.1875,0.5,2.88124,-1.34954,1.08337
1504,0,0,0,-1,-1,-2,-1,-1,0.977051,0.0615234,-0.241211,0.8125,6.375,0.4375,2.87991,-1.35093,1.08486
1504,0,-4,-4,0,-1,-2,-1,-2,0.977051,0.0615234,-0.241211,0.8125,6.375,0.4375,2.87991,-1.35093,1.08486
1505,-2,0,-2,1,-1,0,-2,1,0.977051,0.0615234,-0.241211,0.8125,6.375,0.4375,2.87991,-1.35093,1.08486
1505,0,0,-2,-1,1,0,-1,-1,0.977051,0.0615234,-0.241211,0.8125,6.375,0.4375,2.87991,-1.35093,1.08486
1527,0,2,-1,0,0,-1,-2,0,0.976074,0.059082,-0.245117,1.75,6.625,-0.3125,2.87814,-1.35217,1.08716
1527,-1,-7,-2,-2,1,-1,0,-1,0.976074,0.059082,-0.245117,1.75,6.625,-0.3125,2.87814,-1.35217,1.08716
1529,-2,0,0,-1,0,-1,0,0,0.974609,0.0517578,-0.241699,2.5,6.875,-1.125,2.87633,-1.35373,1.09012
1529,0,-2,-2,1,-1,-3,0,0,0.974609,0.0517578,-0.241699,2.5,6.875,-1.125,2.87633,-1.35373,1.09012
1540,-1,-1,0,-1,-1,-1,0,-1,0.974609,0.0517578,-0.241699,2.5,6.875,-1.125,2.87633,-1.35373,1.09012
1540,-1,4,0,-1,-3,-1,-2,0,0.974609,0.0517578,-0.241699,2.5,6.875,-1.125,2.87633,-1.35373,1.09012
1549,1,6,0,-2,-1,-1,0,-2,0.976074,0.0483398,-0.243164,1.8125,7.375,-1.625,2.87319,-1.35498,1.09387
1549,-3,-10,0,-1,-1,-1,-1,-1,0.976074,0.0483398,-0.243164,1.8125,7.375,-1.625,2.87319,-1.35498,1.09387
1564,0,0,-2,0,-1,-1,-1,-1,0.976074,0.0483398,-0.243164,1.8125,7.375,-1.625,2.87319,-1.35498,1.09387
1564,-2,0,-3,-1,-3,0,-2,-1,0.976074,0.0483398,-0.243164,1.8125,7.375,-1.625,2.87319,-1.35498,1.09387
1565,0,0,-1,0,-1,-1,0,-1,0.971191,0.0522461,-0.246094,-0.25,8,-2.0625,2.86835,-1.35684,1.09911
1565,0,10,2,-1,-1,0,0,-1,0.971191,0.0522461,-0.246094,-0.25,8,-2.0625,2.86835,-1.35684,1.09911
1587,0,-10,1,-1,-1,-2,0,-1,0.971191,0.0522461,-0.246094,-0.25,8,-2.0625,2.86835,-1.35684,1.09911
1587,-2,-2,-3,-1,-2,-3,-1,-2,0.971191,0.0522461,-0.246094,-0.25,8,-2.0625,2.86835,-1.35684,1.09911
1589,-3,-7,-5,1,0,-1,-1,-2,0.966797,0.0541992,-0.251465,-1.3125,8.75,-2.25,2.86292,-1.35846,1.10424
1589,0,12,2,-1,-1,-1,-2,0,0.966797,0.0541992,-0.251465,-1.3125,8.75,-2.25,2.86292,-1.35846,1.10424
1601,-3,1,0,0,-1,-1,-2,-1,0.966797,0.0541992,-0.251465,-1.3125,8.75,-2.25,2.86292,-1.35846,1.10424
1601,0,1,-1,0,-2,0,-1,0,0.966797,0.0541992,-0.251465,-1.3125,8.75,-2.25,2.86292,-1.35846,1.10424
1610,-1,-4,-1,-1,0,-2,0,-2,0.966797,0.0576172,-0.246094,-1.6875,9.375,-1.9375,2.85629,-1.36036,1.11063
1610,-1,-2,-2,1,0,0,-1,-1,0.966797,0.0576172,-0.246094,-1.6875,9.375,-1.9375,2.85629,-1.36036,1.11063
1625,-1,1,-3,-1,0,0,0,0,0.966797,0.0576172,-0.246094,-1.6875,9.375,-1.9375,2.85629,-1.36036,1.11063
1625,-1,-2,0,-1,-2,-2,-1,-1,0.966797,0.0576172,-0.246094,-1.6875,9.375,-1.9375,2.85629,-1.36036,1.11063
1625,-1,0,-2,-3,-3,0,-1,0,0.970703,0.0537109,-0.226562,-0.6875,9.8125,-1.875,2.8499,-1.36255,1.11664
1625,0,-4,-1,-3,0,-1,-1,-2,0.970703,0.0537109,-0.226562,-0.6875,9.8125,-1.875,2.8499,-1.36255,1.11664
1648,0,-1,-1,0,-1,-2,0,-1,0.970703,0.0537109,-0.226562,-0.6875,9.8125,-1.875,2.8499,-1.36255,1.11664
1648,-1,-1,-3,-2,0,1,-1,1,0.970703,0.0537109,-0.226562,-0.6875,9.8125,-1.875,2.8499,-1.36255,1.11664
1648,0,-1,0,-2,-1,0,-1,-1,0.983398,0.0493164,-0.21582,1.0625,9.4375,-1.6875,2.84532,-1.36544,1.12202
1648,-2,-2,0,-1,0,-2,1,-1,0.983398,0.0493164,-0.21582,1.0625,9.4375,-1.6875,2.84532,-1.36544,1.12202
1661,-1,-1,-1,-2,-2,-1,-2,-1,0.983398,0.0493164,-0.21582,1.0625,9.4375,-1.6875,2.84532,-1.36544,1.12202
1661,0,0,-1,-1,1,-2,-2,-2,0.983398,0.0493164,-0.21582,1.0625,9.4375,-1.6875,2.84532,-1.36544,1.12202
1670,0,0,0,0,-3,-1,-1,0,0.991211,0.0458984,-0.219727,1.6875,9.375,-1.5,2.84096,-1.36799,1.1273
1670,0,-4,-3,-1,-1,-1,1,0,0.991211,0.0458984,-0.219727,1.6875,9.375,-1.5,2.84096,-1.36799,1.1273
1684,-1,0,0,0,0,-1,-2,0,0.991211,0.0458984,-0.219727,1.6875,9.375,-1.5,2.84096,-1.36799,1.1273
1684,-2,-2,0,0,-2,0,-1,0,0.991211,0.0458984,-0.219727,1.6875,9.375,-1.5,2.84096,-1.36799,1.1273
1687,-3,-1,-3,-1,-1,-1,-2,-1,1.01514,0.0454102,-0.212891,-0.3125,9.625,-2.375,2.83518,-1.37045,1.13294
1687,-1,-4,1,-2,-2,0,0,-2,1.01514,0.0454102,-0.212891,-0.3125,9.625,-2.375,2.83518,-1.37045,1.13294
1707,0,0,-1,0,0,0,-2,-2,1.01514,0.0454102,-0.212891,-0.3125,9.625,-2.375,2.83518,-1.37045,1.13294
1707,0,-1,-1,-1,-1,-1,-2,1,1.01514,0.0454102,-0.212891,-0.3125,9.625,-2.375,2.83518,-1.37045,1.13294
1709,-1,3,-1,-1,-2,-1,-2,-2,1.02783,0.0419922,-0.217285,-3.0625,10.375,-3.625,2.82586,-1.3732,1.14151
1709,-4,-10,-3,-1,-1,-2,-3,-1,1.02783,0.0419922,-0.217285,-3.0625,10.375,-3.625,2.82586,-1.3732,1.14151
1721,-1,5,-1,-1,1,0,-1,0,1.02783,0.0419922,-0.217285,-3.0625,10.375,-3.625,2.82586,-1.3732,1.14151
1721,-4,-20,-5,-2,-1,-1,-2,-1,1.02783,0.0419922,-0.217285,-3.0625,10.375,-3.625,2.82586,-1.3732,1.14151
1737,1,7,3,0,0,0,0,0,1.01562,0.0551758,-0.216797,-5.625,12.1875,-3.875,2.81308,-1.37639,1.15271
1737,-1,1,-2,-2,0,-1,1,-1,1.01562,0.0551758,-0.216797,-5.625,12.1875,-3.875,2.81308,-1.37639,1.15271
1744,-3,0,0,-1,-3,0,-1,0,1.01562,0.0551758,-0.216797,-5.625,12.1875,-3.875,2.81308,-1.37639,1.15271
1744,-1,2,-2,1,-1,-1,0,-2,1.01562,0.0551758,-0.216797,-5.625,12.1875,-3.875,2.81308,-1.37639,1.15271
1746,-1,-5,-1,0,-1,-1,-3,0,0.990234,0.0776367,-0.224121,-7.8125,15,-4.125,2.7947,-1.3795,1.16844
1746,0,3,-1,0,-1,-1,-1,0,0.990234,0.0776367,-0.224121,-7.8125,15,-4.125,2.7947,-1.3795,1.16844
1767,1,-3,0,-1,-3,-1,-2,1,0.990234,0.0776367,-0.224121,-7.8125,15,-4.125,2.7947,-1.3795,1.16844
1767,-1,2,-1,-1,0,-1,-1,-1,0.990234,0.0776367,-0.224121,-7.8125,15,-4.125,2.7947,-1.3795,1.16844
1769,-2,-4,-3,-2,-1,-1,-1,-1,0.970703,0.0932617,-0.207031,-9,17.3125,-4.4375,2.77119,-1.38401,1.18962
1769,-1,1,0,0,-1,-1,-3,-3,0.970703,0.0932617,-0.207031,-9,17.3125,-4.4375,2.77119,-1.38401,1.18962
1780,-2,-3,-2,-3,-1,-1,0,-2,0.970703,0.0932617,-0.207031,-9,17.3125,-4.4375,2.77119,-1.38401,1.18962
1780,-1,2,0,-1,-1,-1,-1,0,0.970703,0.0932617,-0.207031,-9,17.3125,-4.4375,2.77119,-1.38401,1.18962
1789,0,-1,-2,-2,-1,-2,-3,0,0.963867,0.090332,-0.187012,-8.1875,18.75,-5.1875,2.74493,-1.38858,1.2132
1789,-1,-1,-2,-1,-2,-1,-2,0,0.963867,0.090332,-0.187012,-8.1875,18.75,-5.1875,2.74493,-1.38858,1.2132
1803,-3,-2,-2,-1,-1,0,1,-2,0.963867,0.090332,-0.187012,-8.1875,18.75,-5.1875,2.74493,-1.38858,1.2132
1803,1,1,0,0,-2,-1,-1,0,0.963867,0.090332,-0.187012,-8.1875,18.75,-5.1875,2.74493,-1.38858,1.2132
1810,-1,-1,-1,1,-1,0,1,-1,0.958008,0.0810547,-0.173828,-9.25,20.3125,-5.875,2.71582,-1.39404,1.2398
1810,1,-2,-2,-1,0,0,-1,-2,0.958008,0.0810547,-0.173828,-9.25,20.3125,-5.875,2.71582,-1.39404,1.2398
1827,-1,-3,0,-1,-2,-3,-4,0,0.958008,0.0810547,-0.173828,-9.25,20.3125,-5.875,2.71582,-1.39404,1.2398
1827,-2,2,2,-3,0,0,1,-2,0.958008,0.0810547,-0.173828,-9.25,20.3125,-5.875,2.71582,-1.39404,1.2398
1828,-2,-2,-2,-1,0,-3,-1,-1,0.95166,0.0878906,-0.168945,-13.1875,22.9375,-7.3125,2.67746,-1.39909,1.27336
1828,-1,0,-3,-1,-1,-2,-2,-1,0.95166,0.0878906,-0.168945,-13.1875,22.9375,-7.3125,2.67746,-1.39909,1.27336
1841,0,0,-2,1,-1,0,1,0,0.95166,0.0878906,-0.168945,-13.1875,22.9375,-7.3125,2.67746,-1.39909,1.27336
1841,0,0,0,0,0,-1,-1,-1,0.95166,0.0878906,-0.168945,-13.1875,22.9375,-7.3125,2.67746,-1.39909,1.27336
1850,0,-1,1,1,-2,-1,-1,0,0.953125,0.0922852,-0.161621,-15.1875,25.625,-8.8125,2.63161,-1.4053,1.31504
1850,-2,-3,-2,-3,-1,0,-1,-1,0.953125,0.0922852,-0.161621,-15.1875,25.625,-8.8125,2.63161,-1.4053,1.31504
1864,-2,-2,0,-1,0,-2,0,-1,0.953125,0.0922852,-0.161621,-15.1875,25.625,-8.8125,2.63161,-1.4053,1.31504
1864,0,2,0,-1,-3,-2,0,-2,0.953125,0.0922852,-0.161621,-15.1875,25.625,-8.8125,2.63161,-1.4053,1.31504
1871,0,-1,0,-2,-1,-1,0,-1,0.969727,0.101074,-0.146484,-16.5,27.375,-10,2.57651,-1.41116,1.36507
1871,0,0,-2,1,0,-3,1,-1,0.969727,0.101074,-0.146484,-16.5,27.375,-10,2.57651,-1.41116,1.36507
1887,-1,-3,-2,0,-1,-1,-1,-2,0.969727,0.101074,-0.146484,-16.5,27.375,-10,2.57651,-1.41116,1.36507
1887,-2,-3,-3,-2,0,-1,0,0,0.969727,0.101074,-0.146484,-16.5,27.375,-10,2.57651,-1.41116,1.36507
1888,0,0,-1,0,0,-1,-1,-1,0.993652,0.102051,-0.142578,-19.4375,28.5,-11.625,2.51383,-1.41693,1.42216
1888,-1,-1,0,-3,-2,0,-1,-1,0.993652,0.102051,-0.142578,-19.4375,28.5,-11.625,2.51383,-1.41693,1.42216
1909,-1,0,-1,-1,-2,-2,0,1,0.993652,0.102051,-0.142578,-19.4375,28.5,-11.625,2.51383,-1.41693,1.42216
1909,0,0,-1,0,0,-1,-1,-1,0.993652,0.102051,-0.142578,-19.4375,28.5,-11.625,2.51383,-1.41693,1.42216
1911,-2,0,-1,-2,-2,0,-2,-1,1.01172,0.11084,-0.135254,-23.625,30.4375,-12.25,2.44094,-1.42169,1.48684
1911,2,3,0,-2,-2,-1,0,0,1.01172,0.11084,-0.135254,-23.625,30.4375,-12.25,2.44094,-1.42169,1.48684
1924,0,-3,-1,0,-1,1,-2,-2,1.01172,0.11084,-0.135254,-23.625,30.4375,-12.25,2.44094,-1.42169,1.48684
1924,1,0,-2,1,-1,-1,-2,-1,1.01172,0.11084,-0.135254,-23.625,30.4375,-12.25,2.44094,-1.42169,1.48684
1930,-1,-3,-1,0,-2,0,-2,-1,1.00439,0.118164,-0.128906,-24.625,32.4375,-12.8125,2.35951,-1.42628,1.56047
1930,-2,-1,1,1,0,-2,-2,0,1.00439,0.118164,-0.128906,-24.625,32.4375,-12.8125,2.35951,-1.42628,1.56047
1947,-2,2,1,-1,-1,-2,0,0,1.00439,0.118164,-0.128906,-24.625,32.4375,-12.8125,2.35951,-1.42628,1.56047
1947,-1,-2,0,-2,0,-1,0,-1,1.00439,0.118164,-0.128906,-24.625,32.4375,-12.8125,2.35951,-1.42628,1.56047
1948,0,-2,-2,0,-2,-1,-1,-3,0.996582,0.123535,-0.114746,-26.5625,34.3125,-14.1875,2.26641,-1.42994,1.64503
1948,-1,1,0,0,0,-1,-1,-1,0.996582,0.123535,-0.114746,-26.5625,34.3125,-14.1875,2.26641,-1.42994,1.64503
1970,-2,0,-1,-1,0,0,0,-1,0.996582,0.123535,-0.114746,-26.5625,34.3125,-14.1875,2.26641,-1.42994,1.64503
1970,0,-3,-1,1,-1,-2,0,1,0.996582,0.123535,-0.114746,-26.5625,34.3125,-14.1875,2.26641,-1.42994,1.64503
1971,-1,-6,-1,-2,0,0,-2,0,0.990234,0.12793,-0.107422,-27.6875,35.8125,-15.625,2.16581,-1.43265,1.73733
1971,0,-2,-3,-3,-2,0,-1,-1,0.990234,0.12793,-0.107422,-27.6875,35.8125,-15.625,2.16581,-1.43265,1.73733
1983,1,1,-1,-2,-3,-1,-3,-2,0.990234,0.12793,-0.107422,-27.6875,35.8125,-15.625,2.16581,-1.43265,1.73733
1983,-2,-1,-2,0,-2,-1,0,-1,0.990234,0.12793,-0.107422,-27.6875,35.8125,-15.625,2.16581,-1.43265,1.73733
1992,2,1,0,-2,-1,-1,-1,0,0.998047,0.124512,-0.100098,-27.375,36.875,-17.75,2.05915,-1.43415,1.83667
1992,-2,-2,-1,-1,-2,-1,1,-1,0.998047,0.124512,-0.100098,-27.375,36.875,-17.75,2.05915,-1.43415,1.83667
2007,-2,-1,-2,-3,0,0,0,0,0.998047,0.124512,-0.100098,-27.375,36.875,-17.75,2.05915,-1.43415,1.83667
2007,-2,0,0,-1,0,0,-1,0,0.998047,0.124512,-0.100098,-27.375,36.875,-17.75,2.05915,-1.43415,1.83667
2008,-1,-2,1,-1,-3,-1,-1,-1,1.00537,0.140625,-0.097168,-32.375,38.5625,-19.9375,1.94503,-1.43248,1.94006
2008,-2,-2,-2,-1,-1,2,-1,-2,1.00537,0.140625,-0.097168,-32.375,38.5625,-19.9375,1.94503,-1.43248,1.94006
2030,0,1,0,-1,0,-3,-1,-2,1.00537,0.140625,-0.097168,-32.375,38.5625,-19.9375,1.94503,-1.43248,1.94006
2030,0,0,-2,-1,0,-2,-2,-2,1.00537,0.140625,-0.097168,-32.375,38.5625,-19.9375,1.94503,-1.43248,1.94006
2030,-1,-1,-1,-2,0,-1,0,-1,0.991699,0.15918,-0.0849609,-39.1875,40.0625,-20.25,1.8294,-1.42945,2.04353
2030,-2,-4,-1,-1,-3,-1,-1,0,0.991699,0.15918,-0.0849609,-39.1875,40.0625,-20.25,1.8294,-1.42945,2.04353
2043,0,0,-2,-2,-2,0,1,-1,0.991699,0.15918,-0.0849609,-39.1875,40.0625,-20.25,1.8294,-1.42945,2.04353
2043,0,3,-2,-1,-2,-1,0,-1,0.991699,0.15918,-0.0849609,-39.1875,40.0625,-20.25,1.8294,-1.42945,2.04353
2052,-2,-13,-2,-1,-1,-1,0,-1,0.980957,0.168457,-0.0834961,-39.9375,40.375,-19.8125,1.72025,-1.42424,2.13916
2052,1,0,-1,0,-1,-4,0,0,0.980957,0.168457,-0.0834961,-39.9375,40.375,-19.8125,1.72025,-1.42424,2.13916
2067,-1,-2,-1,0,-1,0,-2,0,0.980957,0.168457,-0.0834961,-39.9375,40.375,-19.8125,1.72025,-1.42424,2.13916
2067,0,0,-1,-2,-1,-2,-2,-2,0.980957,0.168457,-0.0834961,-39.9375,40.375,-19.8125,1.72025,-1.42424,2.13916
2069,-1,2,-1,-2,-3,-2,-1,-2,0.977539,0.186035,-0.0698242,-38.625,39.8125,-19,1.62025,-1.41802,2.22693
2069,-1,1,-1,-1,0,0,-1,0,0.977539,0.186035,-0.0698242,-38.625,39.8125,-19,1.62025,-1.41802,2.22693
2090,-1,-1,0,0,0,1,-1,-3,0.977539,0.186035,-0.0698242,-38.625,39.8125,-19,1.62025,-1.41802,2.22693
2090,-2,-6,-3,-1,-2,0,-1,-1,0.977539,0.186035,-0.0698242,-38.625,39.8125,-19,1.62025,-1.41802,2.22693
2091,-2,8,1,-1,0,-1,-1,-2,0.968262,0.19043,-0.0405273,-36.0625,39.3125,-17.5,1.52876,-1.41147,2.30758
2091,3,-2,-1,-2,-1,-2,0,-1,0.968262,0.19043,-0.0405273,-36.0625,39.3125,-17.5,1.52876,-1.41147,2.30758
2103,-1,2,-2,-1,-3,-2,0,0,0.968262,0.19043,-0.0405273,-36.0625,39.3125,-17.5,1.52876,-1.41147,2.30758
2103,-1,-1,-1,0,-3,0,-2,1,0.968262,0.19043,-0.0405273,-36.0625,39.3125,-17.5,1.52876,-1.41147,2.30758
2112,-3,-3,0,-1,1,0,-2,-3,0.949219,0.202637,-0.0161133,-31.75,38.75,-14.625,1.44379,-1.40349,2.38122
2112,-1,0,-1,0,-1,0,-3,-2,0.949219,0.202637,-0.0161133,-31.75,38.75,-14.625,1.44379,-1.40349,2.38122
2127,-1,1,-1,0,-1,0,0,0,0.949219,0.202637,-0.0161133,-31.75,38.75,-14.625,1.44379,-1.40349,2.38122
2127,-1,-1,0,-1,-1,1,1,0,0.949219,0.202637,-0.0161133,-31.75,38.75,-14.625,1.44379,-1.40349,2.38122
2129,-1,-2,-1,-2,1,-1,1,0,0.927734,0.212891,-0.00488281,-25.3125,38.375,-11.4375,1.36933,-1.39696,2.44922
2129,-1,0,0,0,0,-2,-2,-2,0.927734,0.212891,-0.00488281,-25.3125,38.375,-11.4375,1.36933,-1.39696,2.44922
2150,-1,-3,-1,-1,0,0,-2,-1,0.927734,0.212891,-0.00488281,-25.3125,38.375,-11.4375,1.36933,-1.39696,2.44922
2150,-1,0,-2,-1,0,-2,0,0,0.927734,0.212891,-0.00488281,-25.3125,38.375,-11.4375,1.36933,-1.39696,2.44922
2151,2,2,3,0,-1,-1,-1,0,0.919922,0.222656,0.00341797,-21.125,37.5625,-9.75,1.303,-1.38933,2.50905
2151,0,-4,-16,-1,-3,0,-2,-2,0.919922,0.222656,0.00341797,-21.125,37.5625,-9.75,1.303,-1.38933,2.50905
2164,-3,-4,0,-2,-1,-2,0,-1,0.919922,0.222656,0.00341797,-21.125,37.5625,-9.75,1.303,-1.38933,2.50905
2164,1,0,-2,-1,-2,0,-1,-3,0.919922,0.222656,0.00341797,-21.125,37.5625,-9.75,1.303,-1.38933,2.50905
2172,0,-1,-2,-1,-2,-2,-1,-1,0.922852,0.226074,0.00732422,-22.75,36.5,-9.5625,1.24399,-1.38122,2.56116
2172,-2,0,2,0,-2,0,0,-2,0.922852,0.226074,0.00732422,-22.75,36.5,-9.5625,1.24399,-1.38122,2.56116
2194,-1,-2,0,0,-1,-1,-1,0,0.922852,0.226074,0.00732422,-22.75,36.5,-9.5625,1.24399,-1.38122,2.56116
2194,-2,-1,-1,-1,-1,-1,-1,0,0.922852,0.226074,0.00732422,-22.75,36.5,-9.5625,1.24399,-1.38122,2.56116
2196,1,3,0,0,-1,-2,2,1,0.925293,0.21582,0.0307617,-24.4375,35.5,-8.9375,1.18818,-1.3732,2.6092
2196,-1,2,1,-1,0,-1,-1,-1,0.925293,0.21582,0.0307617,-24.4375,35.5,-8.9375,1.18818,-1.3732,2.6092
2210,-2,-3,5,-1,-2,-2,-1,-2,0.925293,0.21582,0.0307617,-24.4375,35.5,-8.9375,1.18818,-1.3732,2.6092
2210,-1,-2,-4,-3,0,0,-1,0,0.925293,0.21582,0.0307617,-24.4375,35.5,-8.9375,1.18818,-1.3732,2.6092
2211,1,-1,-2,1,-1,2,-2,0,0.925781,0.217285,0.0488281,-22.8125,34.0625,-7.75,1.13752,-1.36559,2.65339
2211,-1,1,1,0,-1,0,0,-1,0.925781,0.217285,0.0488281,-22.8125,34.0625,-7.75,1.13752,-1.36559,2.65339
2240,-2,0,-1,0,0,-2,-1,-2,0.925781,0.217285,0.0488281,-22.8125,34.0625,-7.75,1.13752,-1.36559,2.65339
2240,-2,-2,1,-2,-1,-2,0,0,0.925781,0.217285,0.0488281,-22.8125,34.0625,-7.75,1.13752,-1.36559,2.65339
2240,0,1,-3,-2,0,-1,-1,-2,0.92627,0.223145,0.0576172,-21.5625,33.125,-6.5625,1.09176,-1.35747,2.69223
2240,-1,-3,-1,-1,0,-2,0,0,0.92627,0.223145,0.0576172,-21.5625,33.125,-6.5625,1.09176,-1.35747,2.69223
2246,1,1,-1,0,0,0,-1,-2,0.92627,0.223145,0.0576172,-21.5625,33.125,-6.5625,1.09176,-1.35747,2.69223
2246,-1,-1,-1,1,-2,-1,-3,-1,0.92627,0.223145,0.0576172,-21.5625,33.125,-6.5625,1.09176,-1.35747,2.69223
2248,0,-1,-2,-1,-1,-1,-2,0,0.918945,0.229492,0.0629883,-20.1875,32.625,-5.0625,1.05011,-1.34998,2.72815
2248,-1,-2,1,-1,-1,-1,-2,-2,0.918945,0.229492,0.0629883,-20.1875,32.625,-5.0625,1.05011,-1.34998,2.72815
2270,-1,-1,-3,-1,-1,-1,-1,-2,0.918945,0.229492,0.0629883,-20.1875,32.625,-5.0625,1.05011,-1.34998,2.72815
2270,0,0,-2,-2,1,-1,0,0,0.918945,0.229492,0.0629883,-20.1875,32.625,-5.0625,1.05011,-1.34998,2.72815
2272,-2,-1,0,0,-1,-1,-2,-3,0.901855,0.244629,0.0756836,-17.9375,32.6875,-2.6875,1.01056,-1.34252,2.76278
2272,-1,-1,3,-1,-1,1,-2,-1,0.901855,0.244629,0.0756836,-17.9375,32.6875,-2.6875,1.01056,-1.34252,2.76278
2291,0,1,0,-1,-2,-1,-2,-1,0.901855,0.244629,0.0756836,-17.9375,32.6875,-2.6875,1.01056,-1.34252,2.76278
2291,0,-1,-2,0,1,-2,-1,-1,0.901855,0.244629,0.0756836,-17.9375,32.6875,-2.6875,1.01056,-1.34252,2.76278
2294,-1,-2,-3,-2,-1,-2,1,0,0.891602,0.249023,0.0732422,-14.3125,32.375,-0.0625,0.973704,-1.33532,2.79572
2294,-1,-1,-2,-1,-1,-2,-2,0,0.891602,0.249023,0.0732422,-14.3125,32.375,-0.0625,0.973704,-1.33532,2.79572
2307,-2,0,0,-1,-1,-1,-1,-3,0.891602,0.249023,0.0732422,-14.3125,32.375,-0.0625,0.973704,-1.33532,2.79572
2307,-3,-2,0,0,-2,0,0,-2,0.891602,0.249023,0.0732422,-14.3125,32.375,-0.0625,0.973704,-1.33532,2.79572
2308,2,-1,-3,-2,-1,0,0,0,0.894043,0.24707,0.0966797,-11.875,32,2.0625,0.937611,-1.32895,2.82943
2308,-1,-1,-1,1,-2,1,0,-1,0.894043,0.24707,0.0966797,-11.875,32,2.0625,0.937611,-1.32895,2.82943
2330,1,-1,-2,-2,-1,0,-2,0,0.894043,0.24707,0.0966797,-11.875,32,2.0625,0.937611,-1.32895,2.82943
2330,0,0,0,-1,-3,0,-1,-1,0.894043,0.24707,0.0966797,-11.875,32,2.0625,0.937611,-1.32895,2.82943
2331,-1,-1,-1,0,-1,-1,-2,-2,0.885742,0.250977,0.103516,-8,32,4.375,0.902861,-1.32223,2.86251
2331,0,-1,-1,-2,-2,-1,-1,-1,0.885742,0.250977,0.103516,-8,32,4.375,0.902861,-1.32223,2.86251
2343,-1,-3,-3,0,-1,-2,-1,0,0.885742,0.250977,0.103516,-8,32,4.375,0.902861,-1.32223,2.86251
2343,-1,-1,1,-1,-2,-1,-1,-4,0.885742,0.250977,0.103516,-8,32,4.375,0.902861,-1.32223,2.86251
2352,-2,0,2,-1,-2,-1,-1,-1,0.883301,0.254395,0.105469,-4.5,32.5,6.75,0.869251,-1.31586,2.89595
2352,1,-1,-1,-1,0,-1,-1,0,0.883301,0.254395,0.105469,-4.5,32.5,6.75,0.869251,-1.31586,2.89595
2367,-1,-1,-2,0,0,0,-1,0,0.883301,0.254395,0.105469,-4.5,32.5,6.75,0.869251,-1.31586,2.89595
2367,1,-1,-1,-1,-1,0,0,-2,0.883301,0.254395,0.105469,-4.5,32.5,6.75,0.869251,-1.31586,2.89595
2369,-3,-3,-2,-1,-1,-2,-1,1,0.885742,0.242676,0.126465,-1.3125,32.1875,9.25,0.835728,-1.31051,2.93094
2369,-3,-1,-2,-2,-2,-1,0,-1,0.885742,0.242676,0.126465,-1.3125,32.1875,9.25,0.835728,-1.31051,2.93094
2389,0,0,-3,-1,-2,0,-1,0,0.885742,0.242676,0.126465,-1.3125,32.1875,9.25,0.835728,-1.31051,2.93094
2389,-2,0,1,-1,-2,1,-2,-2,0.885742,0.242676,0.126465,-1.3125,32.1875,9.25,0.835728,-1.31051,2.93094
2390,-1,-1,-3,0,1,0,-1,0,0.882324,0.222168,0.164062,3.75,30.25,11.6875,0.801564,-1.3056,2.96803
2390,0,-2,1,-3,-3,0,0,0,0.882324,0.222168,0.164062,3.75,30.25,11.6875,0.801564,-1.3056,2.96803
2403,0,-3,-9,0,0,-1,-3,-2,0.882324,0.222168,0.164062,3.75,30.25,11.6875,0.801564,-1.3056,2.96803
2403,-2,-2,-3,-1,0,-2,-2,-1,0.882324,0.222168,0.164062,3.75,30.25,11.6875,0.801564,-1.3056,2.96803
2412,-1,-2,-2,-1,-1,-2,-1,-1,0.880371,0.207031,0.17627,8.375,26.875,13.3125,0.770178,-1.30132,3.00349
2412,0,-2,0,-1,0,-1,-1,-1,0.880371,0.207031,0.17627,8.375,26.875,13.3125,0.770178,-1.30132,3.00349
2427,1,-1,3,-1,0,-1,-1,-2,0.880371,0.207031,0.17627,8.375,26.875,13.3125,0.770178,-1.30132,3.00349
2427,0,-1,1,0,-2,-2,-1,-1,0.880371,0.207031,0.17627,8.375,26.875,13.3125,0.770178,-1.30132,3.00349
2428,-2,-1,-1,0,-2,0,-1,-1,0.890137,0.204102,0.196289,10,24.1875,14.625,0.740952,-1.29773,3.03738
2428,-3,-1,0,0,0,-2,-1,-2,0.890137,0.204102,0.196289,10,24.1875,14.625,0.740952,-1.29773,3.03738
2449,-1,0,0,-2,-1,0,-2,-2,0.890137,0.204102,0.196289,10,24.1875,14.625,0.740952,-1.29773,3.03738
2449,0,0,1,0,0,-1,-1,1,0.890137,0.204102,0.196289,10,24.1875,14.625,0.740952,-1.29773,3.03738
2451,0,0,0,-1,-2,0,-1,-1,0.897461,0.192383,0.213867,12.8125,21.875,16.0625,0.713311,-1.29495,3.0709
2451,0,1,-1,1,-2,-1,-1,-2,0.897461,0.192383,0.213867,12.8125,21.875,16.0625,0.713311,-1.29495,3.0709
2466,-1,-1,1,-1,-3,-1,0,0,0.897461,0.192383,0.213867,12.8125,21.875,16.0625,0.713311,-1.29495,3.0709
2466,0,0,2,-1,-1,0,-2,-1,0.897461,0.192383,0.213867,12.8125,21.875,16.0625,0.713311,-1.29495,3.0709
2472,-1,0,0,-2,-2,-1,0,0,0.903809,0.17334,0.227051,13.25,19.0625,16.1875,0.686521,-1.29299,3.10348
2472,-2,0,-1,0,-1,-1,-1,-1,0.903809,0.17334,0.227051,13.25,19.0625,16.1875,0.686521,-1.29299,3.10348
2486,-2,-1,-2,-2,0,0,-1,-2,0.903809,0.17334,0.227051,13.25,19.0625,16.1875,0.686521,-1.29299,3.10348
2486,-2,-1,-2,0,-1,-2,-1,0,0.903809,0.17334,0.227051,13.25,19.0625,16.1875,0.686521,-1.29299,3.10348
2488,-1,0,0,0,-1,0,-2,-2,0.90918,0.153809,0.238281,11.3125,17.25,15.4375,0.660302,-1.29082,3.13451
2488,-2,-1,-1,-1,0,-1,-1,0,0.90918,0.153809,0.238281,11.3125,17.25,15.4375,0.660302,-1.29082,3.13451
2509,1,-1,1,-3,0,-2,0,1,0.90918,0.153809,0.238281,11.3125,17.25,15.4375,0.660302,-1.29082,3.13451
2509,-1,-1,-1,-2,-1,-2,0,-1,0.90918,0.153809,0.238281,11.3125,17.25,15.4375,0.660302,-1.29082,3.13451
2511,-2,-3,-2,-2,-1,-2,0,-1,0.92334,0.137695,0.240723,10.75,16.3125,14.875,0.634951,-1.28947,-3.11856
2511,0,-1,-1,-1,0,-2,0,0,0.92334,0.137695,0.240723,10.75,16.3125,14.875,0.634951,-1.28947,-3.11856
2524,0,1,0,0,-1,-1,-2,-1,0.92334,0.137695,0.240723,10.75,16.3125,14.875,0.634951,-1.28947,-3.11856
2524,0,0,1,-1,-2,0,-2,-1,0.92334,0.137695,0.240723,10.75,16.3125,14.875,0.634951,-1.28947,-3.11856
2540,-2,-2,-8,-1,1,0,-2,-2,0.944336,0.116211,0.256348,12.25,15,13.5,0.611006,-1.28813,-3.08926
2540,-1,1,-2,0,-1,-2,-1,-1,0.944336,0.116211,0.256348,12.25,15,13.5,0.611006,-1.28813,-3.08926
2547,0,0,0,0,-2,-1,-1,1,0.944336,0.116211,0.256348,12.25,15,13.5,0.611006,-1.28813,-3.08926
2547,0,-2,-1,-1,0,-1,2,0,0.944336,0.116211,0.256348,12.25,15,13.5,0.611006,-1.28813,-3.08926
2548,1,0,1,-1,-1,-1,-1,-1,0.996582,0.0947266,0.27832,14.3125,12.4375,11.3125,0.589489,-1.28683,-3.06235
2548,-2,-6,-4,-2,0,0,-1,-1,0.996582,0.0947266,0.27832,14.3125,12.4375,11.3125,0.589489,-1.28683,-3.06235
2570,-2,0,-3,0,-2,-2,0,0,0.996582,0.0947266,0.27832,14.3125,12.4375,11.3125,0.589489,-1.28683,-3.06235
2570,-2,-1,0,-1,-2,0,-1,0,0.996582,0.0947266,0.27832,14.3125,12.4375,11.3125,0.589489,-1.28683,-3.06235
2571,-1,-1,-1,-1,-1,-2,-1,-2,1.01953,0.0805664,0.26123,10.1875,11.875,8.8125,0.570352,-1.28604,-3.03913
2571,-1,-3,-1,-2,-1,1,-2,-1,1.01953,0.0805664,0.26123,10.1875,11.875,8.8125,0.570352,-1.28604,-3.03913
2583,0,-2,1,-1,1,-1,-1,-1,1.01953,0.0805664,0.26123,10.1875,11.875,8.8125,0.570352,-1.28604,-3.03913
2583,-1,-2,-2,-1,-1,0,0,-1,1.01953,0.0805664,0.26123,10.1875,11.875,8.8125,0.570352,-1.28604,-3.03913
2592,-1,-2,0,0,-1,-1,-3,0,0.976562,0.09375,0.23291,1.4375,14.25,7.375,0.550572,-1.2838,-3.01845
2592,0,-2,-1,-2,-1,-3,-2,-1,0.976562,0.09375,0.23291,1.4375,14.25,7.375,0.550572,-1.2838,-3.01845
2607,-1,-2,-1,-1,-2,0,-1,-1,0.976562,0.09375,0.23291,1.4375,14.25,7.375,0.550572,-1.2838,-3.01845
2607,0,0,-3,-1,0,0,-2,-1,0.976562,0.09375,0.23291,1.4375,14.25,7.375,0.550572,-1.2838,-3.01845
2613,1,1,0,-2,0,-1,0,1,0.925781,0.10791,0.234863,-4.8125,15.9375,6.6875,0.530501,-1.28096,-2.99937
2613,0,0,-1,0,-3,-2,-1,-1,0.925781,0.10791,0.234863,-4.8125,15.9375,6.6875,0.530501,-1.28096,-2.99937
2630,-1,-1,-1,-3,0,-1,0,-1,0.925781,0.10791,0.234863,-4.8125,15.9375,6.6875,0.530501,-1.28096,-2.99937
2630,-2,0,-1,0,0,0,-1,-2,0.925781,0.10791,0.234863,-4.8125,15.9375,6.6875,0.530501,-1.28096,-2.99937
2631,-2,-2,-1,-1,-1,-2,-3,-1,0.933105,0.0678711,0.288086,-6,13.25,4.6875,0.509078,-1.27757,-2.97977
2631,-3,0,-1,-2,0,-1,-1,-1,0.933105,0.0678711,0.288086,-6,13.25,4.6875,0.509078,-1.27757,-2.97977
2643,-2,-1,-1,-1,-1,-2,-1,0,0.933105,0.0678711,0.288086,-6,13.25,4.6875,0.509078,-1.27757,-2.97977
2643,0,-2,-1,-1,1,0,-2,-1,0.933105,0.0678711,0.288086,-6,13.25,4.6875,0.509078,-1.27757,-2.97977
2652,0,0,-2,-1,0,0,0,0,0.994141,0.00585938,0.350586,-4.6875,6.625,1.0625,0.4889,-1.27532,-2.96174
2652,0,-1,0,-1,-3,0,0,-2,0.994141,0.00585938,0.350586,-4.6875,6.625,1.0625,0.4889,-1.27532,-2.96174
2667,-1,-3,-3,-1,-2,-1,-2,-2,0.994141,0.00585938,0.350586,-4.6875,6.625,1.0625,0.4889,-1.27532,-2.96174
2667,-1,0,-2,-1,-1,-2,0,-1,0.994141,0.00585938,0.350586,-4.6875,6.625,1.0625,0.4889,-1.27532,-2.96174
2669,0,-2,0,-1,-2,1,-1,-1,1.05469,-0.0258789,0.39209,-3.4375,-0.375,-2.75,0.473422,-1.27481,-2.94824
2669,0,0,-1,-1,1,-1,-1,1,1.05469,-0.0258789,0.39209,-3.4375,-0.375,-2.75,0.473422,-1.27481,-2.94824
2690,-2,-1,-2,-1,0,-1,0,-1,1.05469,-0.0258789,0.39209,-3.4375,-0.375,-2.75,0.473422,-1.27481,-2.94824
2690,1,-1,0,-2,-1,-2,-2,0,1.05469,-0.0258789,0.39209,-3.4375,-0.375,-2.75,0.473422,-1.27481,-2.94824
2691,0,1,0,-1,-2,0,-1,-1,1.0625,-0.0234375,0.406738,-2.75,-6.1875,-5.4375,0.464256,-1.27508,-2.94113
2691,1,-1,1,0,-1,1,1,-1,1.0625,-0.0234375,0.406738,-2.75,-6.1875,-5.4375,0.464256,-1.27508,-2.94113
2703,0,-1,-1,-1,0,0,-1,0,1.0625,-0.0234375,0.406738,-2.75,-6.1875,-5.4375,0.464256,-1.27508,-2.94113
2703,-1,-1,-1,-1,-2,-2,-1,0,1.0625,-0.0234375,0.406738,-2.75,-6.1875,-5.4375,0.464256,-1.27508,-2.94113
2712,-1,-2,1,-1,-1,-2,-1,-2,1.01416,0.00390625,0.381348,-6.8125,-10.75,-4.5625,0.458039,-1.27697,-2.93831
2712,0,1,0,0,-2,0,-1,-1,1.01416,0.00390625,0.381348,-6.8125,-10.75,-4.5625,0.458039,-1.27697,-2.93831
2727,-2,0,-1,0,0,-1,-2,-1,1.01416,0.00390625,0.381348,-6.8125,-10.75,-4.5625,0.458039,-1.27697,-2.93831
2727,-1,0,0,-2,-3,0,0,-1,1.01416,0.00390625,0.381348,-6.8125,-10.75,-4.5625,0.458039,-1.27697,-2.93831
2729,-1,-1,-1,-1,0,-2,-1,-1,0.949707,0.0366211,0.355957,-12.1875,-14.5625,-2.75,0.453398,-1.27987,-2.93889
2729,0,-1,0,-2,0,-2,-1,-2,0.949707,0.0366211,0.355957,-12.1875,-14.5625,-2.75,0.453398,-1.27987,-2.93889
2749,1,-1,1,1,-2,0,0,-1,0.949707,0.0366211,0.355957,-12.1875,-14.5625,-2.75,0.453398,-1.27987,-2.93889
2749,-2,-1,-2,-1,-1,-1,-1,-1,0.949707,0.0366211,0.355957,-12.1875,-14.5625,-2.75,0.453398,-1.27987,-2.93889
2750,-2,-2,-1,0,-2,0,0,0,0.894531,0.0424805,0.334961,-16.1875,-17.875,-1,0.449011,-1.28423,-2.94094
2750,-2,-2,-2,1,-2,1,0,0,0.894531,0.0424805,0.334961,-16.1875,-17.875,-1,0.449011,-1.28423,-2.94094
2763,-1,0,-1,-1,-1,-3,-1,-1,0.894531,0.0424805,0.334961,-16.1875,-17.875,-1,0.449011,-1.28423,-2.94094
2763,1,-2,0,-1,-1,-3,-1,-1,0.894531,0.0424805,0.334961,-16.1875,-17.875,-1,0.449011,-1.28423,-2.94094
2771,-1,-1,-1,-1,-2,-2,0,0,0.849609,0.0229492,0.311035,-13.625,-19.25,0.625,0.443146,-1.28907,-2.9406
2771,-1,-1,-1,-1,-1,-1,-1,1,0.849609,0.0229492,0.311035,-13.625,-19.25,0.625,0.443146,-1.28907,-2.9406
2786,-2,0,0,-2,-2,0,0,-1,0.849609,0.0229492,0.311035,-13.625,-19.25,0.625,0.443146,-1.28907,-2.9406
2786,0,0,-2,1,-1,0,-1,-2,0.849609,0.0229492,0.311035,-13.625,-19.25,0.625,0.443146,-1.28907,-2.9406
2800,-1,0,-1,1,0,0,-4,0,0.82666,-0.000976562,0.305664,-8.0625,-18.9375,0.75,0.438202,-1.29419,-2.9393
2800,-1,-1,-2,-2,0,-1,0,0,0.82666,-0.000976562,0.305664,-8.0625,-18.9375,0.75,0.438202,-1.29419,-2.9393
2809,0,0,0,-2,-2,-1,0,-1,0.82666,-0.000976562,0.305664,-8.0625,-18.9375,0.75,0.438202,-1.29419,-2.9393
2809,-2,-1,-1,-2,-2,0,-2,-1,0.82666,-0.000976562,0.305664,-8.0625,-18.9375,0.75,0.438202,-1.29419,-2.9393
2810,-1,-1,1,-2,-3,-1,0,-2,0.82959,-0.0126953,0.332031,0.3125,-17.8125,-0.25,0.433862,-1.29833,-2.93569
2810,-1,-3,-1,-1,-1,-1,-2,0,0.82959,-0.0126953,0.332031,0.3125,-17.8125,-0.25,0.433862,-1.29833,-2.93569
2832,-2,-1,-1,0,1,-2,-1,-1,0.82959,-0.0126953,0.332031,0.3125,-17.8125,-0.25,0.433862,-1.29833,-2.93569
2832,-2,0,-3,-1,0,0,0,-1,0.82959,-0.0126953,0.332031,0.3125,-17.8125,-0.25,0.433862,-1.29833,-2.93569
2833,0,-1,0,0,-2,-1,0,-1,0.855957,-0.0424805,0.353027,12.0625,-17.75,-2.8125,0.433712,-1.30192,-2.93239
2833,-1,-1,-1,-1,-1,-1,-1,-1,0.855957,-0.0424805,0.353027,12.0625,-17.75,-2.8125,0.433712,-1.30192,-2.93239
2847,-1,-2,-2,-1,-2,0,0,-1,0.855957,-0.0424805,0.353027,12.0625,-17.75,-2.8125,0.433712,-1.30192,-2.93239
2847,-2,-2,-1,0,0,-1,-1,-1,0.855957,-0.0424805,0.353027,12.0625,-17.75,-2.8125,0.433712,-1.30192,-2.93239
2853,-1,0,-2,-1,-1,-1,-1,-1,0.895508,-0.050293,0.364746,20.375,-17.9375,-6.4375,0.439032,-1.30532,-2.93187
2853,0,1,1,0,-1,-2,-2,0,0.895508,-0.050293,0.364746,20.375,-17.9375,-6.4375,0.439032,-1.30532,-2.93187
2870,-1,-1,0,-1,-2,-2,-1,0,0.895508,-0.050293,0.364746,20.375,-17.9375,-6.4375,0.439032,-1.30532,-2.93187
2870,1,0,0,0,-1,-1,-1,0,0.895508,-0.050293,0.364746,20.375,-17.9375,-6.4375,0.439032,-1.30532,-2.93187
2871,-2,-3,0,-2,1,0,-1,0,0.935547,-0.0219727,0.369629,20.875,-17.4375,-11,0.451748,-1.30726,-2.93871
2871,-2,-1,-2,-1,0,-1,-1,-1,0.935547,-0.0219727,0.369629,20.875,-17.4375,-11,0.451748,-1.30726,-2.93871
2900,-2,-2,0,-1,-2,0,-1,-3,0.935547,-0.0219727,0.369629,20.875,-17.4375,-11,0.451748,-1.30726,-2.93871
2900,-1,0,0,-2,-1,-1,1,-1,0.935547,-0.0219727,0.369629,20.875,-17.4375,-11,0.451748,-1.30726,-2.93871
2901,-1,-1,0,-1,-1,-1,-1,-3,0.960938,0.0234375,0.350586,11.8125,-15.8125,-14.875,0.469266,-1.3083,-2.95343
2901,0,1,-3,-1,-1,-1,-1,-2,0.960938,0.0234375,0.350586,11.8125,-15.8125,-14.875,0.469266,-1.3083,-2.95343
2906,-1,-2,-2,-1,-2,1,-1,1,0.960938,0.0234375,0.350586,11.8125,-15.8125,-14.875,0.469266,-1.3083,-2.95343
2906,0,-2,-1,-1,0,-1,0,-2,0.960938,0.0234375,0.350586,11.8125,-15.8125,-14.875,0.469266,-1.3083,-2.95343
2913,-1,-2,-2,-1,-1,-1,-1,-1,0.979004,0.0473633,0.343262,1.875,-13.75,-16.125,0.485639,-1.30845,-2.97053
2913,0,-2,-3,0,-1,0,0,-2,0.979004,0.0473633,0.343262,1.875,-13.75,-16.125,0.485639,-1.30845,-2.97053
2929,-1,-2,-1,-1,0,-1,-1,0,0.979004,0.0473633,0.343262,1.875,-13.75,-16.125,0.485639,-1.30845,-2.97053
2929,0,-3,0,-1,-2,0,-1,0,0.979004,0.0473633,0.343262,1.875,-13.75,-16.125,0.485639,-1.30845,-2.97053
2930,-2,-2,-2,0,-1,-1,-2,-1,0.97998,0.0390625,0.322754,-6,-11.9375,-18.75,0.500741,-1.30808,-2.989
2930,-2,-2,0,0,-2,-1,-1,0,0.97998,0.0390625,0.322754,-6,-11.9375,-18.75,0.500741,-1.30808,-2.989
2952,-1,-1,-1,-1,1,-2,-1,-2,0.97998,0.0390625,0.322754,-6,-11.9375,-18.75,0.500741,-1.30808,-2.989
2952,0,1,-2,-3,-2,-1,-3,-1,0.97998,0.0390625,0.322754,-6,-11.9375,-18.75,0.500741,-1.30808,-2.989
2954,0,-1,-1,-2,-1,0,1,0,0.970703,0.0405273,0.310547,-10.5625,-8.8125,-20.25,0.514625,-1.30678,-3.00793
2954,-1,-1,2,0,-1,1,-1,-2,0.970703,0.0405273,0.310547,-10.5625,-8.8125,-20.25,0.514625,-1.30678,-3.00793
2966,0,0,-2,0,-2,-1,-2,0,0.970703,0.0405273,0.310547,-10.5625,-8.8125,-20.25,0.514625,-1.30678,-3.00793
2966,-1,0,-1,0,0,-1,-2,-2,0.970703,0.0405273,0.310547,-10.5625,-8.8125,-20.25,0.514625,-1.30678,-3.00793
2975,-2,0,-1,-1,-3,-1,-1,0,0.966797,0.0449219,0.306641,-11.5,-5.375,-21.9375,0.52732,-1.30375,-3.02618
2975,-1,-1,0,-2,0,-1,0,-1,0.966797,0.0449219,0.306641,-11.5,-5.375,-21.9375,0.52732,-1.30375,-3.02618
2989,0,-1,0,-2,-1,0,0,-1,0.966797,0.0449219,0.306641,-11.5,-5.375,-21.9375,0.52732,-1.30375,-3.02618
2989,0,-1,0,0,-1,0,0,-1,0.966797,0.0449219,0.306641,-11.5,-5.375,-21.9375,0.52732,-1.30375,-3.02618
2991,-2,0,-1,-1,-1,-1,-3,-1,0.960938,0.0483398,0.296387,-13.4375,-2,-23.5625,0.539339,-1.29991,-3.04415
2991,-1,-2,0,-2,0,-2,-1,-1,0.960938,0.0483398,0.296387,-13.4375,-2,-23.5625,0.539339,-1.29991,-3.04415
3012,0,1,-2,-1,0,0,-1,0,0.960938,0.0483398,0.296387,-13.4375,-2,-23.5625,0.539339,-1.29991,-3.04415
3012,-2,-1,-1,-1,-2,0,-1,0,0.960938,0.0483398,0.296387,-13.4375,-2,-23.5625,0.539339,-1.29991,-3.04415
3013,0,0,0,-2,0,-1,1,0,0.959473,0.0581055,0.287598,-17.8125,1.8125,-23.5,0.54783,-1.2952,-3.06006
3013,0,-1,-2,0,-1,-1,-1,-1,0.959473,0.0581055,0.287598,-17.8125,1.8125,-23.5,0.54783,-1.2952,-3.06006
3026,-1,-1,-2,-1,0,-1,0,-1,0.959473,0.0581055,0.287598,-17.8125,1.8125,-23.5,0.54783,-1.2952,-3.06006
3026,-2,-2,-3,0,-2,-2,0,-2,0.959473,0.0581055,0.287598,-17.8125,1.8125,-23.5,0.54783,-1.2952,-3.06006
3034,-2,-2,0,-1,-2,1,0,-3,0.958008,0.0605469,0.296387,-20.3125,4.375,-22.0625,0.551507,-1.28935,-3.07219
3034,0,-2,2,-1,0,-1,-2,-2,0.958008,0.0605469,0.296387,-20.3125,4.375,-22.0625,0.551507,-1.28935,-3.07219
3050,-3,0,-1,-2,1,-1,0,-2,0.958008,0.0605469,0.296387,-20.3125,4.375,-22.0625,0.551507,-1.28935,-3.07219
3050,0,0,-1,-1,-1,0,-1,0,0.958008,0.0605469,0.296387,-20.3125,4.375,-22.0625,0.551507,-1.28935,-3.07219
3051,0,0,-2,-1,0,-3,-2,-1,0.970703,0.0644531,0.318848,-20.9375,4.8125,-20.1875,0.551976,-1.28394,-3.08092
3051,-1,0,-3,-2,-1,0,-1,-1,0.970703,0.0644531,0.318848,-20.9375,4.8125,-20.1875,0.551976,-1.28394,-3.08092
3073,0,-2,1,-2,0,0,-2,-1,0.970703,0.0644531,0.318848,-20.9375,4.8125,-20.1875,0.551976,-1.28394,-3.08092
3073,-1,-1,1,-2,-2,-1,-1,0,0.970703,0.0644531,0.318848,-20.9375,4.8125,-20.1875,0.551976,-1.28394,-3.08092
3074,0,-2,-1,-3,0,-1,0,-2,1.00342,0.0546875,0.333008,-20.5625,3,-19,0.550904,-1.27928,-3.08815
3074,-1,-1,0,-1,-1,-2,0,1,1.00342,0.0546875,0.333008,-20.5625,3,-19,0.550904,-1.27928,-3.08815
3086,0,0,0,0,-2,-1,-2,-1,1.00342,0.0546875,0.333008,-20.5625,3,-19,0.550904,-1.27928,-3.08815
3086,-1,0,-1,-2,-2,-1,-1,-1,1.00342,0.0546875,0.333008,-20.5625,3,-19,0.550904,-1.27928,-3.08815
3095,2,0,0,0,1,-2,0,-1,1.01611,0.0673828,0.317383,-25,1.0625,-15.3125,0.547413,-1.27642,-3.09439
3095,-2,-1,-3,-2,-1,0,-1,-1,1.01611,0.0673828,0.317383,-25,1.0625,-15.3125,0.547413,-1.27642,-3.09439
3110,-1,0,-1,0,-2,0,-2,-1,1.01611,0.0673828,0.317383,-25,1.0625,-15.3125,0.547413,-1.27642,-3.09439
3110,1,-2,1,-1,-2,-1,0,0,1.01611,0.0673828,0.317383,-25,1.0625,-15.3125,0.547413,-1.27642,-3.09439
3111,0,1,-1,-1,-3,0,-2,-2,1.00391,0.0966797,0.28125,-26.8125,0.4375,-10.5,0.54277,-1.27464,-3.09975
3111,-1,-2,2,0,-1,-2,1,-1,1.00391,0.0966797,0.28125,-26.8125,0.4375,-10.5,0.54277,-1.27464,-3.09975
3140,-1,-2,1,0,-1,-3,-3,-1,1.00391,0.0966797,0.28125,-26.8125,0.4375,-10.5,0.54277,-1.27464,-3.09975
3140,-1,-3,-2,-1,-1,-1,0,-1,1.00391,0.0966797,0.28125,-26.8125,0.4375,-10.5,0.54277,-1.27464,-3.09975
3142,-1,-2,-2,-2,-1,-1,-1,0,0.950195,0.117676,0.235352,-28.8125,1.125,-5.1875,0.535471,-1.27396,-3.10291
3142,-2,0,0,2,1,-1,-2,-2,0.950195,0.117676,0.235352,-28.8125,1.125,-5.1875,0.535471,-1.27396,-3.10291
3145,-3,0,-2,0,0,0,-1,1,0.950195,0.117676,0.235352,-28.8125,1.125,-5.1875,0.535471,-1.27396,-3.10291
3145,-1,-2,-1,-2,-2,-1,-1,-1,0.950195,0.117676,0.235352,-28.8125,1.125,-5.1875,0.535471,-1.27396,-3.10291
3155,0,0,-2,0,-2,0,0,0,0.876953,0.132324,0.202637,-27.625,3.5,0.4375,0.524351,-1.27339,-3.10132
3155,-1,0,-2,-1,-1,0,-2,-1,0.876953,0.132324,0.202637,-27.625,3.5,0.4375,0.524351,-1.27339,-3.10132
3176,-1,0,-1,-1,0,-1,-1,-1,0.876953,0.132324,0.202637,-27.625,3.5,0.4375,0.524351,-1.27339,-3.10132
3176,0,-1,0,-1,0,-1,-2,-1,0.876953,0.132324,0.202637,-27.625,3.5,0.4375,0.524351,-1.27339,-3.10132
3178,-2,-2,-3,0,-2,-2,0,-1,0.814941,0.117188,0.209473,-17.9375,4.6875,4.0625,0.511518,-1.27315,-3.09439
3178,0,-1,-3,-2,-1,-1,-1,1,0.814941,0.117188,0.209473,-17.9375,4.6875,4.0625,0.511518,-1.27315,-3.09439
3191,0,-2,-1,0,-2,-1,0,-2,0.814941,0.117188,0.209473,-17.9375,4.6875,4.0625,0.511518,-1.27315,-3.09439
3191,-1,-2,-2,0,0,0,1,-1,0.814941,0.117188,0.209473,-17.9375,4.6875,4.0625,0.511518,-1.27315,-3.09439
3206,1,-2,0,0,-1,-1,-1,-1,0.802246,0.0717773,0.219238,-5.5625,4.625,5.5625,0.49809,-1.27305,-3.0826
3206,0,0,0,0,-3,-2,0,0,0.802246,0.0717773,0.219238,-5.5625,4.625,5.5625,0.49809,-1.27305,-3.0826
3207,0,-2,-1,-2,-1,0,-1,-1,0.802246,0.0717773,0.219238,-5.5625,4.625,5.5625,0.49809,-1.27305,-3.0826
3207,-2,-2,-1,-1,1,-1,-1,-1,0.802246,0.0717773,0.219238,-5.5625,4.625,5.5625,0.49809,-1.27305,-3.0826
3214,-2,-2,1,2,0,-2,-3,-2,0.817871,0.0595703,0.224121,7.6875,5.125,6.75,0.486944,-1.27328,-3.06846
3214,-3,-2,-1,-3,-2,-2,0,-1,0.817871,0.0595703,0.224121,7.6875,5.125,6.75,0.486944,-1.27328,-3.06846
3229,0,-1,-2,-1,-2,0,0,0,0.817871,0.0595703,0.224121,7.6875,5.125,6.75,0.486944,-1.27328,-3.06846
3229,-2,0,-2,-1,-2,-1,-2,-1,0.817871,0.0595703,0.224121,7.6875,5.125,6.75,0.486944,-1.27328,-3.06846
3231,-1,0,-1,-2,-2,-1,-2,1,0.851562,0.0800781,0.244141,17.625,4.3125,6.1875,0.481175,-1.27327,-3.05629
3231,0,-1,0,-1,0,-1,-2,-3,0.851562,0.0800781,0.244141,17.625,4.3125,6.1875,0.481175,-1.27327,-3.05629
3252,-1,0,0,-2,-1,-1,-1,0,0.851562,0.0800781,0.244141,17.625,4.3125,6.1875,0.481175,-1.27327,-3.05629
3252,-1,-2,0,-1,-1,-1,-1,-1,0.851562,0.0800781,0.244141,17.625,4.3125,6.1875,0.481175,-1.27327,-3.05629
3254,-1,-1,-1,0,-2,0,-1,0,0.901855,0.0966797,0.260742,15.25,1.75,3.625,0.478781,-1.27312,-3.04861
3254,0,1,-3,-1,-1,0,-1,2,0.901855,0.0966797,0.260742,15.25,1.75,3.625,0.478781,-1.27312,-3.04861
3267,-2,-2,-1,-1,0,-2,-1,0,0.901855,0.0966797,0.260742,15.25,1.75,3.625,0.478781,-1.27312,-3.04861
3267,-2,-2,0,2,1,1,-2,-2,0.901855,0.0966797,0.260742,15.25,1.75,3.625,0.478781,-1.27312,-3.04861
3273,-1,-2,-2,0,-2,-1,0,-2,0.957031,0.115723,0.262695,5.75,-0.3125,2.5625,0.476664,-1.27369,-3.04433
3273,-1,0,0,-1,-1,0,-1,-2,0.957031,0.115723,0.262695,5.75,-0.3125,2.5625,0.476664,-1.27369,-3.04433
3289,0,-1,-2,-2,-1,-1,0,-1,0.957031,0.115723,0.262695,5.75,-0.3125,2.5625,0.476664,-1.27369,-3.04433
3289,0,0,-2,-1,0,-2,-2,0,0.957031,0.115723,0.262695,5.75,-0.3125,2.5625,0.476664,-1.27369,-3.04433
3291,-1,0,-2,-2,-2,0,-1,-1,0.996094,0.134277,0.249023,-2.0625,-1.5625,3.25,0.474094,-1.27517,-3.0423
3291,-1,-2,0,0,-1,-2,0,-2,0.996094,0.134277,0.249023,-2.0625,-1.5625,3.25,0.474094,-1.27517,-3.0423
3312,-2,-1,0,-1,-1,0,-1,-2,0.996094,0.134277,0.249023,-2.0625,-1.5625,3.25,0.474094,-1.27517,-3.0423
3312,-1,-1,1,-1,-1,0,-1,-1,0.996094,0.134277,0.249023,-2.0625,-1.5625,3.25,0.474094,-1.27517,-3.0423
3318,0,0,1,-2,-1,0,2,-1,0.995117,0.162598,0.218262,-11.75,-0.875,3.4375,0.470749,-1.27672,-3.04286
3318,-1,1,0,-1,-1,0,-1,-1,0.995117,0.162598,0.218262,-11.75,-0.875,3.4375,0.470749,-1.27672,-3.04286
3326,-1,0,-2,0,-2,-1,-1,-1,0.995117,0.162598,0.218262,-11.75,-0.875,3.4375,0.470749,-1.27672,-3.04286
3326,-2,-1,-3,-1,-2,-2,0,-1,0.995117,0.162598,0.218262,-11.75,-0.875,3.4375,0.470749,-1.27672,-3.04286
3334,-1,-1,-1,-1,-1,0,-1,-1,0.96875,0.186523,0.195312,-20.6875,0.375,3.625,0.466252,-1.27774,-3.04519
3334,0,-1,-1,0,0,1,-1,1,0.96875,0.186523,0.195312,-20.6875,0.375,3.625,0.466252,-1.27774,-3.04519
3349,1,0,-2,-1,0,-2,-2,-1,0.96875,0.186523,0.195312,-20.6875,0.375,3.625,0.466252,-1.27774,-3.04519
3349,-1,2,-1,-2,-2,-1,-1,0,0.96875,0.186523,0.195312,-20.6875,0.375,3.625,0.466252,-1.27774,-3.04519
3350,-2,-2,-2,-1,1,-1,0,0,0.954102,0.180664,0.1875,-22.0625,2,5,0.458981,-1.27907,-3.04487
3350,-1,0,-2,-1,1,-1,-1,-1,0.954102,0.180664,0.1875,-22.0625,2,5,0.458981,-1.27907,-3.04487
3372,-2,0,-2,0,-1,-1,-2,-1,0.954102,0.180664,0.1875,-22.0625,2,5,0.458981,-1.27907,-3.04487
3372,-3,0,-2,0,0,-1,0,0,0.954102,0.180664,0.1875,-22.0625,2,5,0.458981,-1.27907,-3.04487
3373,-2,0,0,-1,-1,-2,0,0,0.942871,0.15625,0.186523,-14.5,3.3125,6.625,0.450459,-1.28019,-3.04082
3373,0,-1,-2,-1,-1,0,-1,-2,0.942871,0.15625,0.186523,-14.5,3.3125,6.625,0.450459,-1.28019,-3.04082
3386,0,-1,0,-2,1,0,0,-1,0.942871,0.15625,0.186523,-14.5,3.3125,6.625,0.450459,-1.28019,-3.04082
3386,1,-2,-2,-2,-2,0,1,-1,0.942871,0.15625,0.186523,-14.5,3.3125,6.625,0.450459,-1.28019,-3.04082
3395,0,-1,-2,-1,-3,-2,-1,-1,0.943359,0.14209,0.192871,-5.0625,5.125,8.5,0.441201,-1.28076,-3.03274
3395,-3,-2,-1,-2,-1,-1,0,-1,0.943359,0.14209,0.192871,-5.0625,5.125,8.5,0.441201,-1.28076,-3.03274
3410,0,-1,-1,-2,-2,-2,-2,0,0.943359,0.14209,0.192871,-5.0625,5.125,8.5,0.441201,-1.28076,-3.03274
3410,-2,0,0,-1,-1,-2,-1,-3,0.943359,0.14209,0.192871,-5.0625,5.125,8.5,0.441201,-1.28076,-3.03274
3411,-2,-1,-1,0,0,-1,-3,0,0.938477,0.160645,0.189941,1.875,6.8125,9.625,0.433961,-1.2811,-3.02394
3411,0,-1,-3,-4,-1,-1,-1,-1,0.938477,0.160645,0.189941,1.875,6.8125,9.625,0.433961,-1.2811,-3.02394
3432,-1,-3,0,-1,1,0,1,1,0.938477,0.160645,0.189941,1.875,6.8125,9.625,0.433961,-1.2811,-3.02394
3432,0,0,-1,-1,-2,-2,-1,-2,0.938477,0.160645,0.189941,1.875,6.8125,9.625,0.433961,-1.2811,-3.02394
3433,1,-1,1,-1,-1,-1,-1,-1,0.92627,0.180664,0.203125,3.375,7.1875,9.8125,0.427851,-1.28073,-3.01571
3433,2,-2,0,0,-2,-2,-3,-1,0.92627,0.180664,0.203125,3.375,7.1875,9.8125,0.427851,-1.28073,-3.01571
3455,0,-1,-2,0,-2,0,1,-1,0.92627,0.180664,0.203125,3.375,7.1875,9.8125,0.427851,-1.28073,-3.01571
3455,-1,0,-3,-2,-3,0,0,1,0.92627,0.180664,0.203125,3.375,7.1875,9.8125,0.427851,-1.28073,-3.01571
3456,-2,-2,-1,-1,0,-1,-1,0,0.918945,0.17627,0.210938,1.75,6.6875,9,0.422214,-1.28001,-3.00862
3456,-3,-1,-1,-1,-3,0,-1,0,0.918945,0.17627,0.210938,1.75,6.6875,9,0.422214,-1.28001,-3.00862
3484,-2,-1,-2,-1,-2,-1,-1,-2,0.918945,0.17627,0.210938,1.75,6.6875,9,0.422214,-1.28001,-3.00862
3484,-2,-2,-1,-1,-2,-1,-1,-1,0.918945,0.17627,0.210938,1.75,6.6875,9,0.422214,-1.28001,-3.00862
3486,1,0,1,-3,-2,-1,-3,-1,0.926758,0.17627,0.229004,-1.25,5.5625,7.625,0.41652,-1.27919,-3.00271
3486,1,0,0,-2,-2,-1,-1,1,0.926758,0.17627,0.229004,-1.25,5.5625,7.625,0.41652,-1.27919,-3.00271
3492,-1,0,0,-1,-2,-2,-1,-2,0.926758,0.17627,0.229004,-1.25,5.5625,7.625,0.41652,-1.27919,-3.00271
3492,-2,-1,3,-1,-1,-2,0,0,0.926758,0.17627,0.229004,-1.25,5.5625,7.625,0.41652,-1.27919,-3.00271
3494,-1,-1,-2,-1,0,-1,0,-2,0.929199,0.17041,0.232422,-4.6875,4.1875,5.875,0.412091,-1.27851,-2.99938
3494,0,-1,-1,-1,-1,0,-2,0,0.929199,0.17041,0.232422,-4.6875,4.1875,5.875,0.412091,-1.27851,-2.99938
3506,1,-1,0,0,0,0,0,-2,0.929199,0.17041,0.232422,-4.6875,4.1875,5.875,0.412091,-1.27851,-2.99938
3506,-1,-2,-1,1,0,-2,-2,2,0.929199,0.17041,0.232422,-4.6875,4.1875,5.875,0.412091,-1.27851,-2.99938
3515,1,0,-1,-1,0,-2,-2,-2,0.92041,0.154297,0.244629,-5.0625,1.9375,4.875,0.408312,-1.27882,-2.9967
3515,0,-1,-2,0,1,-1,-1,-1,0.92041,0.154297,0.244629,-5.0625,1.9375,4.875,0.408312,-1.27882,-2.9967
3529,-3,-1,-1,0,-1,-2,1,-1,0.92041,0.154297,0.244629,-5.0625,1.9375,4.875,0.408312,-1.27882,-2.9967
3529,0,0,-4,-1,0,0,-1,-2,0.92041,0.154297,0.244629,-5.0625,1.9375,4.875,0.408312,-1.27882,-2.9967
3531,-2,0,0,0,-1,0,-1,-1,0.922852,0.150879,0.239258,-6.25,-0.3125,3.125,0.406563,-1.27902,-2.9969
3531,-1,1,-1,-1,0,-1,-1,-1,0.922852,0.150879,0.239258,-6.25,-0.3125,3.125,0.406563,-1.27902,-2.9969
3552,0,0,-2,-1,-1,-1,-2,1,0.922852,0.150879,0.239258,-6.25,-0.3125,3.125,0.406563,-1.27902,-2.9969
3552,0,-4,0,-1,-2,0,-1,-1,0.922852,0.150879,0.239258,-6.25,-0.3125,3.125,0.406563,-1.27902,-2.9969
3553,-1,-2,-2,-2,-1,-2,1,-1,0.918457,0.150391,0.236328,-5.5,-2.1875,2.0625,0.406919,-1.27971,-2.99907
3553,-1,-1,-2,-2,-2,0,-2,-1,0.918457,0.150391,0.236328,-5.5,-2.1875,2.0625,0.406919,-1.27971,-2.99907
3565,-2,-1,-1,0,-1,0,1,-1,0.918457,0.150391,0.236328,-5.5,-2.1875,2.0625,0.406919,-1.27971,-2.99907
3565,2,1,-3,-3,-1,-2,-2,-2,0.918457,0.150391,0.236328,-5.5,-2.1875,2.0625,0.406919,-1.27971,-2.99907
3582,-1,1,0,0,-1,0,2,-1,0.930664,0.150879,0.233398,-5.25,-3.875,0.75,0.410164,-1.28135,-3.00388
3582,0,-3,0,0,-1,-3,-2,0,0.930664,0.150879,0.233398,-5.25,-3.875,0.75,0.410164,-1.28135,-3.00388
3589,-2,0,-2,0,-2,-2,-1,0,0.930664,0.150879,0.233398,-5.25,-3.875,0.75,0.410164,-1.28135,-3.00388
3589,-1,-2,1,-2,-1,-2,-1,-3,0.930664,0.150879,0.233398,-5.25,-3.875,0.75,0.410164,-1.28135,-3.00388
3590,0,1,-1,-1,-1,-2,0,1,0.932129,0.153809,0.229004,-4.75,-4.8125,0.0625,0.414625,-1.28281,-3.00997
3590,-1,2,-1,-1,0,0,-1,-1,0.932129,0.153809,0.229004,-4.75,-4.8125,0.0625,0.414625,-1.28281,-3.00997
3612,-2,0,-1,-1,-1,0,-1,0,0.932129,0.153809,0.229004,-4.75,-4.8125,0.0625,0.414625,-1.28281,-3.00997
3612,-1,-1,-1,0,-3,-1,-1,0,0.932129,0.153809,0.229004,-4.75,-4.8125,0.0625,0.414625,-1.28281,-3.00997
3613,-1,-2,-1,1,-1,0,-1,-1,0.935547,0.154785,0.228516,-5.0625,-5.4375,-0.5625,0.420473,-1.28475,-3.01757
3613,0,-1,-2,2,0,0,0,-2,0.935547,0.154785,0.228516,-5.0625,-5.4375,-0.5625,0.420473,-1.28475,-3.01757
3625,0,-2,-1,-2,-2,-1,-1,-1,0.935547,0.154785,0.228516,-5.0625,-5.4375,-0.5625,0.420473,-1.28475,-3.01757
3625,-2,0,-3,-2,0,1,0,0,0.935547,0.154785,0.228516,-5.0625,-5.4375,-0.5625,0.420473,-1.28475,-3.01757
3635,0,-3,0,0,-1,0,-1,-1,0.922852,0.144043,0.240234,-4.25,-6.5,-0.8125,0.425511,-1.28638,-3.02416
3635,-2,-2,0,0,-3,0,-1,0,0.922852,0.144043,0.240234,-4.25,-6.5,-0.8125,0.425511,-1.28638,-3.02416
3649,0,-2,-1,0,-2,0,-2,-1,0.922852,0.144043,0.240234,-4.25,-6.5,-0.8125,0.425511,-1.28638,-3.02416
3649,0,-1,-1,-2,-1,1,0,0,0.922852,0.144043,0.240234,-4.25,-6.5,-0.8125,0.425511,-1.28638,-3.02416
3650,-1,-3,-2,-1,0,-2,-2,-1,0.931641,0.141602,0.234863,-5.4375,-7.5,-1.6875,0.432119,-1.28833,-3.03276
3650,0,-2,-1,-1,0,-1,-1,-2,0.931641,0.141602,0.234863,-5.4375,-7.5,-1.6875,0.432119,-1.28833,-3.03276
3672,-1,-2,0,-1,1,-3,-1,-1,0.931641,0.141602,0.234863,-5.4375,-7.5,-1.6875,0.432119,-1.28833,-3.03276
3672,0,0,-3,-1,-1,-2,-2,-2,0.931641,0.141602,0.234863,-5.4375,-7.5,-1.6875,0.432119,-1.28833,-3.03276
3678,0,1,-3,-2,-2,-1,-3,0,0.930176,0.141113,0.237793,-7.25,-7.3125,-1.8125,0.437628,-1.2905,-3.04078
3678,-1,0,-2,-1,-2,-1,0,0,0.930176,0.141113,0.237793,-7.25,-7.3125,-1.8125,0.437628,-1.2905,-3.04078
3685,-2,1,-2,-2,0,-1,-1,-1,0.930176,0.141113,0.237793,-7.25,-7.3125,-1.8125,0.437628,-1.2905,-3.04078
3685,0,-1,-1,1,-1,1,-1,-1,0.930176,0.141113,0.237793,-7.25,-7.3125,-1.8125,0.437628,-1.2905,-3.04078
3694,-1,0,1,0,-1,-1,0,0,0.927246,0.134766,0.231934,-6.9375,-7.5625,-1.625,0.442611,-1.29253,-3.04839
3694,-2,-3,-1,-1,-1,-1,1,-1,0.927246,0.134766,0.231934,-6.9375,-7.5625,-1.625,0.442611,-1.29253,-3.04839
3710,1,-1,0,-2,-1,-1,-1,-1,0.927246,0.134766,0.231934,-6.9375,-7.5625,-1.625,0.442611,-1.29253,-3.04839
3710,-1,0,1,2,-1,-2,0,-1,0.927246,0.134766,0.231934,-6.9375,-7.5625,-1.625,0.442611,-1.29253,-3.04839
3711,-1,0,-1,0,0,0,-2,-2,0.926758,0.126953,0.240234,-4.875,-7.8125,-1.375,0.447848,-1.29472,-3.05539
3711,-1,-1,0,-1,-1,-1,0,-1,0.926758,0.126953,0.240234,-4.875,-7.8125,-1.375,0.447848,-1.29472,-3.05539
3732,-1,0,-1,1,-2,-1,-3,0,0.926758,0.126953,0.240234,-4.875,-7.8125,-1.375,0.447848,-1.29472,-3.05539
3732,-2,0,0,-2,-2,0,-2,-2,0.926758,0.126953,0.240234,-4.875,-7.8125,-1.375,0.447848,-1.29472,-3.05539
3734,0,0,0,-1,-1,-1,0,0,0.927246,0.126465,0.237305,-2.375,-8.0625,-1.3125,0.453489,-1.29671,-3.06215
3734,-1,0,3,-2,-2,-1,0,0,0.927246,0.126465,0.237305,-2.375,-8.0625,-1.3125,0.453489,-1.29671,-3.06215
3746,0,-4,-7,-1,0,0,1,-1,0.927246,0.126465,0.237305,-2.375,-8.0625,-1.3125,0.453489,-1.29671,-3.06215
3746,-1,-1,-1,-1,-1,-2,-3,-2,0.927246,0.126465,0.237305,-2.375,-8.0625,-1.3125,0.453489,-1.29671,-3.06215
3754,-2,-2,-2,-1,-1,0,-1,-2,0.924805,0.129395,0.235352,-0.375,-7.6875,-0.9375,0.459927,-1.29875,-3.06881
3754,0,0,0,0,-3,0,-2,-2,0.924805,0.129395,0.235352,-0.375,-7.6875,-0.9375,0.459927,-1.29875,-3.06881
3770,0,0,0,0,-2,1,-2,-2,0.924805,0.129395,0.235352,-0.375,-7.6875,-0.9375,0.459927,-1.29875,-3.06881
3770,1,-3,0,-1,1,0,1,-1,0.924805,0.129395,0.235352,-0.375,-7.6875,-0.9375,0.459927,-1.29875,-3.06881
3770,-1,-1,-2,0,-1,-1,0,1,0.927734,0.135254,0.230469,-2.125,-6.8125,-0.4375,0.464883,-1.30085,-3.07448
3770,-3,2,-2,1,-1,-1,-1,0,0.927734,0.135254,0.230469,-2.125,-6.8125,-0.4375,0.464883,-1.30085,-3.07448
3792,0,-1,1,0,-1,-2,0,-2,0.927734,0.135254,0.230469,-2.125,-6.8125,-0.4375,0.464883,-1.30085,-3.07448
3792,-2,0,-1,-1,0,-1,-1,-1,0.927734,0.135254,0.230469,-2.125,-6.8125,-0.4375,0.464883,-1.30085,-3.07448
3793,-2,-2,0,-2,1,0,-1,-3,0.924316,0.12207,0.234863,-4.0625,-6.1875,0.125,0.466952,-1.30244,-3.07817
3793,0,-1,-1,-3,-1,-1,-1,0,0.924316,0.12207,0.234863,-4.0625,-6.1875,0.125,0.466952,-1.30244,-3.07817
3815,1,-2,0,-2,0,0,-2,-2,0.924316,0.12207,0.234863,-4.0625,-6.1875,0.125,0.466952,-1.30244,-3.07817
3815,-1,-2,1,-1,-1,-2,-1,1,0.924316,0.12207,0.234863,-4.0625,-6.1875,0.125,0.466952,-1.30244,-3.07817
3816,1,0,-1,0,-2,-2,0,0,0.92334,0.119629,0.248535,-3.8125,-5.625,0.75,0.467576,-1.30372,-3.08022
3816,1,0,-1,-1,1,0,-2,-1,0.92334,0.119629,0.248535,-3.8125,-5.625,0.75,0.467576,-1.30372,-3.08022
3830,0,0,1,-1,-1,-2,-1,-2,0.92334,0.119629,0.248535,-3.8125,-5.625,0.75,0.467576,-1.30372,-3.08022
3830,0,-2,-3,1,0,-2,0,-2,0.92334,0.119629,0.248535,-3.8125,-5.625,0.75,0.467576,-1.30372,-3.08022
3831,1,-2,-2,-1,-4,-1,-1,-1,0.908203,0.117188,0.249512,-2.6875,-5,2.375,0.466091,-1.30505,-3.07965
3831,-1,0,1,-1,0,-2,-2,-1,0.908203,0.117188,0.249512,-2.6875,-5,2.375,0.466091,-1.30505,-3.07965
3852,-1,-1,-5,-1,-2,-1,0,0,0.908203,0.117188,0.249512,-2.6875,-5,2.375,0.466091,-1.30505,-3.07965
3852,-1,-1,-2,-1,-1,-2,-2,-1,0.908203,0.117188,0.249512,-2.6875,-5,2.375,0.466091,-1.30505,-3.07965
3853,-1,-1,0,1,-2,2,-1,-1,0.894043,0.116699,0.283691,0.25,-5.375,4.375,0.462093,-1.30568,-3.0756
3853,1,0,0,1,-2,-1,-1,-1,0.894043,0.116699,0.283691,0.25,-5.375,4.375,0.462093,-1.30568,-3.0756
3875,-3,-3,-3,-2,-3,1,0,1,0.894043,0.116699,0.283691,0.25,-5.375,4.375,0.462093,-1.30568,-3.0756
3875,-1,-1,0,-1,-2,-2,-1,1,0.894043,0.116699,0.283691,0.25,-5.375,4.375,0.462093,-1.30568,-3.0756
3877,-2,-2,-4,0,-2,-2,0,-1,0.874023,0.137695,0.312988,4.25,-4.6875,7.125,0.456523,-1.30559,-3.06855
3877,-1,-3,-2,-1,-2,-1,-1,-1,0.874023,0.137695,0.312988,4.25,-4.6875,7.125,0.456523,-1.30559,-3.06855
3889,-1,2,5,-1,-1,1,-2,-1,0.874023,0.137695,0.312988,4.25,-4.6875,7.125,0.456523,-1.30559,-3.06855
3889,-1,-2,-4,-1,0,-1,0,-1,0.874023,0.137695,0.312988,4.25,-4.6875,7.125,0.456523,-1.30559,-3.06855
3890,-1,0,4,-1,2,-2,0,-1,0.853027,0.126953,0.36084,11.5625,-4.4375,7.4375,0.45022,-1.30454,-3.05816
3890,0,0,-1,0,-1,-1,-1,-2,0.853027,0.126953,0.36084,11.5625,-4.4375,7.4375,0.45022,-1.30454,-3.05816
3912,1,-1,0,0,-1,-2,-1,-2,0.853027,0.126953,0.36084,11.5625,-4.4375,7.4375,0.45022,-1.30454,-3.05816
3912,1,-1,0,-2,-2,-1,0,0,0.853027,0.126953,0.36084,11.5625,-4.4375,7.4375,0.45022,-1.30454,-3.05816
3913,-2,1,-1,-3,-1,1,-2,-2,0.842285,0.0996094,0.402832,21.25,-4.9375,7.875,0.443462,-1.30329,-3.04399
3913,-2,2,3,-2,-2,0,0,0,0.842285,0.0996094,0.402832,21.25,-4.9375,7.875,0.443462,-1.30329,-3.04399
3934,-1,-4,-13,0,0,-2,0,1,0.842285,0.0996094,0.402832,21.25,-4.9375,7.875,0.443462,-1.30329,-3.04399
3934,-2,-1,-1,2,-2,-1,-2,-2,0.842285,0.0996094,0.402832,21.25,-4.9375,7.875,0.443462,-1.30329,-3.04399
3936,0,-2,-4,0,-2,-2,-1,-1,0.805664,0.113281,0.412598,29.375,-3.0625,8.5625,0.438744,-1.30111,-3.02881
3936,-1,-2,-3,-1,-1,-1,-1,-2,0.805664,0.113281,0.412598,29.375,-3.0625,8.5625,0.438744,-1.30111,-3.02881
3948,0,-1,3,-2,-2,-3,-2,-1,0.805664,0.113281,0.412598,29.375,-3.0625,8.5625,0.438744,-1.30111,-3.02881
3948,-2,0,-1,0,-1,-1,0,1,0.805664,0.113281,0.412598,29.375,-3.0625,8.5625,0.438744,-1.30111,-3.02881
3957,-2,-2,-2,-1,-2,-3,-1,-2,0.772461,0.133301,0.418457,31.25,0.25,7.9375,0.435336,-1.29673,-3.01445
3957,-2,-3,-2,-1,-1,-1,0,-2,0.772461,0.133301,0.418457,31.25,0.25,7.9375,0.435336,-1.29673,-3.01445
3972,-1,1,7,0,0,0,-1,-1,0.772461,0.133301,0.418457,31.25,0.25,7.9375,0.435336,-1.29673,-3.01445
3972,0,-5,-13,-3,-2,-3,0,0,0.772461,0.133301,0.418457,31.25,0.25,7.9375,0.435336,-1.29673,-3.01445
3974,0,0,-1,-1,-1,-1,-1,-1,0.737793,0.114746,0.428711,31.25,2.5625,8.125,0.428742,-1.29181,-2.99674
3974,0,-2,-1,0,-2,-1,-2,1,0.737793,0.114746,0.428711,31.25,2.5625,8.125,0.428742,-1.29181,-2.99674
3994,-2,1,2,0,0,-1,-2,-1,0.737793,0.114746,0.428711,31.25,2.5625,8.125,0.428742,-1.29181,-2.99674
3994,-1,0,1,-2,-1,-1,-1,-1,0.737793,0.114746,0.428711,31.25,2.5625,8.125,0.428742,-1.29181,-2.99674
3996,-1,1,0,-2,-2,-1,-1,1,0.742676,0.0678711,0.439453,36.75,2.75,7.0625,0.421966,-1.28691,-2.97715
3996,0,-2,-3,-1,0,-1,0,-2,0.742676,0.0678711,0.439453,36.75,2.75,7.0625,0.421966,-1.28691,-2.97715
4009,0,-2,-1,-2,-1,0,0,-2,0.742676,0.0678711,0.439453,36.75,2.75,7.0625,0.421966,-1.28691,-2.97715
4009,1,2,4,-1,-2,0,-3,-1,0.742676,0.0678711,0.439453,36.75,2.75,7.0625,0.421966,-1.28691,-2.97715
4017,-1,-3,-5,0,0,0,0,-1,0.790527,0.0527344,0.450195,44.25,2.875,4.5625,0.419363,-1.28228,-2.95925
4017,-1,0,-2,-1,-3,-2,0,-2,0.790527,0.0527344,0.450195,44.25,2.875,4.5625,0.419363,-1.28228,-2.95925
4032,-2,-1,-3,0,1,-1,-1,0,0.790527,0.0527344,0.450195,44.25,2.875,4.5625,0.419363,-1.28228,-2.95925
4032,-3,0,-1,-1,-1,-1,-1,-2,0.790527,0.0527344,0.450195,44.25,2.875,4.5625,0.419363,-1.28228,-2.95925
4034,-1,0,0,-2,-1,0,-1,-2,0.83252,0.0527344,0.450684,47.4375,1.875,1.8125,0.421093,-1.27748,-2.9448
4034,2,0,-1,0,-1,-1,0,-2,0.83252,0.0527344,0.450684,47.4375,1.875,1.8125,0.421093,-1.27748,-2.9448
4055,1,-1,-1,-3,-1,1,0,-2,0.83252,0.0527344,0.450684,47.4375,1.875,1.8125,0.421093,-1.27748,-2.9448
4055,-3,-3,1,-1,-1,-1,-1,1,0.83252,0.0527344,0.450684,47.4375,1.875,1.8125,0.421093,-1.27748,-2.9448
4056,-1,0,0,1,-1,0,-1,-1,0.858887,0.0756836,0.435059,41.6875,1,-0.375,0.426172,-1.27306,-2.93585
4056,0,-2,-3,0,-1,-1,1,1,0.858887,0.0756836,0.435059,41.6875,1,-0.375,0.426172,-1.27306,-2.93585
4068,0,-1,-1,-1,-2,-1,-1,-2,0.858887,0.0756836,0.435059,41.6875,1,-0.375,0.426172,-1.27306,-2.93585
4068,-2,-1,1,-1,-1,2,0,-2,0.858887,0.0756836,0.435059,41.6875,1,-0.375,0.426172,-1.27306,-2.93585
4076,-1,0,7,0,-2,0,-1,0,0.869629,0.103516,0.40625,29.375,1.1875,-1.25,0.430766,-1.26952,-2.93037
4076,-2,-4,-10,-2,-1,-2,-2,-2,0.869629,0.103516,0.40625,29.375,1.1875,-1.25,0.430766,-1.26952,-2.93037
4092,-1,-1,-2,1,-1,-2,2,0,0.869629,0.103516,0.40625,29.375,1.1875,-1.25,0.430766,-1.26952,-2.93037
4092,0,3,5,-1,-1,0,0,0,0.869629,0.103516,0.40625,29.375,1.1875,-1.25,0.430766,-1.26952,-2.93037
4094,-1,-3,-5,-1,-2,-1,0,0,0.840332,0.0996094,0.364746,13.5,1.5625,-0.6875,0.43041,-1.26627,-2.92555
4094,0,1,5,0,0,0,-2,-1,0.840332,0.0996094,0.364746,13.5,1.5625,-0.6875,0.43041,-1.26627,-2.92555
4114,-5,-1,4,-1,-1,-2,-2,-2,0.840332,0.0996094,0.364746,13.5,1.5625,-0.6875,0.43041,-1.26627,-2.92555
4114,-2,-1,-8,-1,-1,-1,-1,-2,0.840332,0.0996094,0.364746,13.5,1.5625,-0.6875,0.43041,-1.26627,-2.92555
4116,2,-1,-1,-2,-2,-2,-1,1,0.792969,0.104004,0.306152,2.25,4.125,2.25,0.424312,-1.26376,-2.91857
4116,-2,-1,1,0,1,-1,0,-2,0.792969,0.104004,0.306152,2.25,4.125,2.25,0.424312,-1.26376,-2.91857
4128,0,0,0,-1,-1,-2,-1,-1,0.792969,0.104004,0.306152,2.25,4.125,2.25,0.424312,-1.26376,-2.91857
4128,2,0,0,-2,0,-1,0,0,0.792969,0.104004,0.306152,2.25,4.125,2.25,0.424312,-1.26376,-2.91857
4137,-4,-2,-3,-2,-1,-2,-2,-1,0.727051,0.102051,0.270508,-3.75,7.375,3.75,0.414614,-1.26054,-2.90993
4137,2,-1,-3,0,-2,-1,0,1,0.727051,0.102051,0.270508,-3.75,7.375,3.75,0.414614,-1.26054,-2.90993
4152,-4,-2,-1,-1,-1,-2,-1,-1,0.727051,0.102051,0.270508,-3.75,7.375,3.75,0.414614,-1.26054,-2.90993
4152,2,1,-1,1,-2,-1,0,0,0.727051,0.102051,0.270508,-3.75,7.375,3.75,0.414614,-1.26054,-2.90993
4153,0,-1,-3,0,1,-1,-2,-1,0.67627,0.0698242,0.24707,-5.5625,10.375,7.0625,0.398875,-1.2574,-2.89558
4153,-1,-2,-4,-2,-1,-1,-1,0,0.67627,0.0698242,0.24707,-5.5625,10.375,7.0625,0.398875,-1.2574,-2.89558
4175,3,0,-1,0,-2,0,0,1,0.67627,0.0698242,0.24707,-5.5625,10.375,7.0625,0.398875,-1.2574,-2.89558
4175,2,3,4,1,-1,-2,0,0,0.67627,0.0698242,0.24707,-5.5625,10.375,7.0625,0.398875,-1.2574,-2.89558
4176,-6,-2,2,-1,0,-1,0,-3,0.651367,0.0654297,0.240234,2.375,13.1875,9.0625,0.383038,-1.25348,-2.87836
4176,-10,-7,-16,-2,0,-2,-1,-2,0.651367,0.0654297,0.240234,2.375,13.1875,9.0625,0.383038,-1.25348,-2.87836
4188,3,-1,-6,-1,0,0,-1,0,0.651367,0.0654297,0.240234,2.375,13.1875,9.0625,0.383038,-1.25348,-2.87836
4188,-2,-3,-1,-1,-1,-1,-2,-1,0.651367,0.0654297,0.240234,2.375,13.1875,9.0625,0.383038,-1.25348,-2.87836
4196,7,4,2,-1,-2,-1,1,2,0.632812,0.0522461,0.238281,6.875,16,7.25,0.369161,-1.24873,-2.86146
4196,-7,2,6,-1,-1,-2,-3,-4,0.632812,0.0522461,0.238281,6.875,16,7.25,0.369161,-1.24873,-2.86146
4212,-1,0,0,-2,-3,0,0,0,0.632812,0.0522461,0.238281,6.875,16,7.25,0.369161,-1.24873,-2.86146
4212,-2,-1,-4,0,-1,-1,0,-1,0.632812,0.0522461,0.238281,6.875,16,7.25,0.369161,-1.24873,-2.86146
4213,1,-10,-3,-1,-1,0,-2,1,0.637207,0.0366211,0.224121,6.125,17.4375,6.125,0.355617,-1.24326,-2.84532
4213,1,6,2,-2,-2,-2,0,1,0.637207,0.0366211,0.224121,6.125,17.4375,6.125,0.355617,-1.24326,-2.84532
4234,3,6,-1,2,0,-2,-2,-2,0.637207,0.0366211,0.224121,6.125,17.4375,6.125,0.355617,-1.24326,-2.84532
4234,-6,-4,2,1,-1,-1,-1,-2,0.637207,0.0366211,0.224121,6.125,17.4375,6.125,0.355617,-1.24326,-2.84532
4235,-1,1,-4,-1,-1,-2,0,0,0.677246,0.050293,0.226074,3.125,16.6875,3.25,0.345584,-1.23846,-2.83373
4235,0,8,-1,-3,-1,1,0,0,0.677246,0.050293,0.226074,3.125,16.6875,3.25,0.345584,-1.23846,-2.83373
4249,-1,-6,-4,-2,0,1,-2,0,0.677246,0.050293,0.226074,3.125,16.6875,3.25,0.345584,-1.23846,-2.83373
4249,2,6,2,-2,-1,1,-1,-1,0.677246,0.050293,0.226074,3.125,16.6875,3.25,0.345584,-1.23846,-2.83373
4255,-6,-5,-7,-1,2,-1,0,-3,0.758789,0.00341797,0.307617,7.4375,12.4375,-1.25,0.33769,-1.23345,-2.82351
4255,5,-6,1,0,2,1,18,2,0.758789,0.00341797,0.307617,7.4375,12.4375,-1.25,0.33769,-1.23345,-2.82351
4272,1,5,-2,-1,-1,-5,-26,-5,0.758789,0.00341797,0.307617,7.4375,12.4375,-1.25,0.33769,-1.23345,-2.82351
4272,-10,-4,2,-1,0,-2,-3,-6,0.758789,0.00341797,0.307617,7.4375,12.4375,-1.25,0.33769,-1.23345,-2.82351
4274,-3,-2,-9,-2,-2,-3,1,-1,0.901367,-0.0102539,0.317383,8.6875,4.9375,-8.1875,0.33824,-1.23159,-2.82193
4274,2,1,6,1,0,0,0,0,0.901367,-0.0102539,0.317383,8.6875,4.9375,-8.1875,0.33824,-1.23159,-2.82193
4295,-5,-2,-10,-1,-2,-1,6,1,0.901367,-0.0102539,0.317383,8.6875,4.9375,-8.1875,0.33824,-1.23159,-2.82193
4295,3,-12,-4,-2,2,0,0,2,0.901367,-0.0102539,0.317383,8.6875,4.9375,-8.1875,0.33824,-1.23159,-2.82193
4296,12,9,2,0,-1,-3,-4,-1,1.07129,0.034668,0.339355,15.375,-2.75,-12.625,0.349902,-1.23205,-2.82926
4296,-49,-8,3,-4,-2,-4,-5,-7,1.07129,0.034668,0.339355,15.375,-2.75,-12.625,0.349902,-1.23205,-2.82926
4317,4,3,4,1,-2,0,4,3,1.07129,0.034668,0.339355,15.375,-2.75,-12.625,0.349902,-1.23205,-2.82926
4317,0,-25,1,0,-1,-1,-4,-1,1.07129,0.034668,0.339355,15.375,-2.75,-12.625,0.349902,-1.23205,-2.82926
4319,-5,1,-6,-2,-2,0,0,-3,1.21387,0.0854492,0.300293,16.1875,-7.4375,-16.375,0.371407,-1.2351,-2.8463
4319,10,3,-2,0,-1,-2,-4,2,1.21387,0.0854492,0.300293,16.1875,-7.4375,-16.375,0.371407,-1.2351,-2.8463
4332,2,40,11,0,1,0,2,-1,1.21387,0.0854492,0.300293,16.1875,-7.4375,-16.375,0.371407,-1.2351,-2.8463
4332,-6,-35,-10,-2,-2,-1,4,0,1.21387,0.0854492,0.300293,16.1875,-7.4375,-16.375,0.371407,-1.2351,-2.8463
4333,2,-9,5,2,1,3,-1,3,1.16357,0.166504,0.181641,-6.5,-9,-14.875,0.392505,-1.23988,-2.87027
4333,5,0,-3,-3,-4,-1,-5,-2,1.16357,0.166504,0.181641,-6.5,-9,-14.875,0.392505,-1.23988,-2.87027
4355,-7,-2,-6,-3,-2,-1,2,-5,1.16357,0.166504,0.181641,-6.5,-9,-14.875,0.392505,-1.23988,-2.87027
4355,7,4,1,0,-1,-2,-9,-2,1.16357,0.166504,0.181641,-6.5,-9,-14.875,0.392505,-1.23988,-2.87027
4356,1,3,5,-3,-1,-2,-1,-1,0.977539,0.25,0.0981445,-38.25,-6.8125,-6.375,0.402347,-1.24468,-2.89312
4356,8,9,-7,1,1,-1,-1,0,0.977539,0.25,0.0981445,-38.25,-6.8125,-6.375,0.402347,-1.24468,-2.89312
4368,-4,-39,-4,1,1,0,4,1,0.977539,0.25,0.0981445,-38.25,-6.8125,-6.375,0.402347,-1.24468,-2.89312
4368,-6,21,-3,-3,-2,-2,5,0,0.977539,0.25,0.0981445,-38.25,-6.8125,-6.375,0.402347,-1.24468,-2.89312
4377,8,-12,-1,0,-1,-2,-12,-2,0.81543,0.25293,0.0693359,-47.4375,-4,-2.375,0.40538,-1.24817,-2.9122
4377,6,7,-1,-3,-3,-2,6,-2,0.81543,0.25293,0.0693359,-47.4375,-4,-2.375,0.40538,-1.24817,-2.9122
4393,-1,8,5,-2,-2,-4,-10,-8,0.81543,0.25293,0.0693359,-47.4375,-4,-2.375,0.40538,-1.24817,-2.9122
4393,6,10,-3,-3,-1,-1,-4,0,0.81543,0.25293,0.0693359,-47.4375,-4,-2.375,0.40538,-1.24817,-2.9122
4394,-9,13,2,-1,-2,0,2,1,0.75,0.179688,0.0913086,-42.125,-3.25,-3.9375,0.405764,-1.25102,-2.92696
4394,-5,-34,6,3,2,1,-8,-1,0.75,0.179688,0.0913086,-42.125,-3.25,-3.9375,0.405764,-1.25102,-2.92696
4415,10,-27,-11,-5,-2,-2,-2,1,0.75,0.179688,0.0913086,-42.125,-3.25,-3.9375,0.405764,-1.25102,-2.92696
4415,-4,14,3,-1,-3,0,5,2,0.75,0.179688,0.0913086,-42.125,-3.25,-3.9375,0.405764,-1.25102,-2.92696
4416,-6,-10,-4,-1,-3,-1,-1,-5,0.828613,0.163574,0.100098,-22.375,-2.25,-3.6875,0.410959,-1.25368,-2.93983
4416,5,22,2,0,0,0,-6,-1,0.828613,0.163574,0.100098,-22.375,-2.25,-3.6875,0.410959,-1.25368,-2.93983
4428,3,7,3,0,2,-1,10,2,0.828613,0.163574,0.100098,-22.375,-2.25,-3.6875,0.410959,-1.25368,-2.93983
4428,-1,-3,0,-1,-1,-3,-14,0,0.828613,0.163574,0.100098,-22.375,-2.25,-3.6875,0.410959,-1.25368,-2.93983
4437,-5,-1,-2,0,-2,-3,1,-1,0.904785,0.185059,0.0932617,-0.8125,2.4375,-5.625,0.425313,-1.25516,-2.95409
4437,3,-6,3,1,1,0,-1,0,0.904785,0.185059,0.0932617,-0.8125,2.4375,-5.625,0.425313,-1.25516,-2.95409
4452,7,-6,1,-1,-1,0,2,2,0.904785,0.185059,0.0932617,-0.8125,2.4375,-5.625,0.425313,-1.25516,-2.95409
4452,-6,13,-8,-3,0,-2,2,-7,0.904785,0.185059,0.0932617,-0.8125,2.4375,-5.625,0.425313,-1.25516,-2.95409
4453,1,8,2,-1,0,0,-8,1,0.900879,0.222656,0.0703125,2.5,9.0625,-4.1875,0.439633,-1.25513,-2.9668
4453,10,19,0,1,-2,-1,11,2,0.900879,0.222656,0.0703125,2.5,9.0625,-4.1875,0.439633,-1.25513,-2.9668
4474,-22,-39,0,0,-1,1,-6,-4,0.900879,0.222656,0.0703125,2.5,9.0625,-4.1875,0.439633,-1.25513,-2.9668
4474,-3,3,-2,-2,-2,-3,-2,-2,0.900879,0.222656,0.0703125,2.5,9.0625,-4.1875,0.439633,-1.25513,-2.9668
4482,-3,-7,0,-3,-2,-1,-8,0,0.889648,0.20166,0.0913086,-0.375,12.1875,-3.6875,0.44851,-1.25339,-2.97526
4482,-10,-16,-8,-4,0,-1,-2,-9,0.889648,0.20166,0.0913086,-0.375,12.1875,-3.6875,0.44851,-1.25339,-2.97526
4489,1,57,11,2,0,0,4,18,0.889648,0.20166,0.0913086,-0.375,12.1875,-3.6875,0.44851,-1.25339,-2.97526
4489,0,-82,-16,0,-1,1,-2,0,0.889648,0.20166,0.0913086,-0.375,12.1875,-3.6875,0.44851,-1.25339,-2.97526
4498,0,1,0,0,0,-1,0,-1,0.932617,0.187988,0.108398,-6.0625,10.5625,-5.5,0.456067,-1.2524,-2.98439
4498,-9,-1,0,1,0,0,3,2,0.932617,0.187988,0.108398,-6.0625,10.5625,-5.5,0.456067,-1.2524,-2.98439
4512,38,-9,-9,-1,0,0,6,-1,0.932617,0.187988,0.108398,-6.0625,10.5625,-5.5,0.456067,-1.2524,-2.98439
4512,-6,52,17,0,-1,-2,-4,-6,0.932617,0.187988,0.108398,-6.0625,10.5625,-5.5,0.456067,-1.2524,-2.98439
4514,-5,-1,-1,-3,-1,-2,4,0,0.994141,0.183105,0.11377,-9.3125,8.125,-11.4375,0.468567,-1.25137,-3.00005
4514,0,-10,-3,-3,-3,-2,-5,3,0.994141,0.183105,0.11377,-9.3125,8.125,-11.4375,0.468567,-1.25137,-3.00005
4535,-5,3,-3,-1,0,-3,0,-1,0.994141,0.183105,0.11377,-9.3125,8.125,-11.4375,0.468567,-1.25137,-3.00005
4535,3,-2,0,0,-1,-1,-7,-5,0.994141,0.183105,0.11377,-9.3125,8.125,-11.4375,0.468567,-1.25137,-3.00005
4536,-6,-3,-4,0,-3,-2,1,-8,1.08105,0.161621,0.152344,-15,6.3125,-15.75,0.480661,-1.2505,-3.01774
4536,3,8,2,-1,0,-3,-5,-2,1.08105,0.161621,0.152344,-15,6.3125,-15.75,0.480661,-1.2505,-3.01774
4548,-12,-3,21,-2,-2,-1,-5,-5,1.08105,0.161621,0.152344,-15,6.3125,-15.75,0.480661,-1.2505,-3.01774
4548,10,3,-29,-2,0,0,10,7,1.08105,0.161621,0.152344,-15,6.3125,-15.75,0.480661,-1.2505,-3.01774
4565,-7,-1,-3,-1,0,-1,3,-3,1.14502,0.175293,0.132812,-24.1875,6.375,-14.8125,0.489955,-1.25016,-3.03568
4565,-2,-11,-7,-2,-1,-1,-5,10,1.14502,0.175293,0.132812,-24.1875,6.375,-14.8125,0.489955,-1.25016,-3.03568
4571,-5,1,2,0,-2,1,0,-2,1.14502,0.175293,0.132812,-24.1875,6.375,-14.8125,0.489955,-1.25016,-3.03568
4571,8,4,14,1,-1,0,2,1,1.14502,0.175293,0.132812,-24.1875,6.375,-14.8125,0.489955,-1.25016,-3.03568
4578,-1,1,6,-1,-2,-3,-2,1,1.18457,0.214844,0.110352,-32,5.5625,-13.1875,0.49843,-1.25104,-3.05516
4578,7,-6,-15,0,2,1,0,0,1.18457,0.214844,0.110352,-32,5.5625,-13.1875,0.49843,-1.25104,-3.05516
4594,0,-1,-5,0,-2,0,0,-1,1.18457,0.214844,0.110352,-32,5.5625,-13.1875,0.49843,-1.25104,-3.05516
4594,-14,13,17,-2,-2,-1,0,-1,1.18457,0.214844,0.110352,-32,5.5625,-13.1875,0.49843,-1.25104,-3.05516
4596,6,-12,-31,-3,-1,0,3,8,1.17334,0.21875,0.106934,-37.375,3.75,-12.3125,0.505979,-1.25208,-3.07575
4596,15,7,8,0,0,1,3,11,1.17334,0.21875,0.106934,-37.375,3.75,-12.3125,0.505979,-1.25208,-3.07575
4608,-12,-5,-8,1,1,0,-3,-4,1.17334,0.21875,0.106934,-37.375,3.75,-12.3125,0.505979,-1.25208,-3.07575
4608,-1,-3,1,-4,-2,-3,-2,-14,1.17334,0.21875,0.106934,-37.375,3.75,-12.3125,0.505979,-1.25208,-3.07575
4617,-12,0,15,0,-2,-2,-3,-10,1.18262,0.223145,0.116699,-35.625,-0.4375,-11.6875,0.515194,-1.25447,-3.09731
4617,0,19,-6,-6,-3,-1,-3,-2,1.18262,0.223145,0.116699,-35.625,-0.4375,-11.6875,0.515194,-1.25447,-3.09731
4631,-2,-5,6,3,2,-1,4,6,1.18262,0.223145,0.116699,-35.625,-0.4375,-11.6875,0.515194,-1.25447,-3.09731
4631,-1,2,3,0,0,1,2,15,1.18262,0.223145,0.116699,-35.625,-0.4375,-11.6875,0.515194,-1.25447,-3.09731
4638,5,5,11,2,1,1,1,-9,1.17188,0.213867,0.126953,-32.1875,-1.4375,-8.0625,0.521707,-1.25731,-3.11518
4638,-5,-5,-10,-3,-1,-2,-4,-8,1.17188,0.213867,0.126953,-32.1875,-1.4375,-8.0625,0.521707,-1.25731,-3.11518
4654,-6,5,2,-5,-3,-3,-1,-7,1.17188,0.213867,0.126953,-32.1875,-1.4375,-8.0625,0.521707,-1.25731,-3.11518
4654,13,7,4,4,3,4,5,13,1.17188,0.213867,0.126953,-32.1875,-1.4375,-8.0625,0.521707,-1.25731,-3.11518
4655,-2,4,-5,0,-1,-1,-4,-10,1.15283,0.191895,0.137207,-25.1875,-6,-5.5625,0.529086,-1.26186,-3.1312
4655,-1,-1,2,0,-4,-3,-3,-6,1.15283,0.191895,0.137207,-25.1875,-6,-5.5625,0.529086,-1.26186,-3.1312
4668,-6,1,4,-3,-2,-5,-15,-4,1.15283,0.191895,0.137207,-25.1875,-6,-5.5625,0.529086,-1.26186,-3.1312
4668,5,-2,-1,-1,0,2,1,6,1.15283,0.191895,0.137207,-25.1875,-6,-5.5625,0.529086,-1.26186,-3.1312
4677,9,5,-2,-1,0,2,5,8,1.18652,0.180176,0.128418,-20.5,-4.1875,-1.25,0.532541,-1.26671,3.14141
4677,-19,-12,1,-1,-1,-4,-9,-31,1.18652,0.180176,0.128418,-20.5,-4.1875,-1.25,0.532541,-1.26671,3.14141
4691,-5,-6,-6,-1,-1,1,-2,-5,1.18652,0.180176,0.128418,-20.5,-4.1875,-1.25,0.532541,-1.26671,3.14141
4691,-1,5,-2,0,0,-1,0,0,1.18652,0.180176,0.128418,-20.5,-4.1875,-1.25,0.532541,-1.26671,3.14141
4697,-3,0,-2,-2,-2,-1,-6,4,1.17285,0.124512,0.186035,-17.9375,-2.5,3.5625,0.525696,-1.27161,-3.14086
4697,5,-3,2,-1,-2,1,5,5,1.17285,0.124512,0.186035,-17.9375,-2.5,3.5625,0.525696,-1.27161,-3.14086
4715,-1,15,50,1,-4,-1,5,2,1.17285,0.124512,0.186035,-17.9375,-2.5,3.5625,0.525696,-1.27161,-3.14086
4715,-11,0,22,-6,-5,-4,-3,-10,1.17285,0.124512,0.186035,-17.9375,-2.5,3.5625,0.525696,-1.27161,-3.14086
4716,8,-14,-25,4,-1,2,3,3,1.19727,0.124512,0.25293,-9.5625,0.6875,3.8125,0.516822,-1.27385,-3.13535
4716,-5,-7,19,1,-2,0,-2,2,1.19727,0.124512,0.25293,-9.5625,0.6875,3.8125,0.516822,-1.27385,-3.13535
4737,11,-6,-30,1,-4,-2,0,3,1.19727,0.124512,0.25293,-9.5625,0.6875,3.8125,0.516822,-1.27385,-3.13535
4737,-35,-8,14,3,-1,-2,-8,-14,1.19727,0.124512,0.25293,-9.5625,0.6875,3.8125,0.516822,-1.27385,-3.13535
4742,-12,4,13,-4,-3,-5,-4,-5,1.15137,0.206543,0.190918,11.625,2.0625,3.25,0.523486,-1.27581,-3.13742
4742,5,-4,-12,-3,-2,-1,0,5,1.15137,0.206543,0.190918,11.625,2.0625,3.25,0.523486,-1.27581,-3.13742
4751,-13,21,5,-2,-1,-1,-2,-3,1.15137,0.206543,0.190918,11.625,2.0625,3.25,0.523486,-1.27581,-3.13742
4751,46,10,4,1,0,0,8,13,1.15137,0.206543,0.190918,11.625,2.0625,3.25,0.523486,-1.27581,-3.13742
4757,-40,-48,-47,-11,-6,-3,-5,-18,1.10938,0.272461,0.25293,-1.125,6.5625,4.25,0.524152,-1.27425,-3.1377
4757,-4,-44,-13,1,1,2,-7,-2,1.10938,0.272461,0.25293,-1.125,6.5625,4.25,0.524152,-1.27425,-3.1377
4775,11,34,-7,-1,3,4,14,-1,1.10938,0.272461,0.25293,-1.125,6.5625,4.25,0.524152,-1.27425,-3.1377
4775,24,-4,-5,1,-2,2,25,19,1.10938,0.272461,0.25293,-1.125,6.5625,4.25,0.524152,-1.27425,-3.1377
4776,-2,2,2,0,6,-1,-7,20,1.06738,0.172363,0.32666,-17.8125,4.5,4.3125,0.51042,-1.2726,-3.12998
4776,-2,28,19,4,1,3,3,-7,1.06738,0.172363,0.32666,-17.8125,4.5,4.3125,0.51042,-1.2726,-3.12998
4796,-32,-40,-13,-5,-4,-6,-14,-24,1.06738,0.172363,0.32666,-17.8125,4.5,4.3125,0.51042,-1.2726,-3.12998
4796,-27,3,-21,-4,-5,-7,-8,-35,1.06738,0.172363,0.32666,-17.8125,4.5,4.3125,0.51042,-1.2726,-3.12998
4803,28,23,27,3,-2,-1,3,5,1.08838,0.116211,0.310059,-27.25,1.0625,1.5,0.494903,-1.27263,-3.12406
4803,10,2,1,-1,1,2,13,42,1.08838,0.116211,0.310059,-27.25,1.0625,1.5,0.494903,-1.27263,-3.12406
4811,30,-7,-13,-4,-2,1,7,46,1.08838,0.116211,0.310059,-27.25,1.0625,1.5,0.494903,-1.27263,-3.12406
4811,-3,-1,-8,4,7,4,-8,13,1.08838,0.116211,0.310059,-27.25,1.0625,1.5,0.494903,-1.27263,-3.12406
4819,-25,-2,10,-2,-5,-5,-13,-51,1.10107,0.147461,0.327148,-30.4375,0.8125,-9,0.490868,-1.27042,-3.13101
4819,45,13,7,5,0,4,11,44,1.10107,0.147461,0.327148,-30.4375,0.8125,-9,0.490868,-1.27042,-3.13101
4841,10,6,-1,13,10,11,27,28,1.10107,0.147461,0.327148,-30.4375,0.8125,-9,0.490868,-1.27042,-3.13101
4841,-60,-23,-15,-16,-17,-20,-54,-30,1.10107,0.147461,0.327148,-30.4375,0.8125,-9,0.490868,-1.27042,-3.13101
4844,28,-6,3,0,2,-4,-16,92,1.04102,0.0444336,0.3125,-54.8125,2.125,-11.875,0.474008,-1.26858,-3.13421
4844,-43,4,-1,8,9,10,7,-127,1.04102,0.0444336,0.3125,-54.8125,2.125,-11.875,0.474008,-1.26858,-3.13421
4856,18,-6,-6,-1,-2,-1,8,60,1.04102,0.0444336,0.3125,-54.8125,2.125,-11.875,0.474008,-1.26858,-3.13421
4856,-31,-7,-3,-8,-8,-7,-4,-99,1.04102,0.0444336,0.3125,-54.8125,2.125,-11.875,0.474008,-1.26858,-3.13421
4864,0,9,-9,-1,2,13,12,6,0.959961,-0.0717773,0.359375,-37.6875,4.0625,-2.375,0.443079,-1.26708,-3.11725
4864,32,-5,-7,-8,-9,-7,0,110,0.959961,-0.0717773,0.359375,-37.6875,4.0625,-2.375,0.443079,-1.26708,-3.11725
4870,15,0,11,7,10,-9,-62,-18,0.959961,-0.0717773,0.359375,-37.6875,4.0625,-2.375,0.443079,-1.26708,-3.11725
4870,-68,-13,-21,1,4,21,53,13,0.959961,-0.0717773,0.359375,-37.6875,4.0625,-2.375,0.443079,-1.26708,-3.11725
4879,-99,-14,-13,-19,-26,-53,-97,-115,0.84668,-0.138672,0.42041,3.4375,5.1875,-3.0625,0.420341,-1.26365,-3.0945
4879,82,16,2,0,-2,-7,15,74,0.84668,-0.138672,0.42041,3.4375,5.1875,-3.0625,0.420341,-1.26365,-3.0945
4895,-26,1,6,5,6,9,-4,-26,0.84668,-0.138672,0.42041,3.4375,5.1875,-3.0625,0.420341,-1.26365,-3.0945
4895,80,17,12,12,16,24,4,17,0.84668,-0.138672,0.42041,3.4375,5.1875,-3.0625,0.420341,-1.26365,-3.0945
4896,32,-2,3,2,2,15,29,68,0.887695,-0.097168,0.352539,24,4.625,-1.6875,0.409939,-1.26176,-3.07655
4896,9,-4,-4,-12,-16,-8,4,29,0.887695,-0.097168,0.352539,24,4.625,-1.6875,0.409939,-1.26176,-3.07655
4917,67,12,7,12,18,34,42,-8,0.887695,-0.097168,0.352539,24,4.625,-1.6875,0.409939,-1.26176,-3.07655
4917,-58,-29,-17,-14,-21,-40,-56,-68,0.887695,-0.097168,0.352539,24,4.625,-1.6875,0.409939,-1.26176,-3.07655
4918,46,11,7,4,0,-2,16,18,0.745117,-0.240234,0.527832,30.5,16.25,13.8125,0.366788,-1.25487,-3.0234
4918,3,-2,-1,3,7,14,8,-26,0.745117,-0.240234,0.527832,30.5,16.25,13.8125,0.366788,-1.25487,-3.0234
4931,-22,-20,-20,-11,-7,5,36,5,0.745117,-0.240234,0.527832,30.5,16.25,13.8125,0.366788,-1.25487,-3.0234
4931,52,9,1,-1,-8,-27,-43,45,0.745117,-0.240234,0.527832,30.5,16.25,13.8125,0.366788,-1.25487,-3.0234
4939,28,26,59,2,0,-4,1,-24,0.636719,-0.217285,0.500977,43.125,16,31.625,0.315837,-1.24909,-2.95683
4939,-60,-30,-37,-10,-1,-11,-23,-29,0.636719,-0.217285,0.500977,43.125,16,31.625,0.315837,-1.24909,-2.95683
4955,20,23,52,4,6,25,32,-10,0.636719,-0.217285,0.500977,43.125,16,31.625,0.315837,-1.24909,-2.95683
4955,-34,-45,-104,5,1,2,8,3,0.636719,-0.217285,0.500977,43.125,16,31.625,0.315837,-1.24909,-2.95683
4956,7,-7,-23,10,12,12,9,6,0.915039,-0.15625,0.437012,119.5,-6.0625,31.375,0.322785,-1.25437,-2.92083
4956,4,2,11,2,6,20,24,-5,0.915039,-0.15625,0.437012,119.5,-6.0625,31.375,0.322785,-1.25437,-2.92083
4977,6,-3,6,-14,-24,-38,-28,-25,0.915039,-0.15625,0.437012,119.5,-6.0625,31.375,0.322785,-1.25437,-2.92083
4977,-7,9,56,-7,-5,10,8,0,0.915039,-0.15625,0.437012,119.5,-6.0625,31.375,0.322785,-1.25437,-2.92083
4979,53,30,82,-15,-14,-13,0,54,1.34717,0.405273,0.286133,144.188,-29.6875,7.125,0.382137,-1.26497,-2.92967
4979,-58,-35,-79,6,5,-2,-25,-79,1.34717,0.405273,0.286133,144.188,-29.6875,7.125,0.382137,-1.26497,-2.92967
4990,-68,-5,-2,0,3,-9,-37,-47,1.34717,0.405273,0.286133,144.188,-29.6875,7.125,0.382137,-1.26497,-2.92967
4990,17,17,46,1,-4,-2,14,48,1.34717,0.405273,0.286133,144.188,-29.6875,7.125,0.382137,-1.26497,-2.92967
5000,8,-11,-19,10,11,25,42,6,1.3999,0.48584,0.342285,86.9375,-28.3125,-7.25,0.456704,-1.27115,-2.97371
5000,-5,46,127,-20,-17,-12,-6,17,1.3999,0.48584,0.342285,86.9375,-28.3125,-7.25,0.456704,-1.27115,-2.97371
5015,5,-34,-121,-7,-13,-21,-26,12,1.3999,0.48584,0.342285,86.9375,-28.3125,-7.25,0.456704,-1.27115,-2.97371
5015,2,24,85,26,16,14,29,4,1.3999,0.48584,0.342285,86.9375,-28.3125,-7.25,0.456704,-1.27115,-2.97371
5016,-44,-42,-58,5,3,8,12,-21,1.48535,0.31543,0.1875,13.25,-16.25,24.3125,0.461746,-1.28296,-2.97266
5016,2,-1,17,7,-1,2,1,-11,1.48535,0.31543,0.1875,13.25,-16.25,24.3125,0.461746,-1.28296,-2.97266
5037,16,9,36,-9,-2,-7,17,42,1.48535,0.31543,0.1875,13.25,-16.25,24.3125,0.461746,-1.28296,-2.97266
5037,21,10,-21,-22,-1,-20,-60,-12,1.48535,0.31543,0.1875,13.25,-16.25,24.3125,0.461746,-1.28296,-2.97266
5038,2,7,-7,2,0,19,20,-11,1.49121,0.0341797,0.161133,-19.75,-1.375,32.75,0.417192,-1.29471,-2.93359
5038,-17,22,59,17,5,-14,-25,-10,1.49121,0.0341797,0.161133,-19.75,-1.375,32.75,0.417192,-1.29471,-2.93359
5051,15,-27,-82,-12,-10,-8,-9,36,1.49121,0.0341797,0.161133,-19.75,-1.375,32.75,0.417192,-1.29471,-2.93359
5051,10,55,97,-11,3,19,36,13,1.49121,0.0341797,0.161133,-19.75,-1.375,32.75,0.417192,-1.29471,-2.93359
5060,-26,-66,-104,-7,6,-5,-30,-13,1.25,-0.219727,0.239746,-10.6875,5.1875,40.375,0.33837,-1.30294,-2.85768
5060,42,14,4,12,1,6,7,15,1.25,-0.219727,0.239746,-10.6875,5.1875,40.375,0.33837,-1.30294,-2.85768
5075,-9,22,115,38,8,16,42,-15,1.25,-0.219727,0.239746,-10.6875,5.1875,40.375,0.33837,-1.30294,-2.85768
5075,92,-16,-51,14,13,-2,-26,45,1.25,-0.219727,0.239746,-10.6875,5.1875,40.375,0.33837,-1.30294,-2.85768
5076,-2,3,-7,-15,-11,-17,4,-6,0.95459,-0.0825195,0.164551,33.4375,-18.5625,35,0.302284,-1.31578,-2.80908
5076,40,8,-45,-32,-12,-12,-28,-5,0.95459,-0.0825195,0.164551,33.4375,-18.5625,35,0.302284,-1.31578,-2.80908
5097,1,30,74,-17,-6,1,33,9,0.95459,-0.0825195,0.164551,33.4375,-18.5625,35,0.302284,-1.31578,-2.80908
5097,-18,-76,-101,11,7,-3,-55,-10,0.95459,-0.0825195,0.164551,33.4375,-18.5625,35,0.302284,-1.31578,-2.80908
5098,1,37,127,25,14,14,17,18,1.18311,0.204102,0.162109,-0.5625,-21.6875,9.125,0.313748,-1.32566,-2.8202
5098,-29,-45,-98,9,4,17,40,7,1.18311,0.204102,0.162109,-0.5625,-21.6875,9.125,0.313748,-1.32566,-2.8202
5111,-16,3,0,-19,-21,-21,-28,21,1.18311,0.204102,0.162109,-0.5625,-21.6875,9.125,0.313748,-1.32566,-2.8202
5111,-10,-4,-5,-23,-13,-3,-11,-25,1.18311,0.204102,0.162109,-0.5625,-21.6875,9.125,0.313748,-1.32566,-2.8202
5119,4,-23,-61,-38,-9,23,34,-2,1.23096,0.227539,-0.120605,-58.0625,-18,10.0625,0.314085,-1.34107,-2.83987
5119,-21,6,43,18,3,-28,-28,6,1.23096,0.227539,-0.120605,-58.0625,-18,10.0625,0.314085,-1.34107,-2.83987
5142,-1,4,-21,14,15,8,-41,11,1.23096,0.227539,-0.120605,-58.0625,-18,10.0625,0.314085,-1.34107,-2.83987
5142,-51,10,-2,22,8,-6,33,-7,1.23096,0.227539,-0.120605,-58.0625,-18,10.0625,0.314085,-1.34107,-2.83987
5144,-13,14,13,19,2,-15,-33,-8,1.49414,0.327148,-0.27832,-64.125,-3.125,7.5,0.325987,-1.35498,-2.8727
5144,-25,3,10,-37,-25,8,30,-2,1.49414,0.327148,-0.27832,-64.125,-3.125,7.5,0.325987,-1.35498,-2.8727
5157,-41,-36,-50,-42,-17,-5,-17,-37,1.49414,0.327148,-0.27832,-64.125,-3.125,7.5,0.325987,-1.35498,-2.8727
5157,-2,-8,-53,10,6,8,33,45,1.49414,0.327148,-0.27832,-64.125,-3.125,7.5,0.325987,-1.35498,-2.8727
5159,22,43,102,3,4,-2,-9,26,1.35889,0.575684,-0.263672,-37.875,23.6875,16.3125,0.348137,-1.35764,-2.90552
5159,0,-14,-7,44,20,3,-12,-40,1.35889,0.575684,-0.263672,-37.875,23.6875,16.3125,0.348137,-1.35764,-2.90552
5170,-28,-16,-17,13,1,5,3,-45,1.35889,0.575684,-0.263672,-37.875,23.6875,16.3125,0.348137,-1.35764,-2.90552
5170,14,6,16,-15,6,4,18,41,1.35889,0.575684,-0.263672,-37.875,23.6875,16.3125,0.348137,-1.35764,-2.90552
5180,-26,3,-26,-22,-7,-6,-25,8,1.32275,0.710938,-0.145996,-34.1875,45.1875,21.125,0.362229,-1.34989,-2.92823
5180,-38,-11,-10,-49,-36,-14,-22,-43,1.32275,0.710938,-0.145996,-34.1875,45.1875,21.125,0.362229,-1.34989,-2.92823
5195,15,-3,-22,-12,-11,-14,-12,17,1.32275,0.710938,-0.145996,-34.1875,45.1875,21.125,0.362229,-1.34989,-2.92823
5195,-7,16,53,49,31,27,37,25,1.32275,0.710938,-0.145996,-34.1875,45.1875,21.125,0.362229,-1.34989,-2.92823
5196,5,-1,10,72,38,11,28,-52,1.22998,0.415039,0.0336914,-44.5,68.75,19.9375,0.325711,-1.33255,-2.90457
5196,26,8,6,-8,6,-14,-27,43,1.22998,0.415039,0.0336914,-44.5,68.75,19.9375,0.325711,-1.33255,-2.90457
5217,-28,-2,-10,16,0,1,6,-14,1.22998,0.415039,0.0336914,-44.5,68.75,19.9375,0.325711,-1.33255,-2.90457
5217,16,6,12,-29,-28,0,24,-15,1.22998,0.415039,0.0336914,-44.5,68.75,19.9375,0.325711,-1.33255,-2.90457
5218,6,-1,12,-45,-38,-15,-24,14,1.06152,-0.0209961,0.28125,-23.875,79.5,29.5,0.239581,-1.30934,-2.8248
5218,-14,-26,-47,-11,12,-10,-4,-32,1.06152,-0.0209961,0.28125,-23.875,79.5,29.5,0.239581,-1.30934,-2.8248
5230,-13,5,1,-20,-12,-12,-19,-67,1.06152,-0.0209961,0.28125,-23.875,79.5,29.5,0.239581,-1.30934,-2.8248
5230,11,-7,-32,-23,-6,1,-3,-18,1.06152,-0.0209961,0.28125,-23.875,79.5,29.5,0.239581,-1.30934,-2.8248
5240,-14,9,14,9,-6,-6,0,14,0.934082,-0.207031,0.464355,24.8125,75.625,31.5625,0.165321,-1.28253,-2.74076
5240,-16,13,-12,24,16,20,25,11,0.934082,-0.207031,0.464355,24.8125,75.625,31.5625,0.165321,-1.28253,-2.74076
5255,23,-12,49,33,29,15,9,24,0.934082,-0.207031,0.464355,24.8125,75.625,31.5625,0.165321,-1.28253,-2.74076
5255,7,-2,-9,-26,-19,-26,-36,-20,0.934082,-0.207031,0.464355,24.8125,75.625,31.5625,0.165321,-1.28253,-2.74076
5268,-11,-11,-51,-19,-25,0,20,-3,0.892578,-0.142578,0.470703,43.5625,72.8125,24.5,0.124986,-1.25505,-2.6841
5268,-19,-22,17,19,12,9,-2,-29,0.892578,-0.142578,0.470703,43.5625,72.8125,24.5,0.124986,-1.25505,-2.6841
5277,10,-8,25,46,40,5,2,53,0.892578,-0.142578,0.470703,43.5625,72.8125,24.5,0.124986,-1.25505,-2.6841
5277,-28,-13,32,40,-1,0,10,-2,0.892578,-0.142578,0.470703,43.5625,72.8125,24.5,0.124986,-1.25505,-2.6841
5278,-11,-25,-12,-54,-20,-2,1,19,0.896973,-0.105957,0.459473,5.75,72.0625,14.375,0.0928858,-1.22751,-2.64932
5278,-10,-26,-17,-14,-7,25,35,-13,0.896973,-0.105957,0.459473,5.75,72.0625,14.375,0.0928858,-1.22751,-2.64932
5299,-40,-24,-30,-9,-7,-20,-65,11,0.896973,-0.105957,0.459473,5.75,72.0625,14.375,0.0928858,-1.22751,-2.64932
5299,-12,8,9,-19,-6,-17,-7,-25,0.896973,-0.105957,0.459473,5.75,72.0625,14.375,0.0928858,-1.22751,-2.64932
5300,29,11,-14,18,-10,-8,1,8,0.868164,-0.207031,0.44873,-15.4375,66.0625,13.125,0.0540706,-1.20258,-2.61571
5300,8,21,3,-3,1,-2,2,21,0.868164,-0.207031,0.44873,-15.4375,66.0625,13.125,0.0540706,-1.20258,-2.61571
5314,31,21,11,-1,1,14,17,-37,0.868164,-0.207031,0.44873,-15.4375,66.0625,13.125,0.0540706,-1.20258,-2.61571
5314,6,26,27,0,0,-2,7,16,0.868164,-0.207031,0.44873,-15.4375,66.0625,13.125,0.0540706,-1.20258,-2.61571
5316,-1,0,-41,-8,6,6,27,-2,0.856445,-0.120605,0.463379,-5.875,63.6875,8.75,0.0330484,-1.17807,-2.59668
5316,30,9,19,19,-2,-11,-20,-4,0.856445,-0.120605,0.463379,-5.875,63.6875,8.75,0.0330484,-1.17807,-2.59668
5337,-8,-26,-66,-79,-38,2,-1,-9,0.856445,-0.120605,0.463379,-5.875,63.6875,8.75,0.0330484,-1.17807,-2.59668
5337,26,18,7,42,29,-6,-5,9,0.856445,-0.120605,0.463379,-5.875,63.6875,8.75,0.0330484,-1.17807,-2.59668
5339,39,15,69,100,59,12,4,78,0.784668,0.0546875,0.422852,-13.875,64.5,-7.25,0.0348403,-1.15383,-2.60347
5339,-23,20,39,32,4,10,6,-63,0.784668,0.0546875,0.422852,-13.875,64.5,-7.25,0.0348403,-1.15383,-2.60347
5351,-18,34,6,-23,-20,-8,15,29,0.784668,0.0546875,0.422852,-13.875,64.5,-7.25,0.0348403,-1.15383,-2.60347
5351,-18,-19,-40,-43,-31,-15,-46,-66,0.784668,0.0546875,0.422852,-13.875,64.5,-7.25,0.0348403,-1.15383,-2.60347
5359,-22,-10,-34,-68,-23,-12,-3,-5,0.806152,-0.0175781,0.435059,-36.875,64.875,-11.8125,0.0277,-1.12978,-2.60992
5359,8,6,-16,-34,-11,-6,4,5,0.806152,-0.0175781,0.435059,-36.875,64.875,-11.8125,0.0277,-1.12978,-2.60992
5374,16,2,5,12,7,7,7,10,0.806152,-0.0175781,0.435059,-36.875,64.875,-11.8125,0.0277,-1.12978,-2.60992
5374,-5,5,16,-8,-14,7,10,-13,0.806152,-0.0175781,0.435059,-36.875,64.875,-11.8125,0.0277,-1.12978,-2.60992
5376,3,25,52,40,27,-1,30,-2,0.81543,-0.0942383,0.490234,-35.5625,67,-8.125,0.0143656,-1.10464,-2.61019
5376,0,-26,-78,31,33,-14,-49,-1,0.81543,-0.0942383,0.490234,-35.5625,67,-8.125,0.0143656,-1.10464,-2.61019
5397,20,25,46,-17,-27,-4,14,-10,0.81543,-0.0942383,0.490234,-35.5625,67,-8.125,0.0143656,-1.10464,-2.61019
5397,11,-26,-80,-28,-3,11,14,10,0.81543,-0.0942383,0.490234,-35.5625,67,-8.125,0.0143656,-1.10464,-2.61019
5399,15,-3,26,15,-4,11,27,7,0.731934,-0.0664062,0.479004,-31.6875,68.375,-16.125,0.00985782,-1.07879,-2.61851
5399,45,17,48,-13,-18,-12,-31,5,0.731934,-0.0664062,0.479004,-31.6875,68.375,-16.125,0.00985782,-1.07879,-2.61851
5410,23,7,20,28,21,2,-10,-35,0.731934,-0.0664062,0.479004,-31.6875,68.375,-16.125,0.00985782,-1.07879,-2.61851
5410,-24,-4,2,-9,-12,-6,13,10,0.731934,-0.0664062,0.479004,-31.6875,68.375,-16.125,0.00985782,-1.07879,-2.61851
5427,24,53,76,11,14,-1,-17,-37,0.671875,-0.0512695,0.48291,-42.5,66.625,-22.625,0.00625693,-1.05344,-2.632
5427,-7,-63,-100,-8,4,7,7,41,0.671875,-0.0512695,0.48291,-42.5,66.625,-22.625,0.00625693,-1.05344,-2.632
5434,2,-8,2,-8,-5,3,13,0,0.671875,-0.0512695,0.48291,-42.5,66.625,-22.625,0.00625693,-1.05344,-2.632
5434,5,-10,-29,-28,-22,-4,-9,15,0.671875,-0.0512695,0.48291,-42.5,66.625,-22.625,0.00625693,-1.05344,-2.632
5441,-10,-20,-62,-32,-16,2,-20,-63,0.691406,-0.0683594,0.536621,-42.75,65.8125,-20.75,0.000288107,-1.02779,-2.64331
5441,7,41,102,48,34,-2,26,61,0.691406,-0.0683594,0.536621,-42.75,65.8125,-20.75,0.000288107,-1.02779,-2.64331
5456,14,26,97,81,47,8,-7,10,0.691406,-0.0683594,0.536621,-42.75,65.8125,-20.75,0.000288107,-1.02779,-2.64331
5456,-20,-40,-61,-8,-6,9,15,8,0.691406,-0.0683594,0.536621,-42.75,65.8125,-20.75,0.000288107,-1.02779,-2.64331
5458,-12,-24,-70,-87,-52,-17,-31,-4,0.682129,-0.046875,0.564941,-33.6875,66.75,-21.75,-0.00125242,-1.0019,-2.65605
5458,2,5,-35,-23,-19,2,12,-6,0.682129,-0.046875,0.564941,-33.6875,66.75,-21.75,-0.00125242,-1.0019,-2.65605
5471,-36,-4,4,-8,1,0,4,-22,0.682129,-0.046875,0.564941,-33.6875,66.75,-21.75,-0.00125242,-1.0019,-2.65605
5471,40,24,68,14,9,6,42,68,0.682129,-0.046875,0.564941,-33.6875,66.75,-21.75,-0.00125242,-1.0019,-2.65605
5479,-25,-29,-59,26,10,-16,-55,-58,0.597168,0.0234375,0.535645,-25.75,70.25,-22.9375,0.002734,-0.974744,-2.67132
5479,12,9,34,35,23,4,15,49,0.597168,0.0234375,0.535645,-25.75,70.25,-22.9375,0.002734,-0.974744,-2.67132
5494,-17,-15,-7,32,6,-15,-57,-39,0.597168,0.0234375,0.535645,-25.75,70.25,-22.9375,0.002734,-0.974744,-2.67132
5494,15,16,22,-7,-7,1,15,-6,0.597168,0.0234375,0.535645,-25.75,70.25,-22.9375,0.002734,-0.974744,-2.67132
5500,2,-18,-57,-33,-22,6,2,-8,0.552246,-0.0126953,0.562012,-23.6875,71.1875,-22.875,0.00517776,-0.946438,-2.68438
5500,-8,1,-3,-26,-24,3,20,12,0.552246,-0.0126953,0.562012,-23.6875,71.1875,-22.875,0.00517776,-0.946438,-2.68438
5517,16,-15,-52,-4,1,-15,-4,23,0.552246,-0.0126953,0.562012,-23.6875,71.1875,-22.875,0.00517776,-0.946438,-2.68438
5517,5,5,17,31,25,6,-6,-36,0.552246,-0.0126953,0.562012,-23.6875,71.1875,-22.875,0.00517776,-0.946438,-2.68438
5525,0,-2,-3,-46,-21,-8,-21,-25,0.614746,0.00244141,0.560547,-19.25,69.5,-19.75,0.00736952,-0.920431,-2.69564
5525,-2,12,46,-14,-22,-16,-17,-13,0.614746,0.00244141,0.560547,-19.25,69.5,-19.75,0.00736952,-0.920431,-2.69564
5531,9,-18,-69,-18,8,25,33,48,0.614746,0.00244141,0.560547,-19.25,69.5,-19.75,0.00736952,-0.920431,-2.69564
5531,-18,8,20,-19,-9,-9,-14,-59,0.614746,0.00244141,0.560547,-19.25,69.5,-19.75,0.00736952,-0.920431,-2.69564
5539,15,-3,13,74,36,-5,-2,26,0.557617,0.0561523,0.615234,-15.0625,69.8125,-19.3125,0.0124261,-0.892745,-2.70773
5539,-5,14,60,-32,-8,2,-5,1,0.557617,0.0561523,0.615234,-15.0625,69.8125,-19.3125,0.0124261,-0.892745,-2.70773
5553,40,0,-34,3,-23,-2,15,-24,0.557617,0.0561523,0.615234,-15.0625,69.8125,-19.3125,0.0124261,-0.892745,-2.70773
5553,-24,-15,1,8,16,-2,-15,7,0.557617,0.0561523,0.615234,-15.0625,69.8125,-19.3125,0.0124261,-0.892745,-2.70773
5561,-8,3,24,21,14,5,23,32,0.457031,0.0239258,0.626465,-15.75,71.0625,-22.0625,0.016456,-0.86334,-2.7197
5561,0,0,-27,-44,-39,-13,-15,2,0.457031,0.0239258,0.626465,-15.75,71.0625,-22.0625,0.016456,-0.86334,-2.7197
5577,-35,-14,-43,-59,-28,-13,5,-4,0.457031,0.0239258,0.626465,-15.75,71.0625,-22.0625,0.016456,-0.86334,-2.7197
5577,24,7,13,44,45,3,-19,26,0.457031,0.0239258,0.626465,-15.75,71.0625,-22.0625,0.016456,-0.86334,-2.7197
5578,3,1,16,9,-7,3,15,-1,0.49707,-0.0322266,0.644043,-14.5,68.8125,-17.5,0.0162501,-0.835737,-2.72716
5578,-16,-9,-40,7,9,10,-1,30,0.49707,-0.0322266,0.644043,-14.5,68.8125,-17.5,0.0162501,-0.835737,-2.72716
5591,-9,13,51,8,-1,-7,-11,-28,0.49707,-0.0322266,0.644043,-14.5,68.8125,-17.5,0.0162501,-0.835737,-2.72716
5591,20,-6,-34,-27,-25,7,17,12,0.49707,-0.0322266,0.644043,-14.5,68.8125,-17.5,0.0162501,-0.835737,-2.72716
5600,-21,-5,-18,7,18,-11,-20,0,0.505859,-0.0522461,0.657227,-7.25,65.4375,-12.8125,0.0159368,-0.809653,-2.73163
5600,-9,9,43,35,4,10,13,-70,0.505859,-0.0522461,0.657227,-7.25,65.4375,-12.8125,0.0159368,-0.809653,-2.73163
5614,-28,-10,-11,-7,3,-5,0,6,0.505859,-0.0522461,0.657227,-7.25,65.4375,-12.8125,0.0159368,-0.809653,-2.73163
5614,0,11,18,-8,-16,4,-9,-23,0.505859,-0.0522461,0.657227,-7.25,65.4375,-12.8125,0.0159368,-0.809653,-2.73163
5621,12,1,-5,-29,-4,-9,1,37,0.48877,0.00146484,0.628418,-2.625,64.8125,-18.875,0.0209326,-0.784456,-2.7401
5621,6,-6,-11,10,-1,-11,-8,-20,0.48877,0.00146484,0.628418,-2.625,64.8125,-18.875,0.0209326,-0.784456,-2.7401
5637,14,-1,-3,-6,0,10,6,-30,0.48877,0.00146484,0.628418,-2.625,64.8125,-18.875,0.0209326,-0.784456,-2.7401
5637,-42,-2,36,11,4,-10,-6,35,0.48877,0.00146484,0.628418,-2.625,64.8125,-18.875,0.0209326,-0.784456,-2.7401
5638,1,-6,8,19,4,-4,2,6,0.436523,-0.0395508,0.637695,-8.5,63.375,-19.0625,0.0221017,-0.759332,-2.74737
5638,4,0,-8,-61,-40,-7,4,-9,0.436523,-0.0395508,0.637695,-8.5,63.375,-19.0625,0.0221017,-0.759332,-2.74737
5659,21,2,-22,68,49,16,44,13,0.436523,-0.0395508,0.637695,-8.5,63.375,-19.0625,0.0221017,-0.759332,-2.74737
5659,-18,6,65,62,29,-6,-41,19,0.436523,-0.0395508,0.637695,-8.5,63.375,-19.0625,0.0221017,-0.759332,-2.74737
5661,-2,12,6,3,-11,16,9,8,0.480469,-0.0751953,0.643066,-11.4375,60.6875,-13.3125,0.0191028,-0.736226,-2.75112
5661,-3,-29,-48,-67,-37,-13,3,-8,0.480469,-0.0751953,0.643066,-11.4375,60.6875,-13.3125,0.0191028,-0.736226,-2.75112
5673,15,-9,-33,-97,-61,-41,-22,58,0.480469,-0.0751953,0.643066,-11.4375,60.6875,-13.3125,0.0191028,-0.736226,-2.75112
5673,-22,3,13,58,55,7,-4,-48,0.480469,-0.0751953,0.643066,-11.4375,60.6875,-13.3125,0.0191028,-0.736226,-2.75112
5682,17,27,67,82,48,31,23,4,0.428223,-0.0161133,0.617188,-7.1875,61.3125,-12.8125,0.0193216,-0.712714,-2.7559
5682,-27,3,-20,19,14,4,4,30,0.428223,-0.0161133,0.617188,-7.1875,61.3125,-12.8125,0.0193216,-0.712714,-2.7559
5697,12,-3,-4,-72,-53,4,2,-22,0.428223,-0.0161133,0.617188,-7.1875,61.3125,-12.8125,0.0193216,-0.712714,-2.7559
5697,0,-27,-128,-58,-43,-26,-25,13,0.428223,-0.0161133,0.617188,-7.1875,61.3125,-12.8125,0.0193216,-0.712714,-2.7559
5698,-3,7,56,33,34,5,-14,-33,0.42334,0.027832,0.608398,-0.9375,61.4375,-14.75,0.023383,-0.689705,-2.76234
5698,-2,3,16,21,13,3,20,47,0.42334,0.027832,0.608398,-0.9375,61.4375,-14.75,0.023383,-0.689705,-2.76234
5719,-4,9,31,26,-1,0,-10,6,0.42334,0.027832,0.608398,-0.9375,61.4375,-14.75,0.023383,-0.689705,-2.76234
5719,1,9,10,-20,-8,1,9,-23,0.42334,0.027832,0.608398,-0.9375,61.4375,-14.75,0.023383,-0.689705,-2.76234
5726,2,-13,-39,-49,-41,1,13,4,0.440918,0.00976562,0.669434,-0.9375,58.25,-11.6875,0.0257749,-0.667572,-2.76678
5726,10,5,13,34,40,2,-18,5,0.440918,0.00976562,0.669434,-0.9375,58.25,-11.6875,0.0257749,-0.667572,-2.76678
5733,-6,-4,18,36,27,26,34,-10,0.440918,0.00976562,0.669434,-0.9375,58.25,-11.6875,0.0257749,-0.667572,-2.76678
5733,30,10,20,8,4,-17,-17,29,0.440918,0.00976562,0.669434,-0.9375,58.25,-11.6875,0.0257749,-0.667572,-2.76678
5742,-40,-11,-29,-24,-11,9,9,-6,0.430664,-0.0283203,0.737305,-3.25,53.875,-8.4375,0.0251166,-0.646304,-2.76915
5742,6,3,29,-7,-17,-19,-43,-5,0.430664,-0.0283203,0.737305,-3.25,53.875,-8.4375,0.0251166,-0.646304,-2.76915
5757,-16,-10,-41,-31,-2,0,7,29,0.430664,-0.0283203,0.737305,-3.25,53.875,-8.4375,0.0251166,-0.646304,-2.76915
5757,22,12,29,13,5,20,36,1,0.430664,-0.0283203,0.737305,-3.25,53.875,-8.4375,0.0251166,-0.646304,-2.76915
5759,19,0,-24,4,7,-9,-12,17,0.422852,-0.0424805,0.680176,-4.9375,50.5625,-7.1875,0.0230793,-0.627216,-2.77056
5759,-16,-1,-45,-7,-5,5,5,-52,0.422852,-0.0424805,0.680176,-4.9375,50.5625,-7.1875,0.0230793,-0.627216,-2.77056
5779,10,1,12,12,2,2,-8,3,0.422852,-0.0424805,0.680176,-4.9375,50.5625,-7.1875,0.0230793,-0.627216,-2.77056
5779,-7,-9,-27,-15,-23,6,5,-5,0.422852,-0.0424805,0.680176,-4.9375,50.5625,-7.1875,0.0230793,-0.627216,-2.77056
5781,-41,-10,-37,-36,-43,-35,-20,-30,0.433594,-0.0258789,0.665039,0.3125,47.1875,-4.625,0.0229669,-0.610086,-2.77139
5781,10,19,52,43,43,21,-2,18,0.433594,-0.0258789,0.665039,0.3125,47.1875,-4.625,0.0229669,-0.610086,-2.77139
5794,19,-3,23,52,46,-13,-6,15,0.433594,-0.0258789,0.665039,0.3125,47.1875,-4.625,0.0229669,-0.610086,-2.77139
5794,18,10,14,2,-5,12,-10,-8,0.433594,-0.0258789,0.665039,0.3125,47.1875,-4.625,0.0229669,-0.610086,-2.77139
5810,-3,-3,-12,3,10,-12,-8,21,0.473633,0.00488281,0.714844,-2.1875,43.1875,-6.9375,0.0232464,-0.594764,-2.77374
5810,1,-7,-23,-2,-22,8,12,-10,0.473633,0.00488281,0.714844,-2.1875,43.1875,-6.9375,0.0232464,-0.594764,-2.77374
5817,-14,14,18,-31,-6,-12,-21,5,0.473633,0.00488281,0.714844,-2.1875,43.1875,-6.9375,0.0232464,-0.594764,-2.77374
5817,-24,-31,-70,-24,-12,-2,13,-4,0.473633,0.00488281,0.714844,-2.1875,43.1875,-6.9375,0.0232464,-0.594764,-2.77374
5819,13,13,17,-7,-5,-6,-3,37,0.450195,-0.0253906,0.717285,-6.25,40.375,-5.5625,0.0209773,-0.580102,-2.77498
5819,-5,-12,-6,-11,3,0,2,-33,0.450195,-0.0253906,0.717285,-6.25,40.375,-5.5625,0.0209773,-0.580102,-2.77498
5839,17,1,8,15,-17,-1,3,38,0.450195,-0.0253906,0.717285,-6.25,40.375,-5.5625,0.0209773,-0.580102,-2.77498
5839,-8,-4,-24,-49,-17,-9,-15,-13,0.450195,-0.0253906,0.717285,-6.25,40.375,-5.5625,0.0209773,-0.580102,-2.77498
5841,18,1,-31,14,21,7,9,20,0.419922,-0.0234375,0.75,-4.375,39.125,-6.5625,0.0196905,-0.565281,-2.77687
5841,-26,-3,29,19,12,0,1,-5,0.419922,-0.0234375,0.75,-4.375,39.125,-6.5625,0.0196905,-0.565281,-2.77687
5855,-1,6,21,38,16,-3,-9,-56,0.419922,-0.0234375,0.75,-4.375,39.125,-6.5625,0.0196905,-0.565281,-2.77687
5855,14,5,7,-37,-23,5,19,28,0.419922,-0.0234375,0.75,-4.375,39.125,-6.5625,0.0196905,-0.565281,-2.77687
5870,-19,-16,-32,-46,-47,-5,-1,-28,0.403809,-0.00976562,0.775391,-6.875,37.3125,-8.6875,0.0182268,-0.550623,-2.77964
5870,8,5,30,41,38,-10,-21,7,0.403809,-0.00976562,0.775391,-6.875,37.3125,-8.6875,0.0182268,-0.550623,-2.77964
5877,-7,-6,-7,-7,7,-5,-4,21,0.403809,-0.00976562,0.775391,-6.875,37.3125,-8.6875,0.0182268,-0.550623,-2.77964
5877,4,-4,6,13,0,10,2,-9,0.403809,-0.00976562,0.775391,-6.875,37.3125,-8.6875,0.0182268,-0.550623,-2.77964
5878,15,-3,12,3,-10,15,17,-26,0.371582,0.0112305,0.796875,-12.6875,37.625,-7.8125,0.0153459,-0.53538,-2.7826
5878,8,-6,-30,-54,-34,-21,8,42,0.371582,0.0112305,0.796875,-12.6875,37.625,-7.8125,0.0153459,-0.53538,-2.7826
5907,-9,1,23,-5,-9,7,-9,-16,0.371582,0.0112305,0.796875,-12.6875,37.625,-7.8125,0.0153459,-0.53538,-2.7826
5907,-32,0,-5,21,16,-6,-13,28,0.371582,0.0112305,0.796875,-12.6875,37.625,-7.8125,0.0153459,-0.53538,-2.7826
5908,19,8,40,43,26,0,21,3,0.348145,0.0180664,0.828613,-11.4375,38.25,-7.375,0.0129352,-0.519369,-2.78545
5908,13,3,-2,-5,4,3,-10,-11,0.348145,0.0180664,0.828613,-11.4375,38.25,-7.375,0.0129352,-0.519369,-2.78545
5913,14,-13,-101,-23,-9,11,22,49,0.348145,0.0180664,0.828613,-11.4375,38.25,-7.375,0.0129352,-0.519369,-2.78545
