0,-1,-2,-1,-2,-1,-1,-2,-1
0,-1,-2,0,-1,0,1,-3,0
1,-1,-1,-1,0,-1,0,-1,0
1,-1,-1,-1,-1,-2,-1,-2,-1
4,-2,-1,-2,0,-1,-1,-1,-1
4,-2,0,0,-1,-1,-1,-1,-2
12,-1,0,0,-1,-1,-1,0,-2
12,-1,0,0,-2,0,-1,0,-1
13,-1,0,-1,0,-1,0,-3,-1
13,-1,-1,-1,-4,-1,-3,-1,-2
19,-2,0,-2,0,-2,-1,0,0
19,-2,-1,-2,-1,-1,0,1,-1
34,1,1,0,-1,1,0,-1,0
34,-2,-1,1,-1,-1,-1,-1,1
41,-1,-1,-2,-1,0,-1,-2,-3
41,-2,-3,-1,0,0,0,-1,-2
49,-3,-2,0,-1,-2,-2,1,5
49,2,0,-2,-1,0,-1,-1,0
72,-1,0,-1,-2,-1,-3,-2,-2
72,0,-1,-1,0,-1,-1,-2,-2
74,-1,0,-1,-1,0,1,-1,-2
74,0,-2,-1,0,-2,0,-2,-2
118,0,0,-1,-1,-1,-1,-1,-2
118,-1,-1,1,-1,-1,-1,-1,-1
125,-1,0,-2,-1,-2,0,1,-1
125,-1,-1,-1,-1,-2,-1,1,2
125,-3,-1,-1,0,0,0,0,1
125,-1,-1,-2,-2,-1,-3,0,-1
126,-1,0,1,0,-1,-1,-2,-3
126,0,0,-1,-2,1,0,-1,-1
130,-2,3,1,-1,-3,-1,-1,0
130,0,-1,-1,0,0,0,-1,0
138,0,-2,-2,0,-2,-1,-1,-2
138,-1,0,-2,-2,-4,-1,-4,-1
147,0,-1,-1,-2,-1,-1,-1,0
147,-1,0,0,0,-1,-1,-2,-2
160,0,-2,-2,-1,0,-2,-2,-2
160,1,-2,0,-1,-1,-3,-2,-1
167,0,-2,-1,-1,-1,-1,-1,-1
167,-1,1,-1,-1,-1,-1,0,-2
199,1,0,-2,-3,0,-1,1,1
199,-1,-1,-1,-1,-1,-2,-2,1
200,-2,-2,-1,1,0,-2,-1,0
200,1,0,-1,-1,-1,-1,-1,-2
216,-2,0,-2,0,-2,-1,-1,-2
216,-1,1,0,-1,-1,-1,0,-1
216,-1,-2,1,-2,-1,-1,0,-1
216,-2,0,-1,-1,-3,-1,-1,1
228,-1,-2,0,0,0,-1,-1,-3
228,-3,-2,-1,-1,0,0,1,-1
231,-2,-2,-2,-2,0,-1,2,-2
231,-4,-3,-2,-1,-2,-2,-1,-3
251,-3,-2,0,0,0,0,-1,-2
251,0,-1,-2,1,1,-1,1,-3
252,0,1,0,0,-2,1,-3,-1
252,-2,-2,0,-1,-2,1,-1,1
281,-2,-1,-1,-2,-2,-2,-2,1
281,-1,-1,-2,-1,-2,-2,-2,-2
289,-1,-1,-2,-1,-2,-1,-3,-2
289,0,0,-1,-3,-1,-1,-1,0
290,0,-3,-2,-1,0,0,-3,1
290,-2,-1,0,-1,-1,0,-2,0
291,-1,-2,-2,-2,-1,0,-1,-2
291,-1,-2,0,-1,-1,-1,-1,0
311,2,0,2,-2,-1,-3,1,1
311,-3,-1,-2,-2,0,-3,-1,-1
312,-4,0,-1,-2,0,0,-3,-2
312,2,1,-1,0,0,0,0,0
325,-2,0,-1,-1,0,0,1,-3
325,-1,0,0,-3,-2,1,-1,-1
334,-1,0,-1,0,-1,-2,0,-2
334,0,-1,-2,-2,-1,-2,-2,-2
349,-3,0,-2,0,-1,-1,-2,1
349,-3,-4,-1,1,-1,-2,0,-2
350,0,-2,0,-1,0,-1,-2,1
350,-4,-1,0,0,0,2,-1,-1
371,0,0,-1,-1,-2,-2,0,-2
371,-1,1,-1,-1,0,0,-2,-3
373,0,-2,-2,-2,-1,-3,1,1
373,-1,1,-1,0,-1,-3,-1,-2
385,3,-1,0,-1,-1,1,0,-6
385,-1,-1,-1,1,-1,-2,-1,5
394,0,-2,0,0,0,-1,0,2
394,0,-1,-3,-3,0,-2,-3,-3
408,-3,-1,-1,-1,-1,-1,-1,-2
408,0,-1,-2,-2,-3,0,-3,-7
410,2,1,0,0,-1,-1,-1,-1
410,-1,-2,-1,0,-2,-2,-1,1
431,-2,0,0,0,0,-1,-2,-1
431,1,0,-1,-1,-1,-1,0,-1
432,1,-1,-2,-1,-1,0,0,0
432,-2,-3,-1,-1,-1,-1,0,0
445,-1,0,0,-2,0,0,-3,-3
445,-1,1,1,-1,-1,1,1,-1
454,-2,-1,0,0,-1,1,-3,-1
454,0,-1,-1,-1,-2,0,-1,-2
469,3,0,-1,-1,-1,0,-1,3
469,1,-1,0,-2,-1,-1,0,0
470,-3,-2,-2,-2,1,0,0,-2
470,-1,0,0,-1,-2,-1,2,6
492,-2,-3,1,-1,-1,-2,1,-4
492,-1,0,-2,0,-2,1,-2,4
493,-1,-2,0,-1,-1,-1,-3,-3
493,0,-1,-1,0,1,-1,-6,-6
505,1,-1,-3,0,-1,-1,0,2
505,1,-1,-1,-1,0,-1,-2,2
514,1,-1,-1,-1,-1,-1,2,3
514,-3,-1,0,-1,-1,-2,2,-1
528,-2,0,-1,-1,-2,-2,-2,-2
528,-1,-2,-1,1,-1,-3,-1,-1
542,-4,0,-1,0,-2,1,-2,-1
542,-1,0,-1,-2,-2,0,-2,-1
551,-2,0,-1,-2,-1,-1,-1,-1
551,-1,0,-1,-2,0,1,1,-1
552,-1,0,-2,-1,0,-3,-3,-4
552,-1,-1,-1,1,-1,0,0,-2
565,-6,-4,-2,0,-2,1,-2,0
565,-1,-2,-4,-2,-1,-1,-3,-8
574,-1,-1,-1,-1,-1,-1,1,-2
574,0,0,-1,-1,0,1,-1,0
588,-1,-2,-3,-1,-1,-2,-2,0
588,-1,1,1,0,-1,-1,-1,-4
595,1,-2,0,0,0,0,1,-5
595,2,1,-1,0,1,0,2,-3
611,-2,0,-1,1,-2,-1,-2,1
611,-2,-2,-1,-1,-3,-1,-3,-1
612,-2,0,0,0,-3,-1,-2,2
612,-1,-3,1,-2,0,-4,-3,-2
625,0,0,0,-1,-1,-1,-1,-4
625,-1,-1,-2,-1,0,1,-1,1
634,-1,-1,-1,-1,1,0,-2,-3
634,2,0,-2,-1,0,-1,0,-2
647,0,-1,-1,-3,-1,1,-1,1
647,-2,-3,-2,1,1,-1,0,-4
656,0,-1,-2,-2,-1,-2,-1,1
656,3,0,-1,0,0,0,0,3
678,0,-1,-2,1,0,-1,-3,-1
678,-2,-2,0,0,-2,-1,-1,-2
680,2,0,0,3,-3,-2,-1,-2
680,-4,-2,-1,0,-2,0,0,-1
693,0,0,0,-1,-2,-2,-3,-3
693,1,-1,-2,-1,-2,-2,-2,-10
695,-3,-1,-3,-1,0,1,5,2
695,-3,-2,-2,-4,-1,-2,4,7
708,-1,-2,0,-1,-1,-2,-2,-1
708,-1,0,-1,-3,-1,1,-4,-11
715,-4,-2,-13,-5,-2,-3,-6,3
715,-1,1,21,2,-2,0,-3,1
731,-3,-1,-1,-4,0,0,0,-5
731,-1,-3,-2,1,-1,-2,-1,8
732,-2,-2,3,-2,-2,-1,1,-1
732,4,-1,-7,0,-1,-1,-2,-3
754,0,-1,-1,0,0,0,4,-3
754,-3,0,3,-1,-2,-1,-2,3
760,-2,1,0,0,0,0,-1,-2
760,-1,-2,-6,1,-2,-2,-2,-6
768,1,2,0,0,-1,0,0,3
768,3,-1,0,0,-1,0,5,4
775,2,-1,3,-1,-2,-2,1,-1
775,-1,-1,-2,-2,-1,-1,0,-2
792,-1,1,-3,-1,-1,-2,-2,1
792,-3,0,-2,-2,2,1,0,6
793,-3,-1,2,-1,-2,1,2,-2
793,-4,-1,-3,-1,-3,-2,-2,-7
821,-3,-3,-2,-1,-1,0,-2,-1
821,-5,-1,-2,-1,-1,-2,-5,-7
823,0,-1,0,0,-1,-2,-5,7
823,-3,0,-4,0,0,1,-1,-7
843,-5,-3,-2,-1,-2,-2,-3,-8
843,2,0,1,-1,-1,-2,2,11
846,-1,-1,1,0,0,1,-3,-15
846,-5,-3,-2,-2,0,-2,0,10
852,6,2,-3,-1,1,1,-1,-3
852,2,8,31,5,2,1,0,-7
852,-2,-2,4,-2,-1,-3,-2,-2
852,2,0,-3,-1,-1,-3,-1,-7
874,-3,-3,0,1,-1,-1,1,-6
874,-2,0,-11,-3,-2,1,2,3
875,-1,1,-3,-1,0,0,-3,1
875,1,0,4,0,-3,1,1,10
887,-2,-1,-1,-2,-2,-2,-4,-6
887,-1,-3,-8,-1,-3,-2,5,1
902,-2,-1,-1,1,1,-1,-1,-15
902,0,-1,-4,-1,-2,-2,-3,8
911,-4,-3,-3,-2,-1,-5,-2,1
911,6,-1,-4,-3,0,0,-3,1
912,0,-1,0,0,-2,0,-4,-16
912,1,0,-3,-2,-1,3,1,24
934,1,-1,2,-2,-3,0,1,-8
934,-3,-4,-3,-1,-3,-2,-9,-11
935,3,1,-1,-3,0,1,9,36
935,-3,-1,0,0,-2,-3,-2,-12
956,5,1,3,-2,-1,-1,-1,8
956,-4,-3,-4,-3,-1,-2,0,-12
958,-6,-3,-19,-5,-3,-2,-7,-6
958,2,-1,7,1,-1,-1,0,5
971,-2,-1,-2,-2,0,0,1,-13
971,-1,0,-3,0,-2,-3,-3,2
973,0,-2,0,-1,-2,-2,-3,2
973,-3,0,1,-3,-1,-1,-3,-8
994,0,-5,-9,-1,0,-1,5,27
994,-5,-2,-2,2,0,2,-4,-7
995,15,6,-8,-1,1,1,-2,-11
995,-3,8,13,2,-1,-1,1,-13
1008,-1,-3,6,1,-2,-4,-4,3
1008,1,-1,-7,-3,-4,-5,-3,1
1015,-10,-6,-2,-1,-2,-2,-4,-7
1015,1,1,-6,-2,1,3,-6,4
1032,-4,-1,-2,0,-2,0,-2,10
1032,-4,-2,2,-1,0,-3,-2,-1
1033,-7,4,-9,-1,0,-1,8,-4
1033,3,-1,2,1,1,-2,0,-19
1054,2,-5,-2,-1,-2,-1,-3,14
1054,0,0,12,-1,-2,-2,1,-13
1055,0,1,11,1,-2,1,-3,3
1055,-4,-1,-8,-1,0,-1,-8,-27
1067,1,4,-3,-1,1,1,3,5
1067,1,-1,-5,-2,-2,-5,4,25
1077,-1,-1,-8,0,1,2,-6,-19
1077,-5,-3,5,-2,-2,2,8,13
1090,2,5,8,-1,0,0,-3,-16
1090,0,-3,-3,-1,-1,0,3,2
1099,-3,-4,1,-1,-1,0,1,8
1099,-2,2,-15,-1,-2,-3,-7,5
1121,-3,-5,7,3,1,0,-3,-49
1121,3,-3,5,1,-1,1,6,58
1122,1,-2,4,-1,-3,-2,-4,-7
1122,1,-5,-16,-5,-3,-1,3,-6
1135,11,3,-3,-1,-2,-1,4,20
1135,0,-1,-3,-2,-2,-1,-10,-47
1138,3,-4,2,-2,-1,-2,1,49
1138,0,0,2,-2,1,1,4,-17
1150,-6,0,-8,0,-3,0,2,9
1150,-9,-2,-6,-1,0,0,0,-9
1174,1,-1,1,0,0,-1,4,7
1174,3,-3,-6,-1,0,-1,-9,-15
1176,-5,0,-3,-1,-2,-2,-3,-40
1176,-1,-3,-2,-2,-1,-1,1,0
1186,5,1,4,-1,-2,-4,-4,-4
1186,-9,-5,0,1,-2,-1,0,-16
1203,-17,-8,-3,-4,-3,0,5,21
1203,6,6,-1,1,1,1,3,-9
1205,-9,-1,-2,-1,-1,0,-1,-9
1205,3,-4,0,0,0,-2,-4,41
1219,-3,0,-3,0,-1,0,-14,-52
1219,-3,-2,-5,-2,-1,0,1,11
1220,-15,-6,0,0,2,1,0,-22
1220,8,1,2,-2,-1,-2,9,53
1232,14,5,5,2,4,6,16,105
1232,1,-1,-1,-1,0,1,-4,1
1242,-1,-2,-1,-1,-3,-4,-12,-33
1242,0,-2,2,0,-1,-2,2,13
1256,3,-2,-3,-3,-2,-6,-7,-40
1256,6,0,-13,-2,2,1,7,51
1257,2,3,2,3,3,5,-5,-21
1257,-4,-1,-2,-2,-4,-1,-2,-30
1280,0,0,-3,2,-2,1,-2,-9
1280,-3,-3,-4,-3,-3,-2,-1,11
1280,3,-2,0,-4,-4,-3,0,-3
1280,-4,-3,-3,-2,-1,-3,-17,-18
1301,-8,-2,0,-1,-4,-3,-4,-73
1301,16,12,12,5,5,12,19,38
1301,-2,-1,3,-2,0,0,6,86
1301,-3,-2,0,1,0,-3,-6,-30
1315,0,-2,-1,-2,-1,-2,-1,9
1315,-15,-7,-5,-5,-4,-6,-7,-15
1317,16,6,2,-3,-3,0,-1,-30
1317,-3,-1,-7,0,0,-1,7,-3
1339,2,0,16,1,-2,-1,-1,13
1339,-7,-2,1,0,2,-2,-8,-33
1339,0,1,-1,7,1,1,4,-8
1339,0,0,7,-1,5,1,-8,16
1352,0,4,-18,10,-12,0,5,15
1352,-7,-5,-7,-21,-4,-5,-8,-30
1360,5,-1,1,4,2,-7,-5,17
1360,-3,-1,-4,-8,-4,-5,-5,-31
1375,9,6,7,5,12,10,14,88
1375,4,3,5,6,-1,1,7,34
1376,-11,-5,1,2,-3,-7,-6,-17
1376,4,-2,-15,0,0,2,6,-3
1399,-8,-4,8,-4,0,-3,-7,-66
1399,-7,-3,-6,-1,-3,-2,-8,-7
1399,16,4,3,0,1,3,-2,-12
1399,-7,-1,2,5,-4,0,-4,-35
1413,-8,-7,-14,-9,0,-4,1,15
1413,1,-2,17,24,20,-3,-11,-12
1420,-15,-4,-4,-30,-20,-2,-1,-55
1420,1,-2,-8,-27,-24,-2,0,9
1435,20,2,-3,6,11,-4,2,49
1435,-8,5,20,28,0,5,-9,-67
1435,-6,-7,-50,-44,6,-2,0,-27
1435,-6,-2,23,37,32,11,1,-37
1458,-15,-15,-11,-32,-18,-4,-6,15
1458,5,5,-19,-36,-19,-8,16,30
1459,12,10,5,-10,-7,7,-5,-23
1459,16,9,5,-1,-15,-23,-4,21
1472,-18,2,-9,18,17,1,3,20
1472,1,-29,5,28,12,-6,-5,18
1480,-11,-2,-13,-5,4,6,13,34
1480,7,5,24,37,25,6,4,37
1495,15,17,-22,-20,-5,3,-1,6
1495,-24,-26,2,-36,-34,-7,-12,-44
1496,4,-18,-43,-3,-1,5,16,95
1496,-8,-19,-6,-60,-35,-4,9,17
1518,4,21,10,8,36,2,-16,-90
1518,20,22,28,14,-17,5,7,-28
1518,-16,8,22,7,-5,-17,-30,-92
1518,-11,-21,-30,-1,3,-4,7,-8
1541,-4,0,17,-52,-26,0,-15,-30
1541,-4,3,-12,20,37,10,12,-16
1541,-12,7,31,22,15,6,5,-27
1541,23,-20,-43,-27,5,6,15,70
1555,9,-6,40,58,9,-13,3,76
1555,9,16,-33,-25,-16,8,-1,-19
1563,-23,-31,22,51,34,-10,-22,-40
1563,-3,41,-3,-62,-39,-11,-12,-42
1578,2,-30,-20,9,-6,-1,24,52
1578,2,1,-25,16,8,-2,1,42
1579,17,76,32,-57,-30,-15,-4,-35
1579,-16,-9,-6,11,4,15,-14,-60
1592,9,7,-2,34,22,-3,-15,-39
1592,-28,-9,-14,29,-15,0,6,-25
1600,2,-7,-30,9,8,1,3,41
1600,8,-51,35,98,52,14,14,23
1616,-17,0,29,-65,-80,2,9,-35
1616,-54,-96,-54,-40,30,-21,-3,35
1617,1,-33,-1,13,0,0,-28,-30
1617,91,125,84,44,14,7,20,47
1638,-5,-45,-19,34,14,0,-30,-50
1638,-1,37,49,-8,-23,-1,-10,-34
1639,33,-27,3,60,43,40,66,96
1639,-54,-21,-61,-53,-21,-19,-21,-57
1661,9,-17,54,67,-5,-13,47,57
1661,0,-26,-117,-122,-45,-11,-39,-68
1662,-12,-14,41,22,18,-13,-2,5
1662,2,65,42,51,14,14,-7,-24
1675,-16,0,-18,-25,0,2,-17,-21
1675,7,24,27,40,7,3,36,18
1676,0,5,-27,-39,-15,5,16,1
1676,-45,-98,-78,-15,16,-9,-30,-79
1698,4,33,52,25,3,10,6,-17
1698,26,44,-25,-69,-66,-21,-38,-24
1699,-29,1,12,8,-22,-9,-2,-55
1699,-4,-17,-16,-10,25,9,6,27
1721,10,-21,-58,-1,38,18,13,78
1721,66,23,53,50,37,43,69,120
1722,-7,27,19,-21,-43,-27,-39,-102
1722,-20,-25,-21,-17,-12,-17,-8,-79
1735,1,20,-3,-6,3,1,-25,-23
1735,5,13,20,12,-7,-8,41,76
1736,1,-30,-36,-49,-25,4,-6,48
1736,8,2,-18,-33,-14,-24,-10,-39
1758,-2,3,-29,-18,15,14,-15,-13
1758,-12,-19,42,38,21,13,-18,-65
1758,-10,-11,-38,-15,-20,-13,-15,-74
1758,6,7,57,26,-14,15,66,127
1781,-8,26,35,-14,-44,-35,-14,-111
1781,-11,-12,5,3,25,-7,-10,-39
1782,-9,-10,18,82,36,6,-18,-27
1782,8,8,-9,-32,-21,12,15,85
1796,-2,-5,-46,-39,-10,-2,-19,-50
1796,-8,-4,40,27,13,6,7,-12
1796,12,18,18,13,26,13,12,-1
1796,-8,-7,-1,17,-5,-12,-21,-2
1818,-9,-16,-15,51,13,-2,5,-28
1818,-2,-11,-2,-26,-24,-4,-29,-60
1819,-19,-30,-97,-80,-17,-6,12,71
1819,-2,-10,-124,-39,15,19,6,43
1841,32,19,93,3,-27,-2,35,15
1841,-16,13,82,95,24,-17,-52,-75
1841,17,21,32,43,-2,-15,-22,37
1841,-27,-85,-53,-30,-6,-5,5,59
1856,-30,-61,-128,-100,-18,4,9,-80
1856,33,77,70,50,21,17,-7,66
1856,21,-82,39,73,13,-2,-1,16
1856,-3,-2,73,41,19,2,-15,-43
1878,38,43,-10,-40,-29,-21,-10,44
1878,-40,-60,-128,-86,-24,-18,-14,10
1886,-16,-31,-37,-71,7,43,18,44
1886,-3,6,14,-4,6,-8,5,-44
1902,7,-3,-38,-18,-25,-33,17,56
1902,8,23,30,3,1,-31,-24,-56
1902,-10,-12,36,30,6,-17,-2,22
1902,-29,-10,-23,-8,14,13,-22,-123
1915,25,38,-6,-7,26,35,39,78
1915,-2,-26,-22,-65,-19,44,15,-16
1916,3,-11,6,38,-2,-35,16,8
1916,22,53,98,90,36,55,6,-48
1938,-27,-19,-8,-42,-41,-37,-28,-10
1938,-2,5,-13,29,9,37,6,-19
1938,11,18,-82,-67,-31,-63,-16,23
1938,-16,9,32,-8,-47,-39,-28,-25
1961,13,-10,-15,9,48,7,-26,-57
1961,-5,9,20,17,11,23,47,35
1961,39,55,52,16,-4,-30,-11,-13
1961,-2,-17,-43,-68,-87,-37,-19,6
1975,-32,3,27,16,25,40,-12,-24
1975,-10,-9,-2,3,30,23,14,11
1976,5,15,-31,-5,17,48,37,-5
1976,-1,17,21,4,12,21,5,-3
1998,-2,-18,6,22,11,-20,-2,2
1998,-2,-17,22,20,-40,-71,-37,-20
1999,-16,-2,0,-23,-18,-2,-23,-22
1999,21,-2,-19,3,11,10,7,14
2021,-15,-8,13,20,11,30,24,-6
2021,0,-9,-52,-28,12,23,1,-20
2022,-18,-9,-11,-17,11,3,19,6
2022,17,15,32,27,-32,-56,-7,18
2036,-5,-13,16,44,-2,8,-24,-4
2036,-1,3,-18,-67,-35,-72,-25,7
2036,-14,-7,5,19,1,26,-8,-60
2036,0,-4,-2,-16,5,36,14,42
2058,-8,-2,-1,30,28,-9,-8,-70
2058,22,7,-12,-6,41,40,35,80
2059,0,7,29,7,10,5,0,-3
2059,-2,-1,-11,-10,-9,22,9,-8
2081,-19,-6,-1,-7,-29,-94,-40,-80
2081,-1,0,-10,2,2,-19,-23,-41
2081,9,22,23,31,-6,13,5,2
2081,-17,1,0,2,33,29,-13,-117
2095,29,3,3,-10,11,38,71,127
2095,-10,-10,2,41,31,27,-11,-82
2095,14,8,-13,-26,-28,-68,-6,44
2095,-10,-19,-8,5,-19,1,-2,-66
2118,-25,-11,1,-28,-25,-48,-67,-128
2118,9,-2,-3,40,7,15,39,-78
2119,-2,3,-8,33,51,43,0,7
2119,29,11,5,-43,-35,20,57,74
2141,-19,12,39,11,15,22,-28,-81
2141,-4,2,2,18,-8,-78,-24,62
2141,-6,-8,4,-31,-29,41,-11,-42
2141,16,7,9,7,51,8,10,91
2156,20,15,16,63,35,36,40,83
2156,-29,-9,-12,-63,-48,3,1,-85
2157,-57,-20,-15,-36,-80,-95,-69,-86
2157,47,14,-6,32,22,-53,-29,25
2186,15,8,11,-24,-8,45,14,-54
2186,-4,-2,3,1,31,58,16,-48
2187,-4,0,1,9,25,32,37,-37
2187,-26,-4,-2,16,-1,-33,-13,-57
2202,-4,-3,-21,-20,-20,-12,-18,29
2202,10,2,5,-25,-42,-50,-12,27
2202,-4,0,11,2,24,26,3,-6
2202,-12,-2,-23,-42,-17,10,-15,-6
2215,9,2,-6,6,56,94,34,63
2215,-1,-10,10,9,-3,-100,9,71
2216,7,0,-3,-2,-56,-8,-18,18
2216,-4,-13,19,22,-27,-45,-30,-11
2237,3,14,-26,-44,-1,-8,-5,12
2237,1,6,6,19,34,67,10,1
2238,12,6,21,24,44,46,15,-3
2238,-8,-10,9,34,-3,-17,18,-25
2261,-13,-14,-30,-29,-46,-50,-11,-17
2261,1,-2,22,32,-7,-11,-13,5
2268,21,12,-4,-9,5,3,-3,7
2268,1,8,-31,-30,11,55,8,6
2275,-5,-12,21,25,7,9,15,20
2275,4,6,-24,-15,6,4,-10,-22
2276,-2,-7,-21,-49,-45,-55,-1,2
2276,-8,4,28,51,4,-26,-21,-15
2298,-3,-6,5,15,2,24,12,15
2298,4,2,-1,-7,10,32,11,-5
2299,7,9,11,8,20,39,32,7
2299,-5,-3,13,19,-7,-43,-1,-25
2321,-4,-6,-16,-5,-53,-97,-60,-18
2321,0,-9,-7,-8,-17,-12,-12,8
2322,4,1,7,11,31,35,13,26
2322,-2,6,-10,-10,34,26,12,-20
2366,-2,0,21,24,11,36,23,-26
2366,-4,-7,-14,-10,-19,-9,-14,4
2368,1,0,-13,-18,-10,9,0,7
2368,-2,-8,7,-10,18,-4,8,6
2370,-5,1,0,-14,-31,-48,-17,-16
2370,-3,-5,-15,-16,-19,2,8,4
2372,11,11,13,26,16,-14,-14,-6
2372,-4,-6,-7,-25,-23,15,2,-4
2381,-3,-3,-3,-6,-2,-34,-17,-3
2381,2,1,-3,-9,19,10,10,3
2383,0,-5,5,49,32,40,19,-12
2383,-3,-8,0,-6,-12,-2,14,5
2395,2,7,2,4,4,9,-15,1
2395,6,3,1,6,2,-23,-7,-1
2396,-4,-5,-28,-36,-10,-5,-8,1
2396,-3,-9,15,-8,-16,-6,2,4
2418,4,-11,-8,-1,5,0,8,24
2418,-1,5,5,36,4,-2,-11,-18
2419,-6,-3,2,0,-8,-12,-3,-7
2419,-4,-2,-20,-57,-24,-7,-8,2
2441,-5,-4,-1,10,15,10,1,1
2441,4,1,2,-20,10,37,22,26
2442,-3,-3,3,-7,-20,-27,13,-9
2442,-4,2,-6,-2,-3,14,-24,-6
2455,0,-2,-12,-7,9,-2,9,-4
2455,6,0,6,-12,-6,6,-14,0
2457,-2,-1,8,7,1,-6,8,4
2457,-5,-1,-7,2,0,-24,-10,-6
2477,5,-2,-10,-2,33,41,4,1
2477,-2,-12,9,0,1,6,7,15
2479,2,14,-5,-2,-15,18,-1,2
2479,5,9,7,9,-37,-60,-15,-10
2508,-9,-7,-8,-18,-17,-62,-41,-8
2508,-7,-2,-7,7,24,20,3,-3
2508,-3,-5,1,-11,13,32,5,13
2508,1,7,0,20,76,92,41,15
2516,5,9,2,10,-43,-45,19,-2
2516,-6,-6,0,-16,-74,-75,-40,-5
2516,-4,-7,-18,-16,17,-13,-13,-10
2516,-1,4,6,23,37,29,20,6
2537,6,0,12,1,20,68,16,7
2537,3,-7,-10,-18,-62,-73,8,-5
2539,7,23,3,5,-28,-74,-61,-13
2539,-20,-16,-11,-8,-1,7,-10,-3
2561,5,7,4,11,52,74,39,19
2561,-1,6,9,27,48,93,19,-16
2562,2,-10,0,-12,-47,-84,9,15
2562,1,-7,-10,4,-3,-4,-29,-6
2575,-4,-1,7,1,6,31,19,-1
2575,7,5,-4,-16,-15,22,-5,4
2576,-7,-8,1,4,15,-23,-11,-13
2576,5,5,6,5,-5,-14,-3,8
2598,-5,-13,-8,-1,-32,-37,-20,-6
2598,-6,10,2,16,74,76,17,-14
2599,3,3,12,11,-24,-3,25,-3
2599,1,8,-16,-23,-44,-73,-37,0
2621,-20,1,0,-4,-4,-12,-13,-12
2621,2,-7,-7,17,11,-6,-5,23
2622,8,5,8,11,59,119,24,-5
2622,5,3,-2,-10,-24,-56,12,2
2635,-4,-1,-1,-9,-22,-26,-18,-3
2635,-1,-14,-7,2,-2,2,-7,6
2636,-4,-6,-6,-13,-8,-2,17,5
2636,-14,-4,5,7,5,19,-12,-15
2658,2,7,-5,-7,16,-8,1,-17
2658,-6,-12,1,-10,-37,-68,-19,-7
2658,14,2,-16,-13,-15,-8,-22,5
2658,21,3,19,9,23,50,12,13
2681,1,-7,-9,10,16,7,23,6
2681,8,13,23,6,-6,-3,-20,-21
2681,-20,-12,-12,-4,-11,-18,6,10
2681,-4,-4,-12,-1,46,79,16,0
2703,19,8,-1,-11,-14,-14,19,9
2703,1,-1,2,11,-36,-42,-24,13
2704,0,-2,-8,-23,-3,-19,-25,2
2704,-4,-9,10,5,-11,-14,5,-27
2718,30,3,-7,-7,22,26,-4,15
2718,-24,2,-7,7,26,26,24,-5
2719,-8,-11,13,43,24,18,10,-7
2719,-19,-1,-10,-27,-47,-19,-11,8
2742,25,-5,3,-6,-13,-12,-14,-20
2742,8,13,-3,-7,-8,-38,10,16
2743,-12,-10,5,10,53,104,31,8
2743,-12,0,-1,0,-15,-49,-3,-1
2755,-17,-4,18,-5,-43,-38,-45,-10
2755,0,-5,-18,2,0,-14,-4,10
2763,-34,12,-5,-7,-2,0,-13,-32
2763,38,5,3,9,22,23,12,13
2786,-9,1,5,3,35,79,47,26
2786,-3,-10,-3,-1,-27,-12,10,4
2787,16,15,5,-12,-39,-77,-45,-22
2787,-17,-6,-11,-20,0,-8,-6,-10
2801,-12,-4,3,24,9,2,-3,-28
2801,6,11,3,-5,40,55,22,18
2801,8,-10,6,12,1,7,21,17
2801,10,5,-15,-27,-19,-34,-13,5
2824,2,-8,0,12,-29,-50,-13,11
2824,-2,-4,0,-4,15,10,-22,-43
2825,7,0,2,0,6,7,11,0
2825,-15,-7,-8,3,8,-6,5,0
2839,-13,-1,-2,-16,-32,-39,-5,1
2839,8,-5,-8,-10,-21,-49,-27,-12
2841,-1,5,-3,-5,8,20,-2,0
2841,-14,-6,1,15,63,105,41,15
2861,11,3,5,11,-33,-46,12,4
2861,-12,0,-3,-17,-32,-48,-41,-16
2862,3,-7,-2,-2,6,1,-4,0
2862,18,1,0,6,-8,-5,-3,6
2875,-3,-1,-7,-10,16,28,11,2
2875,9,-4,7,18,22,41,21,10
2883,16,-1,-1,10,-5,-18,-1,5
2883,35,8,6,0,-14,-12,-13,7
2906,-16,-7,-14,-11,32,42,13,-8
2906,-10,-4,4,-28,-34,-40,-3,5
2906,39,9,-4,3,-26,-34,-24,-10
2906,-16,-2,-1,7,-11,-19,-10,-11
2921,-4,-1,-3,2,34,31,2,5
2921,1,0,6,-8,5,23,19,-14
2921,4,7,3,3,-22,-25,-3,10
2921,-18,-5,-4,5,2,-13,-14,-13
2944,-1,-2,0,-2,5,25,6,0
2944,-15,-5,-4,10,44,46,28,9
2945,-9,-7,-5,-11,-31,-30,-7,1
2945,34,0,-12,-24,-16,-7,-12,12
2959,-10,7,22,24,19,16,4,-6
2959,27,5,-11,-7,-29,-36,-20,4
2966,-36,-6,-3,-2,10,-1,-10,-15
2966,9,-4,-2,-2,-1,8,5,21
2988,-15,-17,-4,-1,-2,14,-6,-9
2988,27,-1,-3,-4,15,23,24,14
2990,-13,4,-2,-22,-20,-28,-15,4
2990,-19,-4,1,5,4,-3,-7,-19
3011,-9,4,3,-1,-19,-18,0,3
3011,-22,-7,5,11,9,16,4,11
3012,-5,-9,-6,10,69,106,47,1
3012,-3,7,3,-19,-60,-61,-6,-3
3026,-12,1,-6,-9,-47,-87,-56,-9
3026,-5,5,-14,9,21,-1,-6,-7
3027,7,6,5,-20,-18,-5,5,9
3027,0,-2,6,22,75,114,31,-3
3041,-2,0,0,2,-29,-34,9,-5
3041,-6,-5,0,-4,-36,-60,-28,0
3042,-3,10,-3,-5,13,11,0,1
3042,-11,-9,2,5,8,4,0,-22
3064,21,0,-7,-17,19,36,17,37
3064,-5,6,22,32,1,10,1,5
3065,5,-15,-17,15,-9,-15,-13,-8
3065,7,-6,1,-4,-16,-40,-14,-22
3078,3,7,-5,-5,1,-9,-13,-12
3078,-4,1,-2,-20,33,72,21,-3
3078,-21,-7,6,7,5,-12,18,4
3078,-12,6,0,-6,-51,-62,-27,-21
3109,11,-5,-8,2,17,36,-4,-8
3109,12,13,-1,-9,3,-14,3,-1
3109,2,-2,10,11,9,19,1,-2
3109,-11,2,-2,10,-22,-17,0,10
3131,-1,5,6,-12,-15,-15,-12,-13
3131,-9,-1,-17,1,24,49,13,-4
3132,3,-7,12,1,-15,-30,1,1
3132,8,0,-5,3,8,-16,-10,-1
3147,-22,-7,-4,0,-1,0,2,0
3147,-5,-7,-1,0,-17,-18,-14,3
3148,6,4,-3,-13,10,12,1,-9
3148,-3,-1,-4,1,13,36,19,7
3161,-2,0,-2,-8,-14,-31,-11,-12
3161,-4,-10,-5,-1,-10,-14,-11,3
3162,-1,-2,6,6,-8,-6,-2,-4
3162,9,1,-2,1,9,24,13,18
3183,-5,-4,-1,10,42,45,6,-7
3183,-12,-8,-12,-26,-54,-68,-11,-21
3185,-17,-20,4,1,-11,-8,-14,6
3185,-4,6,1,12,14,-3,1,-11
3198,-11,-5,-1,9,20,16,2,13
3198,27,3,1,4,-9,5,7,7
3199,-8,-1,-8,-17,-16,-26,-6,0
3199,-1,-3,-4,-8,2,1,-9,-7
3221,-1,0,-1,-3,8,25,16,1
3221,-3,3,15,22,10,-1,9,-12
3221,17,-5,-7,-6,-22,-36,-21,12
3221,12,6,-4,-7,6,18,3,0
3244,2,9,3,11,13,1,8,-2
3244,-3,-1,-9,-22,-24,-26,-9,6
3245,-10,-3,-1,-6,5,20,4,-7
3245,-5,-4,10,11,8,5,-3,-7
3266,-13,-2,-11,-12,-9,-3,12,-8
3266,-13,-4,10,26,8,4,-10,12
3266,6,13,3,1,-10,-17,-9,-24
3266,0,-10,-16,-21,-6,-14,-1,20
3288,-2,0,11,7,16,36,2,-19
3288,12,2,-6,4,18,15,9,15
3290,5,-2,1,-6,-14,-11,-3,-2
3290,12,5,2,-6,-25,-34,-15,-3
3320,8,-3,-9,-6,-6,-13,-10,6
3320,-3,-12,2,4,36,55,25,-11
3321,6,-3,-3,-8,-3,-5,-9,5
3321,-13,2,-5,-13,-17,-11,0,-4
3323,14,-4,-1,15,-12,-22,-4,10
3323,-21,-1,5,0,12,8,-9,-14
3325,-5,0,-5,-5,7,22,17,12
3325,-8,-3,4,2,-6,-14,-8,-11
3341,25,7,-2,-3,-5,8,-4,10
3341,-18,-2,-3,4,-2,-13,-5,-3
3342,8,10,-3,-2,-3,-9,-12,-15
3342,-18,-7,6,-4,-4,0,7,3
3363,-17,-1,-4,-5,1,2,-3,-5
3363,11,3,4,10,10,29,22,4
3364,-4,2,-1,-14,-15,-32,-24,-1
3364,4,-1,-4,2,6,20,5,3
3378,-1,-2,-5,7,11,17,6,-5
3378,5,-7,1,-17,-21,-36,-16,1
3379,-16,5,-7,4,0,2,-5,-10
3379,-12,-5,-3,-4,11,13,11,14
3401,7,-2,7,7,-1,4,-3,3
3401,8,2,-3,-6,-23,-21,-14,-4
3408,1,1,2,11,25,20,8,0
3408,12,3,-1,14,8,26,8,1
3424,-4,-9,0,-16,-17,-22,-6,-2
3424,6,22,-4,-5,-14,-34,-7,-4
3424,4,-7,-1,4,-1,-3,-1,12
3424,0,0,2,8,19,8,4,-6
3453,-4,-10,-5,8,-2,10,9,9
3453,-3,-5,-1,-5,7,10,-9,-6
3454,28,15,6,7,-4,-1,2,-3
3454,-2,0,1,-8,-10,-19,-13,-3
3485,-5,-2,-4,-7,-15,-10,-1,-3
3485,1,-3,-4,-12,14,18,8,-1
3485,21,-3,3,11,19,28,15,7
3485,-6,-5,-12,-23,-27,-42,-19,-1
3487,-1,8,12,14,-12,-29,-18,-8
3487,-5,-3,-4,5,15,23,-1,-15
3499,2,-9,-1,2,18,37,17,4
3499,16,6,4,7,7,37,13,9
3500,-11,-5,-6,-17,-22,-36,-1,-4
3500,4,3,-3,-7,-27,-39,-21,0
3501,-17,-6,-5,0,1,-7,-14,-8
3501,4,-4,-5,1,15,15,8,-9
3522,-4,3,-7,-21,-6,-1,2,4
3522,-9,-5,11,4,3,3,-1,0
3522,-2,-6,2,14,-2,-3,4,1
3522,-2,5,4,-4,4,12,3,1
3551,10,-1,-5,-7,-16,-34,-14,4
3551,-1,-8,-1,-1,-16,-11,1,-2
3552,-27,6,-2,-13,5,12,5,0
3552,-17,-2,5,19,37,49,14,16
3566,-2,3,-2,-2,-26,-22,4,-10
3566,9,-3,-9,-21,-29,-44,-23,-4
3567,-17,-7,-4,-4,-3,-15,-15,-15
3567,25,-6,-8,3,8,12,4,16
3596,6,15,13,12,15,10,0,1
3596,3,2,1,12,24,47,19,14
3597,-1,-4,1,-3,-22,-21,6,-5
3597,-16,-2,-3,-4,-5,-22,-15,-14
3603,-20,-6,-3,-10,10,17,7,7
3603,10,-2,2,11,-5,-12,11,7
3604,-1,0,0,-8,-6,-6,2,-7
3604,-9,-5,-1,-13,-18,-28,-18,18
3618,13,-4,-7,7,21,18,1,-29
3618,-10,-11,4,22,10,39,9,4
3619,6,31,-1,3,19,-8,9,4
3619,8,1,5,4,-43,-41,-16,-10
3641,5,-8,-6,-20,-25,-29,-13,4
3641,-11,-3,-6,-16,12,11,-8,-3
3641,4,-12,-5,5,13,27,11,-3
3641,7,3,3,11,16,28,13,-10
3663,-9,-3,-5,-30,-13,-10,5,6
3663,27,12,10,10,-9,-22,-6,7
3664,-3,-14,4,21,11,16,-1,21
3664,-5,2,-7,5,8,12,11,-9
3677,3,-5,-7,5,-7,-21,-21,-5
3677,-23,-3,-5,-15,1,-7,-4,-9
3686,7,2,-2,-12,-9,-3,-5,6
3686,-10,-6,3,4,8,21,9,0
3702,1,1,-2,3,8,16,6,2
3702,-8,-6,-15,-15,-14,0,5,-7
3702,-6,-1,-8,-22,-18,-21,-12,-7
3702,-13,-14,7,7,-15,-32,-13,-12
3724,12,5,-5,5,8,7,0,3
3724,-14,9,-1,3,10,17,12,-1
3725,3,-7,0,7,20,23,6,0
3725,3,-1,-7,-20,-28,-38,-27,-4
3737,4,-1,4,4,-16,-24,-11,-1
3737,5,-3,-2,3,17,19,-1,10
3753,-2,-6,1,-6,-3,21,18,-10
3753,3,6,4,-6,1,-24,4,1
3761,-8,9,9,20,7,16,-5,-3
3761,5,-1,-5,-2,8,27,13,8
3762,1,1,0,0,-21,-42,-10,-2
3762,6,0,-7,-7,-4,-23,-23,-3
3784,-29,-4,-4,-2,1,11,4,-14
3784,14,0,5,-1,10,8,2,11
3785,-9,-2,-6,-4,-2,13,4,-5
3785,-4,0,2,3,-3,-3,8,-1
3798,-4,-9,2,-1,9,-10,-8,7
3798,-7,-5,-4,2,-1,22,5,-10
3806,6,14,-3,-14,3,-3,-5,-5
3806,2,-1,-4,8,-32,-49,-6,7
3822,10,8,10,23,4,11,-8,2
3822,5,1,2,2,8,-16,-14,-9
3823,-3,-9,-1,2,1,17,3,4
3823,-1,2,-5,-6,25,51,18,-4
3844,3,-8,-2,-3,18,16,24,9
3844,12,2,-6,-11,-50,-72,-35,2
3844,-14,-10,7,-7,-16,-25,-11,-22
3844,11,-1,-14,-4,9,4,1,18
3867,-7,-9,3,21,11,26,10,-11
3867,-6,-3,-2,-5,10,15,17,4
3867,2,1,4,2,-12,-32,-17,3
3867,-3,0,2,-7,-6,2,-3,-10
3881,11,0,-7,-7,5,24,8,3
3881,-2,-1,-1,-1,-5,-16,4,-10
3882,14,3,-4,-4,-5,11,-1,12
3882,-10,2,0,2,8,15,1,-1
3904,-9,-3,-1,-2,-16,-30,0,-5
3904,3,3,3,2,2,-2,-8,4
3911,-4,-5,-4,6,17,24,11,7
3911,-7,-4,-1,-8,-19,-11,-6,-9
3918,4,-2,-4,-15,-21,-28,-13,-2
3918,0,4,-7,7,13,6,0,-10
3926,-3,-1,4,12,-9,-21,-2,5
3926,2,-3,-1,-4,7,-2,-13,-7
3941,-1,-2,-1,-10,-1,6,4,5
3941,-3,-1,3,-2,9,25,7,5
3941,5,-6,-11,-20,4,4,6,6
3941,-16,0,7,14,-8,-9,4,-9
3964,5,5,4,8,-2,-9,-10,7
3964,-3,-7,-3,8,14,11,5,0
3971,4,5,1,1,0,32,8,-1
3971,3,1,-9,-19,-4,-14,-4,2
3977,-5,-2,0,-8,-24,-29,-11,-6
3977,-40,-13,-1,8,-14,-21,-13,-32
3986,26,10,5,5,11,7,0,27
3986,5,-1,-3,3,10,18,9,-15
4009,8,1,-4,-4,25,44,21,4
4009,-4,-3,3,1,16,30,11,1
4009,-11,-9,0,-10,-56,-73,-33,-15
4009,19,9,-1,2,-16,-39,-25,2
4039,-5,-3,-2,-2,9,3,0,-9
4039,7,3,-2,2,7,16,10,10
4040,-8,-4,1,10,25,33,11,-6
4040,-3,-4,-1,3,1,11,14,7
4062,-8,-2,-15,-27,-6,-6,-8,2
4062,0,2,4,4,-13,-17,-9,0
4063,-11,-2,2,-2,4,3,-3,-6
4063,-4,6,4,18,24,35,15,0
4065,10,0,-1,5,-16,-28,0,6
4065,-12,-14,-7,-23,-49,-65,-34,-14
4069,21,-2,-7,-8,7,-4,-3,7
4069,-2,0,13,2,8,19,8,1
4084,-2,-1,-1,6,33,45,13,9
4084,4,2,0,-5,-18,-13,4,4
4086,-17,-1,-3,2,-7,-22,-18,-22
4086,-6,-8,1,9,0,2,8,6
4106,-9,0,3,12,-5,-5,-10,-3
4106,14,2,-7,-13,10,16,8,-4
4107,6,5,12,10,16,19,9,11
4107,6,-6,-12,-4,-21,-17,5,0
4120,7,-4,-5,-11,-17,-41,-20,-10
4120,-21,7,7,5,8,5,-3,-13
4128,0,-1,-7,4,19,43,9,8
4128,5,0,11,-1,11,2,4,13
4144,-3,-6,-10,-8,-37,-24,-8,-7
4144,-8,-6,-5,-10,4,0,-4,-4
4149,7,6,1,4,12,26,9,10
4149,14,3,3,8,13,-1,0,-5
4166,-2,-3,2,-6,-36,-29,-5,0
4166,2,2,-5,-11,-8,-29,-20,0
4172,-5,4,1,-8,-5,1,2,-5
4172,8,-2,-5,5,14,21,5,-1
4180,-12,-3,6,16,20,18,2,-4
4180,10,-6,-1,4,-1,-2,5,3
4188,-5,-2,-1,-3,4,8,6,-15
4188,-13,2,-7,-16,-18,-10,-10,-6
4203,16,1,2,-10,-15,-42,-18,18
4203,-8,1,12,13,13,30,14,2
4206,-13,-7,-12,8,-14,-40,-6,-8
4206,3,-4,4,-4,0,4,-3,4
4226,-10,6,2,5,14,28,8,-19
4226,9,4,6,-5,-2,1,-2,9
4227,-4,-4,-7,-4,2,-1,5,4
4227,-9,-3,0,8,-11,-8,3,-2
4256,12,-1,-3,-21,7,3,0,6
4256,-4,-3,-7,-4,-6,2,1,-5
4258,-6,-4,9,19,32,37,8,10
4258,5,6,-3,-10,-57,-51,-20,-9
4264,-10,-3,-15,-17,11,-6,-6,-11
4264,2,4,4,6,16,23,2,1
4265,-19,-18,0,-3,-9,-14,0,-6
4265,-15,6,-1,1,22,10,-4,-3
4294,-1,2,6,2,0,9,13,4
4294,-2,-5,-11,-16,-37,-37,-11,4
4295,3,6,7,6,9,16,0,-17
4295,-9,-9,-6,-2,2,-4,-1,4
4300,4,3,-6,-4,18,35,10,8
4300,-5,-2,-2,-10,-9,-7,8,-2
4307,-5,-3,2,3,-35,-47,-32,3
4307,-6,-9,-5,-1,9,19,2,-16
4331,8,14,3,2,16,41,4,1
4331,2,-10,-6,-1,-3,-33,1,6
4338,17,11,-3,-19,-18,-6,-2,-5
4338,2,6,6,4,7,3,1,0
4346,-22,-12,-7,13,2,0,6,-4
4346,8,0,-5,-5,26,42,10,2
4347,0,-6,-2,-6,-15,-32,-3,-5
4347,1,-4,-4,-5,-32,-28,-10,7
4361,-6,-2,5,8,9,-6,-2,-3
4361,5,2,1,-1,3,0,-6,6
4367,6,-2,-12,-8,20,13,4,-1
4367,-11,-4,7,6,-4,6,1,7
4384,17,-2,-4,-2,-17,-30,-5,-7
4384,5,3,0,10,4,4,4,7
4385,3,2,0,-14,-10,0,0,4
4385,-8,-5,-2,0,23,25,12,-4
4412,8,1,-2,-5,-6,-2,-9,-3
4412,2,0,-3,14,-4,-21,-12,-3
4422,-1,0,3,8,-2,10,4,2
4422,6,0,-3,-7,13,28,12,5
4429,-17,-4,3,1,-10,-19,-1,-7
4429,11,1,-1,-2,-9,-7,-13,-2
4430,-4,4,-2,-1,-5,-15,-5,0
4430,2,-3,-6,-7,-4,-5,-5,-4
4452,-1,-8,0,4,7,28,9,-7
4452,-4,5,1,-5,-14,-5,3,9
4453,-2,-7,-6,-4,2,-11,-5,-7
4453,7,7,4,4,1,5,-1,2
4466,-2,1,5,10,7,5,3,5
4466,-8,-5,-8,-9,-14,-16,-6,-1
4468,-3,-1,-2,-1,-4,-1,-3,-4
4468,-13,-4,-1,-2,9,4,-3,-7
4488,2,-4,-1,8,2,15,6,7
4488,7,1,6,11,6,0,7,0
4494,-1,5,-4,-3,-4,-16,-10,2
4494,0,-4,-3,-2,7,9,-3,0
4503,-4,1,1,1,-5,-15,-5,2
4503,-9,0,0,2,1,7,5,-8
4505,-4,-4,0,-9,-3,3,1,3
4505,-29,0,-2,-8,-13,-18,-4,-3
4527,-25,1,1,-2,-1,-1,-1,-5
4527,6,-3,-11,-8,14,16,4,-1
4529,10,-1,-1,13,-6,-2,1,-5
4529,18,-3,3,1,4,-3,-7,3
4540,8,-2,-1,-1,-9,-19,-6,-2
4540,-6,3,5,7,4,6,-1,-2
4552,-2,-3,-4,-6,7,14,5,3
4552,-1,5,-3,-3,-11,-11,-4,0
4556,6,-2,-12,-8,20,13,4,-1
4556,-11,-4,7,6,-4,6,1,7
4556,17,-2,-4,-2,-17,-30,-5,-7
4556,5,3,0,10,4,4,4,7
4563,-5,-9,-2,-4,-6,-9,-4,2
4563,0,-4,-5,3,4,3,5,-3
4566,-1,4,-2,-2,12,18,7,3
4566,1,4,0,4,-17,-23,-4,-5
4586,7,-10,-2,-4,-7,-12,-10,5
4586,-3,-4,2,2,2,-7,-6,-4
4588,-2,-4,0,2,7,6,2,3
4588,-10,-5,-3,-3,8,9,4,-9
4608,17,8,-2,0,4,18,6,2
4608,0,-1,-2,-4,-8,-8,-4,-2
4611,-1,-1,3,2,-8,-7,-3,-1
4611,0,-6,-3,0,2,-1,-2,-11
4632,8,1,-4,-16,-9,-3,-5,-8
4632,-3,1,3,6,8,13,2,0
4633,0,1,1,-1,-6,22,8,-2
4633,1,-1,-4,-12,-6,-36,-13,5
4646,-5,4,4,8,-13,-15,-11,0
4646,-7,-1,-1,1,1,-11,-1,0
4647,-14,-4,-5,-8,-6,-3,-1,1
4647,-16,-2,7,5,11,25,6,3
4660,-11,1,3,6,18,8,5,2
4660,4,0,0,-9,-11,-6,-6,0
4677,7,1,-1,12,3,-14,-4,-5
4677,26,-2,-7,-25,-17,1,3,-4
4684,20,1,-3,2,11,5,2,11
4684,8,-1,-15,-1,-5,0,3,-5
4685,14,-3,0,-3,10,-6,0,2
4685,-1,-2,1,0,-27,-33,-11,-2
4706,-8,-4,-11,-10,-7,-6,-11,-10
4706,-3,3,5,8,14,16,5,-1
4708,-4,-3,-3,-7,-4,3,6,3
4708,0,0,-1,4,11,9,4,1
4729,-13,1,-2,2,3,10,5,5
4729,-9,-3,-1,-7,0,-8,-2,-5
4730,-3,6,4,-8,-19,-20,-6,-11
4730,-1,-4,-2,0,-3,-23,-9,5
4751,2,0,3,3,-3,3,-1,-1
4751,-3,0,5,27,27,41,4,-8
4752,-4,0,3,-7,-20,-28,-8,-1
4752,0,-1,-8,-7,-11,-5,-9,0
4767,5,8,4,-3,-2,-5,7,7
4767,-1,-4,-3,-6,5,1,2,9
4768,-6,-6,-3,18,26,25,6,4
4768,0,3,3,-10,-16,6,6,-2
4780,-4,3,5,4,11,-10,-8,-5
4780,-2,-5,0,0,-12,-1,-2,1
4788,-2,3,-8,-11,-17,-17,-11,-3
4788,3,-2,-3,6,2,0,2,-3
4803,2,-4,22,33,8,-4,1,-5
4803,-6,6,-17,-47,-22,14,-5,-28
4810,9,1,2,16,12,-20,-6,36
4810,1,-8,3,-4,11,20,9,2
4826,-2,2,-20,12,5,3,2,-10
4826,2,-6,1,-15,-22,-19,-1,8
4828,-9,-2,4,-1,6,36,-1,-22
4828,3,3,2,20,22,-15,1,3
4840,6,-2,-8,-25,-29,6,10,-4
4840,-5,-4,-13,2,12,-20,-5,-4
4848,-2,-13,-9,-7,-8,12,-3,-22
4848,3,12,6,4,-4,-5,-9,-6
4863,0,-3,1,-4,-4,-11,-7,-20
4863,-1,2,-5,-2,-7,-3,-4,-10
4870,-7,0,27,9,6,-4,-3,-18
4870,2,-1,-1,8,28,40,9,-10
4887,-6,-2,-8,-28,-43,-39,-8,10
4887,3,0,13,-7,-10,-19,-4,-28
4888,-9,-15,-11,3,3,-16,-7,-8
4888,-7,-6,3,5,9,2,0,2
4908,-1,4,-2,-4,14,23,3,11
4908,7,2,7,6,3,29,4,17
4916,-7,5,5,8,-2,-24,5,-29
4916,1,-5,-5,-2,-21,-14,-2,11
4923,-4,5,-26,-15,2,0,-6,0
4923,-6,-12,26,14,-3,-18,-7,-11
4930,5,1,1,-1,6,23,4,1
4930,-7,10,-4,-6,-4,10,-8,-39
4946,10,-2,-3,6,7,5,14,-83
4946,0,2,-4,-1,8,29,9,-8
4948,-10,1,-2,-7,-24,-40,-13,-24
4948,-5,-17,-32,-4,4,-7,-11,-46
4969,6,-17,6,7,8,11,4,-2
4969,0,8,5,-7,9,26,11,81
4970,1,4,9,1,-13,-1,8,-5
4970,0,6,-9,-6,8,5,-3,-17
4983,-15,-20,8,6,-3,-6,-8,-4
4983,11,3,-1,7,1,8,1,8
4989,-7,-2,-32,-23,-7,-22,-4,-1
4989,-4,-8,23,16,-2,-7,2,42
5006,-1,14,11,15,23,77,14,13
5006,14,-14,3,1,-9,-70,-15,8
5008,7,9,7,-3,-9,8,-7,21
5008,-11,-6,-1,-10,-5,-8,-1,-26
5037,3,4,6,-12,-3,-2,5,5
5037,-33,-11,-14,7,-1,-8,-5,-69
5038,34,-9,-19,1,17,8,12,-16
5038,6,16,13,-4,-9,0,-11,-6
5043,-13,-4,-2,-7,-8,-26,-12,-8
5043,-25,-1,-18,3,-2,-7,-13,-37
5049,23,-3,-20,7,10,26,17,3
5049,17,2,7,4,1,5,17,40
5073,-8,0,-15,-8,-6,-19,-14,-25
5073,28,-2,-3,-12,-4,-2,5,39
5075,-2,19,4,3,3,15,8,8
5075,-4,-3,-3,-7,8,26,-2,5
5089,5,4,6,5,11,0,7,21
5089,-14,-12,-5,-5,-25,-58,-18,-23
5090,-19,-4,3,-8,-16,-2,-18,-3
5090,6,5,-2,2,-5,-11,2,14
5103,-17,-14,-4,-10,6,14,-2,4
5103,10,14,3,12,15,25,10,-10
5117,-2,5,-2,-7,-8,-10,-11,-53
5117,18,-5,13,6,-3,1,15,61
5126,5,-7,-23,-5,-2,-8,1,-16
5126,7,1,7,0,4,12,3,-1
5127,-19,-8,-1,4,15,25,-6,-9
5127,-5,3,-8,1,-1,-20,4,-7
5149,9,1,10,8,-8,-13,-7,35
5149,13,7,-7,-3,2,2,-7,13
5150,-11,-2,5,7,4,10,6,31
5150,-8,5,3,-8,-10,-32,-19,-38
5162,9,-9,3,7,8,15,9,9
5162,-8,-8,-7,-10,-9,-2,5,-9
5171,-6,-7,8,6,-3,1,-7,-9
5171,-1,-3,10,12,29,18,4,0
5186,4,7,-19,-11,-30,-25,0,15
5186,-3,3,-4,-22,-10,18,2,2
5188,3,-4,2,-3,-5,-29,-8,13
5188,-10,-8,-19,-12,-4,-2,-2,-42
5208,-7,6,18,14,11,4,0,-5
5208,1,2,5,10,5,25,11,-71
5211,0,3,-3,-10,-7,-17,3,28
5211,-5,1,0,-2,-4,-2,-1,-16
5231,6,-1,9,3,4,4,-8,-13
5231,4,24,6,11,1,-8,5,17
5232,3,-6,0,3,5,-3,0,-12
5232,-8,-9,-5,0,-4,6,-8,-24
5254,-1,-1,-4,-14,-8,-8,2,-14
5254,-6,-6,-7,-8,4,22,-6,30
5255,2,1,4,-7,-14,-33,0,13
5255,1,1,-5,-6,-9,11,4,33
5268,-17,-6,-3,-7,-5,-21,-25,-106
5268,9,0,10,11,5,0,14,90
5275,-13,-8,3,-1,-2,11,-4,-31
5275,0,-25,-23,-19,-3,4,-6,-7
5291,27,36,38,36,19,19,8,-2
5291,-7,-6,-12,13,13,-9,1,-24
5293,-2,-1,4,-24,-29,7,4,6
5293,-13,-14,-24,-42,-35,-29,-6,-11
5307,-4,-8,0,-1,5,6,-9,19
5307,-2,3,9,13,11,-23,-7,-16
5308,5,2,-1,17,20,13,14,28
5308,-1,6,7,10,2,15,-6,-23
5345,1,-3,-11,-5,10,-18,1,24
5345,-9,-6,-3,-11,-29,6,-5,-16
5347,-3,-6,-10,-16,-8,-12,-8,-18
5347,14,12,6,8,-5,-15,-8,-10
5351,-1,2,3,6,5,9,4,34
5351,-4,-7,-4,-1,6,-2,-3,0
5358,-7,-16,-6,5,20,16,2,-1
5358,17,47,20,18,8,28,10,3
5366,-15,-13,0,12,-5,1,0,-50
5366,1,-1,-2,-11,-14,-44,-3,29
5373,2,4,-3,-7,-16,-10,-5,-8
5373,-3,-10,-9,2,16,-2,-8,19
5396,-8,-11,-1,-9,-5,10,4,-4
5396,3,6,5,13,3,12,-2,-19
5398,-6,-4,-3,16,31,9,1,4
5398,-4,-8,-1,-6,-19,-10,-4,-63
5402,6,4,-8,-13,-8,3,12,59
5402,-2,-8,0,3,15,15,8,-20
5411,-1,1,1,-2,-8,8,6,-9
5411,-7,1,-4,2,-2,-32,-3,6
5426,-2,-2,-6,-8,-10,-20,-17,-55
5426,-11,-4,-4,-3,3,4,-12,-9
5427,3,8,4,-10,-17,11,-12,-18
5427,11,6,5,1,10,17,14,4
5448,3,-1,-4,-10,-12,0,16,10
5448,2,-16,-7,-3,-4,-14,3,-11
5450,-4,7,3,7,2,-14,-15,-15
5450,-19,-17,-3,-6,-12,-10,-26,-88
5462,11,10,-11,7,15,11,11,86
5462,1,4,-1,-12,0,45,12,-24
5471,-4,-7,-10,-3,-11,-49,2,2
5471,-9,-4,20,12,14,1,-2,-8
5486,-33,-18,0,-18,-25,-25,-42,-84
5486,43,33,15,15,27,28,45,79
5488,0,3,-11,-12,-7,19,1,-23
5488,22,10,7,17,12,16,26,42
5509,-15,-4,-4,2,-6,-14,-13,-64
5509,-30,-26,-5,-13,-20,-32,-50,-44
5510,21,21,15,33,49,22,37,18
5510,9,-8,-3,-27,-37,5,15,56
5532,11,0,-25,-13,1,7,18,4
5532,-58,-26,-13,0,8,-15,-27,-128
5534,13,3,-1,-3,3,1,-16,27
5534,44,9,-8,8,-5,13,33,107
5553,-12,8,18,-4,-7,-12,-17,57
5553,25,1,1,1,9,1,7,46
5562,-33,-35,-11,22,0,6,-14,-40
5562,1,6,14,-1,-4,13,18,-58
5569,-1,0,-13,-2,-7,-14,-13,16
5569,16,14,29,9,2,-19,0,3
5570,2,-12,-38,-18,-12,5,-5,-71
5570,-22,-14,-12,-22,-23,-16,-29,-108
5582,-5,-16,-19,0,10,11,22,-32
5582,22,17,19,23,21,20,-7,-39
5598,-37,4,-2,-15,-19,-10,24,18
5598,24,-37,-36,9,-6,-31,-21,66
5606,-28,30,43,43,47,12,-26,-119
5606,-9,-23,-25,-94,-60,-19,-15,-20
5607,11,6,16,-9,-11,10,2,-13
5607,-48,0,24,28,12,-4,-15,-108
5628,-17,-64,-65,-60,-18,-15,-5,-13
5628,40,63,40,50,26,8,39,118
5630,-21,-8,16,40,-8,-14,-62,-102
5630,6,28,24,7,38,18,16,13
5652,-1,-15,-18,42,9,2,-1,-3
5652,-7,-23,-9,-72,-60,5,5,-2
5653,4,-14,-12,-20,-24,-15,63,77
5653,-32,9,10,25,39,-6,-65,-84
5666,20,26,-20,-24,-16,12,15,42
5666,-20,-18,-48,-17,-1,-11,-4,-6
5668,18,-14,29,47,12,3,5,68
5668,-7,5,-16,-31,-20,4,19,40
5689,4,24,18,-1,-11,-10,-13,-48
5689,-1,-9,16,50,14,-5,-11,-15
5690,-1,16,1,11,29,26,-23,-108
5690,5,-4,-20,-68,-34,-1,34,49
5702,-7,-2,33,14,-15,-23,-17,-33
5702,-31,-19,-22,-16,-13,-6,6,-39
5711,64,17,3,6,18,3,8,116
5711,-25,-14,-13,-9,-2,-10,-24,-52
5726,19,14,6,-5,-23,8,13,-30
5726,9,7,-44,-41,4,10,5,-39
5732,-19,4,58,15,20,5,-3,-57
5732,-46,-27,12,42,3,-9,-50,-81
5749,104,27,42,40,42,37,104,127
5749,-1,6,-14,21,-10,9,15,-23
5750,-9,-5,-55,-45,-43,-23,-12,-23
5750,-10,-5,-1,-15,-12,-14,-28,-97
5763,-2,-4,5,4,8,2,-6,-56
5763,3,15,-3,31,43,29,1,-28
5772,-3,6,-3,-17,-12,-6,21,4
5772,18,5,5,10,2,-3,14,13
5785,-32,-20,-37,-70,-26,-24,-39,-58
5785,8,2,25,25,10,-2,1,44
5792,-12,-10,9,0,0,1,-10,20
5792,-36,-5,-10,18,18,8,-36,-91
5808,60,21,17,20,14,28,91,112
5808,-23,-1,7,6,-23,-19,-24,-126
5816,0,5,-4,-45,-12,-1,1,-35
5816,5,-8,12,13,8,9,9,-29
5839,-29,-5,-1,-5,-6,-9,6,46
5839,30,26,33,33,29,24,39,16
5840,-10,1,-17,-10,-3,-7,-14,-60
5840,19,-13,-78,-31,7,19,28,51
5853,-33,-11,42,-19,-24,-1,-18,-47
5853,-11,-2,24,34,-1,-43,-40,52
5856,-34,1,12,16,-11,-14,-50,-115
5856,66,29,6,-18,-2,17,92,127
5869,-24,-17,-34,5,-1,-1,-31,-85
5869,-5,-13,-26,-50,-9,14,-5,-69
5870,23,-2,18,19,15,1,3,11
5870,0,15,27,45,27,30,27,70
5893,-15,-3,-14,-11,-29,-42,-28,-51
5893,-3,-19,-10,-25,-24,-30,-18,-25
5895,-17,18,-7,1,14,-8,-19,-22
5895,1,5,18,-6,-11,1,-9,-4
5905,12,6,-15,-5,21,29,8,38
5905,-19,-16,3,24,-1,8,-12,-128
5912,13,-18,-14,-17,5,0,25,109
5912,-11,-30,-4,-12,-13,-23,-19,-36
5936,-9,19,31,-2,-3,11,-1,-11
5936,-5,-9,-24,-7,-7,-8,-25,-18
5938,25,-4,-1,24,27,22,42,60
5938,-6,31,24,-11,-5,-15,-24,-115
5951,0,-24,-21,0,1,8,-28,-58
5951,-11,-19,-10,-1,10,6,25,5
5952,3,2,13,2,-3,-4,21,-31
5952,-4,-8,-10,4,-11,-34,-32,17
5966,6,21,-5,-4,1,-7,-10,16
5966,6,7,19,1,-1,4,-3,20
5973,1,-5,-14,-17,1,15,1,-17
5973,-1,18,11,5,-8,3,15,13
6004,-12,-16,17,15,3,-13,-21,-65
6004,11,9,0,-9,-5,1,15,100
6005,-8,2,17,13,-1,-7,-10,-22
6005,-5,-6,-2,9,11,3,-8,-36
6011,6,1,-1,-18,-9,9,15,27
6011,-10,-2,-9,-22,-14,-9,9,-3
6012,-7,1,-16,-12,-13,-16,-26,-72
6012,7,-2,-4,-2,2,2,4,-31
6026,-8,-4,1,27,13,0,-7,36
6026,-3,-6,-14,-1,-3,-5,-14,-43
6032,22,-2,-3,-10,-5,11,14,48
6032,-7,-7,-7,-1,-2,-3,6,50
6049,10,-8,-12,-5,1,-4,-11,-23
6049,3,5,-4,-6,-4,-1,-4,-8
6050,-15,-4,8,3,-5,-4,-1,5
6050,-1,-9,-9,0,-4,-4,3,31
6071,-5,20,9,8,7,-4,-10,5
6071,1,-10,-6,7,-7,-2,5,51
6072,-3,-4,-5,-65,-42,-7,-1,-17
6072,6,-10,5,-1,-4,-3,-2,19
6085,-2,2,1,-1,0,-9,-10,-41
6085,8,3,-17,24,10,1,12,64
6093,-5,13,27,6,39,4,-10,-5
6093,2,0,11,34,-32,8,9,10
6116,-8,-24,-62,-59,-4,-9,-6,-29
6116,6,12,38,5,3,2,-7,15
6117,-2,-10,-43,3,1,-1,-4,5
6117,-8,6,24,3,8,-2,-7,-19
6131,-3,2,30,47,19,3,6,31
6131,-4,0,4,0,-10,5,9,23
6133,0,2,-12,-26,-20,-4,-1,47
6133,-3,-11,-65,-32,0,-13,-11,14
6145,-4,6,88,46,0,4,-1,-47
6145,-8,0,23,21,16,1,-5,-12
6154,8,3,9,22,0,1,-8,-109
6154,-1,2,-37,-17,4,7,8,52
6168,-12,-15,-55,-22,-22,-11,-16,-76
6168,-11,-2,-1,-29,-12,-14,-21,40
6170,2,-1,34,27,16,17,52,30
6170,29,2,11,-2,1,2,0,-50
6191,-2,3,1,12,2,5,1,-41
6191,-35,-1,18,-20,-12,-19,-41,-126
6193,-16,-21,-58,-6,-11,-6,-11,13
6193,34,-9,1,-4,9,0,23,96
6205,-2,32,19,8,6,2,-10,-1
6205,13,1,-1,-16,-4,7,20,83
6238,19,2,-4,3,-2,-4,-4,-8
6238,-8,6,13,7,8,9,20,-6
6239,3,-7,-17,-8,-3,1,-1,-13
6239,4,-7,-19,-1,-1,-1,-4,-50
6251,-14,-2,6,-2,-3,-5,-18,-58
6251,-9,-7,6,8,2,-5,-11,-74
6259,-2,-1,-8,-13,-4,2,11,26
6259,-4,-3,-8,2,3,5,6,-22
6261,-1,0,6,3,-1,-2,-2,31
6261,-22,1,11,2,-3,-6,-15,-17
6274,1,-9,-7,-7,-2,-1,-1,29
6274,3,2,0,4,6,4,1,-5
6279,-1,2,5,4,1,-3,-5,17
6279,-11,-1,-5,-8,-4,-2,-8,-7
6297,1,-6,-8,-12,-3,-1,9,36
6297,3,-6,-8,11,1,-2,-1,-24
6298,-2,6,6,-4,-5,-2,-7,-4
6298,0,0,2,-2,-3,-1,-4,-14
6319,1,-3,0,0,1,2,14,39
6319,-2,3,2,1,2,1,-4,-39
6320,-3,-2,-7,0,0,0,-5,3
6320,-5,0,4,-5,-2,-1,-2,-16
6325,-1,-3,-1,-4,-3,-2,-3,2
6325,0,-2,-5,-5,-4,-1,0,-1
6333,-3,0,0,1,0,1,-1,3
6333,-6,-1,2,0,-1,0,-1,9
6351,0,-3,-2,1,-3,-4,1,16
6351,-5,-2,-6,1,-2,-3,-4,-26
6352,7,2,3,-1,-1,1,11,99
6352,-1,-1,4,2,-2,-4,-13,-75
6371,7,-3,-3,1,1,0,21,82
6371,4,0,0,-1,2,1,9,50
6372,-5,-2,-1,0,-1,-2,-8,-51
6372,-2,-1,-1,-3,-1,-1,-6,-21
6393,-2,-3,-1,-1,0,-2,-6,-22
6393,0,0,0,2,0,3,2,-8
6394,0,0,-2,1,-1,-2,-2,-8
6394,-4,-2,-1,0,0,1,5,32
6409,-1,-1,-1,0,-1,-1,-6,-20
6409,0,1,0,1,2,-2,-1,-2
6410,-6,-3,-3,-1,-1,-1,-5,-22
6410,-4,1,0,-3,-1,-1,-2,-11
6431,-3,0,-3,-1,-3,-2,-1,-6
6431,1,1,-2,0,-3,-1,0,-2
6433,-2,-1,0,-2,-2,-1,-2,11
6433,0,1,1,-2,0,2,1,29
6453,-1,0,-3,-1,-2,2,-4,6
6453,-1,-1,-2,-1,0,3,-2,10
6456,1,1,0,-2,-2,0,-3,-18
6456,0,0,-2,0,-2,-3,2,8
6476,-2,-3,0,-1,-1,-3,-4,-9
6476,-2,-1,0,0,-1,0,0,-5
6477,1,-1,-1,-1,0,2,-1,-5
6477,-1,-1,1,-1,-1,-1,1,0
6491,1,-1,-1,-1,-1,-4,0,-8
6491,6,1,1,0,0,-1,2,-3
6493,-2,0,-2,-2,1,0,-1,-11
6493,-2,-3,-1,-1,0,-2,-1,1
6504,-1,-1,1,-1,-1,-2,0,-10
6504,-2,-1,0,-1,0,-3,1,-2
6514,1,-1,-1,-3,-2,-3,-2,-5
6514,0,-1,-1,-3,0,0,-2,-1
6529,-2,-1,-2,0,-1,1,-1,0
6529,-2,-2,-2,-1,-2,-1,-4,2
6530,1,-1,0,1,-3,-2,-2,2
6530,1,0,0,-1,-1,0,2,4
6551,2,1,-1,-2,0,1,-1,0
6551,2,-2,-2,1,-1,-1,1,1
6553,-6,-1,0,-1,-1,-1,-1,-4
6553,-2,0,-1,1,-1,-1,0,-2
6564,-1,-2,-1,-2,-2,-2,0,-3
6564,-3,1,-2,0,-2,-1,-1,-1
6573,1,-1,-1,-1,0,-1,-2,0
6573,5,1,1,-1,-1,-2,-1,-1
6588,0,0,0,-1,-2,-2,-3,-1
6588,-1,-2,-1,-2,-1,-1,-3,-1
6591,-1,-1,-2,-1,-2,-1,-1,-2
6591,-2,0,-1,-2,1,-2,-3,0
6611,0,-3,-2,-1,1,-2,-1,0
6611,-1,0,-1,-1,-1,-1,1,0
6613,2,1,-2,1,0,-1,1,-2
6613,-1,-2,-1,-1,0,0,-1,-2
6624,0,-2,-3,-2,-2,0,-2,-1
6624,-2,-1,-2,-1,0,-1,-2,1
6633,-3,-2,-3,0,-1,1,-2,0
6633,-4,-2,-1,-3,-1,1,-1,-1
6649,-2,-2,0,-2,1,0,0,0
6649,0,0,0,-2,0,-1,0,-2
6650,0,-1,0,-2,0,-3,-2,8
6650,-1,0,-3,-1,1,-2,-1,6
6671,0,0,-2,0,-2,-2,-1,0
6671,-1,-1,0,0,-1,-2,-2,-4
6674,-1,-1,-1,0,-2,-1,0,-8
6674,-2,-1,-2,0,-1,2,-1,-6
6685,-2,-1,-2,-1,-3,-1,-1,-3
6685,0,0,-1,0,0,0,-1,-2
6694,0,-1,-2,-2,-1,-1,-2,-2
6694,-1,0,-2,0,-3,1,-1,-1
6709,-1,1,0,-1,0,0,-1,1
6709,-1,-1,0,-1,-2,-2,0,2
6715,-3,-2,0,-1,-1,-2,0,-1
6715,-2,-2,-1,-1,-2,-3,0,-1
6731,3,2,-1,1,-1,0,2,-1
6731,0,-1,-3,-2,0,-3,-2,1
6733,-4,-2,-2,-2,-2,-1,0,-2
6733,-2,-1,0,-2,-1,0,-1,-3
6745,-3,-4,0,-1,-1,-4,-3,-1
6745,-2,-1,-1,-2,-1,-1,-2,-2
6754,0,0,-1,-1,-2,0,0,-3
6754,-3,-2,-1,1,-1,-2,-1,1
6768,-1,-1,-2,-1,-1,1,-2,-2
6768,5,-1,-1,-2,0,-1,-3,-1
6775,3,-2,0,0,1,-1,-2,1
6775,-1,0,0,-1,1,2,0,0
6791,-3,0,-1,0,0,-3,-4,0
6791,-1,-1,-2,-1,-2,0,-1,-1
6793,-2,0,-1,-1,-3,-2,-2,-1
6793,1,-1,-2,0,1,-2,-1,-1
6805,-2,0,-1,0,-1,-1,-2,-1
6805,-4,-1,0,0,-1,-2,-1,-2
6814,-1,-1,-2,-1,0,-2,0,-1
6814,0,0,-3,-1,-1,-2,2,-1
6828,-3,-4,-3,-1,-1,-1,0,0
6828,-1,-3,-1,-1,0,-1,-1,-1
6835,-3,-1,-1,0,-1,-1,-2,0
6835,-1,-1,-1,0,-1,1,-2,-2
6851,3,1,-1,-3,-1,-1,-2,-1
6851,-3,0,0,-1,0,0,1,-1
6852,-1,-1,0,-1,-1,-1,0,-8
6852,-1,-1,-2,-2,-2,-1,0,1
6865,-3,0,0,-1,-1,-2,-1,2
6865,-1,1,-3,-1,-1,-2,0,3
6873,-2,-2,-2,-1,1,0,-2,1
6873,4,1,0,-1,-3,-1,0,-1
6888,-2,-2,-1,-1,-2,1,0,-2
6888,0,-1,-1,1,-1,0,0,-3
6895,-1,-2,0,-2,-2,-1,0,-3
6895,-3,-3,0,-1,0,-1,-2,1
6911,-2,-1,-1,-2,-1,-3,0,0
6911,0,-3,0,-1,-2,0,1,1
6912,-4,-3,-1,-2,-1,-2,-1,0
6912,-3,-1,0,-2,-3,-1,0,-2
6934,4,-1,0,-2,1,-4,0,0
6934,1,0,-3,0,-1,-2,-2,-2
6935,1,-1,0,1,0,0,-2,3
6935,-2,0,-1,2,0,1,-2,-2
6948,-2,-1,-1,0,1,-1,0,-2
6948,-3,-1,0,-1,-2,-1,0,-4
6962,0,0,-1,-1,1,0,-1,-2
6962,0,-1,-3,-2,1,-1,1,-3
6971,0,1,0,-1,-3,0,0,-4
6971,-1,-2,-2,0,-1,-2,-3,-3
6973,1,-1,-1,1,-3,0,0,-2
6973,-3,-1,1,1,-2,-1,-3,-2
6993,-5,-2,-1,-1,-1,-2,-1,-1
6993,-2,-1,-1,-3,-1,-1,1,-1
6995,-2,0,-1,-1,1,-2,-1,0
6995,-2,0,-4,-2,0,0,-1,1
7008,-1,-2,-2,-2,-1,-1,-1,-1
7008,-2,0,-2,0,-1,1,0,1
7015,2,-1,-2,1,-1,-1,-2,6
7015,1,0,0,0,0,-3,-2,-1
7031,-5,-2,-3,1,-2,-1,-1,-4
7031,-1,-2,-1,-2,0,-1,-1,-5
7033,-2,-2,-2,-1,-1,-2,1,-3
7033,-1,-2,-2,-2,-2,-3,-2,0
7054,-5,-2,-2,-1,-2,0,-1,-2
7054,1,-1,1,0,-2,-2,0,0
7056,0,1,-1,0,-1,2,1,-3
7056,-1,-1,0,0,-2,-3,0,1
7067,2,2,0,-2,-1,1,-1,0
7067,-1,-2,-2,-1,-1,-1,-3,-1
7076,0,0,1,-2,-1,-2,1,1
7076,2,-1,-1,-2,-1,-1,-4,-1
7091,2,-2,0,0,-1,2,-1,1
7091,0,1,-1,1,0,-1,-1,2
7093,-1,-1,0,-1,-1,-2,-1,-1
7093,-6,-3,0,-3,-1,-1,0,-3
7114,2,0,-1,-2,2,-1,-1,1
7114,0,0,0,0,-1,-3,0,0
7115,-3,-1,-3,-1,-2,-1,-1,-3
7115,-2,-1,-1,0,0,1,0,-1
7128,-1,-2,-1,-2,0,-1,-1,-3
7128,1,-2,1,-1,-2,-1,1,-4
7136,-1,0,-1,-2,-2,-4,-1,-4
7136,1,0,-1,-1,-1,-2,0,4
7151,-3,-2,-3,0,0,3,-1,-1
7151,-4,-3,-1,-2,-1,0,-1,0
7153,-2,0,-1,-1,-2,0,-3,0
7153,-4,-1,-1,-1,-1,-2,-2,-4
7173,0,-2,0,-1,0,-3,1,-1
7173,-2,-1,-1,-2,1,1,0,1
7175,-1,-2,-2,-2,-1,-1,-3,-2
7175,1,-1,-1,0,-2,1,-1,0
7188,-1,-1,0,-1,-2,-2,-1,0
7188,-2,-1,0,-2,0,0,-2,-2
7197,2,-1,0,-2,-1,1,-1,0
7197,1,-1,0,-2,-2,-2,-1,-1
7210,-4,-1,-1,-2,-1,-2,-1,1
7210,-2,0,-2,-1,0,-1,-2,-1
7217,-1,0,-2,-1,0,-1,0,-5
7217,-2,-1,-1,1,0,0,2,-5
7233,1,-1,-1,1,-1,-1,0,-3
7233,-2,0,-2,1,-1,-3,-1,-2
7234,-1,0,-2,0,0,-1,-1,0
7234,0,-1,-2,-3,-2,-1,1,-1
7247,-1,-1,-2,-1,0,1,-3,1
7247,-2,-2,0,1,-2,-2,0,2
7256,0,0,0,-1,-1,-3,-1,0
7256,0,0,-2,0,0,0,-2,2
7271,-1,-1,-2,-2,0,-1,-1,0
7271,0,-1,-1,-2,-1,0,-1,1
7273,-2,-2,1,0,-3,0,-1,0
7273,4,1,-1,0,0,-1,0,1
7294,-4,-3,-1,0,-3,0,-2,-2
7294,-2,0,-2,-2,-1,0,0,-2
7295,-1,0,0,-1,0,-1,1,0
7295,1,0,-1,0,0,-1,-1,-1
7307,2,1,1,-1,-1,-1,-3,0
7307,0,0,-3,-2,-1,-2,-2,0
7317,-1,-1,-2,-3,-1,2,1,-1
7317,-2,0,-1,-2,-1,-4,1,-2
7338,4,2,-1,-1,-2,-1,2,-2
7338,-1,0,0,-2,-1,1,-1,-2
7341,-3,-1,-1,1,1,-1,-2,0
7341,-3,-2,0,2,-2,1,-4,-3
7354,-4,-2,-2,0,-1,-1,0,0
7354,0,-3,-3,0,0,-1,-1,1
7356,-3,-2,-3,-1,0,-1,1,-2
7356,-2,-2,-1,-4,1,-1,-1,-4
7367,1,0,-1,0,-1,-1,-1,0
7367,-2,-4,0,-1,-2,-1,-3,-1
7376,-1,0,-1,-1,-1,-2,-2,0
7376,1,-1,-2,-1,0,-2,-2,-1
7391,0,-1,0,-1,1,-2,-1,-2
7391,-2,-1,-2,-2,-1,-1,0,2
7392,0,-1,0,-1,-1,1,-3,0
7392,-3,-2,0,0,-3,-1,0,1
7413,-3,-2,-2,-1,-1,-1,0,3
7413,3,0,-1,-1,-2,-2,0,-1
7414,2,0,-1,0,-1,-1,0,-2
7414,0,0,-2,-1,0,0,-1,0
7427,1,-1,-3,-2,-2,-2,0,-1
7427,-2,0,1,-1,-1,0,-1,-3
7436,0,-2,-1,-1,-2,-2,-2,1
7436,0,0,0,-1,-2,-1,1,-1
7451,-2,-1,0,-1,-1,-1,-1,-3
7451,-1,-1,-1,1,0,-1,-1,-2
7452,2,0,0,-1,0,-2,0,-1
7452,0,-3,-1,-1,-1,1,0,-1
7472,2,-2,0,0,-1,0,-1,0
7472,-1,-1,0,0,0,1,-1,0
7481,-1,-3,-2,-1,-2,-1,0,3
7481,-1,-1,-2,1,0,-1,-1,-1
7487,-2,-3,-2,0,-1,0,-3,-1
7487,1,-1,0,-1,-1,0,-2,-2
7503,3,-1,-1,0,1,0,-1,-2
7503,-4,0,0,0,0,-1,0,-2
7511,0,1,-1,0,-3,0,0,-2
7511,-1,0,-2,-2,-2,-2,2,-1
7512,-3,1,-1,-1,-1,0,2,-3
7512,-2,0,-2,-2,-1,-1,-3,-2
7534,-2,-1,-2,-2,-2,-1,-3,0
7534,-5,-1,0,0,-1,-1,-2,-2
7535,-1,0,-1,1,-1,-1,-2,-2
7535,-1,-1,-1,-1,-1,-2,-2,1
7547,-2,-3,0,-1,1,-4,-2,0
7547,1,0,-3,0,-1,-2,0,1
7556,-2,-2,-3,-2,-1,-1,-3,0
7556,-3,-2,-1,0,0,-1,0,-1
7571,0,0,0,-1,-2,1,0,-2
7571,-2,0,-2,-1,0,0,-1,-1
7572,-2,-2,-1,-1,-1,-2,1,0
7572,0,-1,-1,0,-2,0,-1,2
7594,-4,-1,-3,0,0,0,-1,1
7594,-3,-1,-1,-2,0,1,-3,-1
7595,-3,-2,-2,-2,-2,-2,-2,-2
7595,-2,-1,-1,0,-2,1,-2,-1
7607,0,-1,-2,0,-2,0,0,1
7607,0,-1,-2,-1,-2,-2,-1,-1
7617,-5,-1,-2,-3,-1,-1,-2,-3
7617,1,1,0,-4,-3,-1,1,-2
7631,-1,0,-1,-2,-2,0,0,-3
7631,-1,-1,-3,-1,-1,-2,-2,-4
7637,0,-1,0,1,-1,-2,-1,-1
7637,2,-1,0,0,0,1,-1,-2
7654,4,0,-1,-1,-2,0,-1,0
7654,0,-1,-1,1,-4,-4,-2,0
7655,1,-1,0,1,0,1,3,1
7655,-2,-4,0,0,-2,0,3,0
7667,-2,-3,-1,0,-2,-1,2,0
7667,-1,-2,-1,1,1,1,-1,0
7676,-1,0,0,-1,-2,-1,-3,1
7676,-2,-1,-1,-1,-2,-1,-1,1
7690,1,0,-1,-4,1,-2,1,-3
7690,0,-1,-2,-1,0,-1,2,3
7697,-3,-1,-2,-1,-1,-1,1,-3
7697,0,1,-1,-1,0,-2,-1,-2
7713,-3,-2,0,0,0,-3,-1,-1
7713,0,-2,0,-1,-1,-3,-1,-6
7715,-1,-1,-1,0,-2,1,-2,-3
7715,-1,-5,-1,-2,-1,0,-2,-1
7727,-2,0,-1,-1,-3,1,0,-3
7727,1,0,0,-2,0,-2,2,2
7736,0,0,-1,0,-1,0,-2,1
7736,2,1,-3,-2,-1,-1,-3,1
7751,0,-1,-2,-1,0,-1,-1,-1
7751,2,-1,-2,-1,-1,-1,-1,0
7758,-1,0,-1,-1,-1,-2,-1,1
7758,1,2,-3,-1,0,-2,1,-1
7781,-1,-1,-2,-1,-1,1,0,0
7781,-1,-1,-1,-2,-3,0,0,-3
7782,1,-2,1,-2,0,1,-3,-8
7782,0,0,-2,-2,1,0,-1,9
7788,-3,-1,1,-2,0,0,-2,-1
7788,-2,-2,-1,-1,-2,1,0,-1
7797,-5,-3,-1,-3,-1,-1,-2,-1
7797,3,1,1,0,0,-1,1,-6
7810,-2,-2,-1,-1,0,-1,2,0
7810,-3,-2,-1,-1,0,-1,2,-1
7817,-4,-2,-2,1,-2,-1,0,-3
7817,0,-1,0,0,-2,-1,-3,-5
7833,-3,0,-3,-1,-2,-1,-3,-5
7833,0,0,-1,-1,-2,-1,-4,-5
7836,1,1,-1,-3,-3,-2,0,0
7836,-5,-4,-2,0,-1,-1,0,-2
7856,1,0,1,0,-1,-1,0,1
7856,3,0,-1,-1,-1,-4,1,2
7858,-1,0,-2,0,-1,-1,2,2
7858,-4,-2,-1,-2,-2,0,0,0
7879,0,-2,-1,-3,0,-1,-4,-3
7879,-1,-1,-3,-2,0,1,-4,6
7881,0,0,-1,-1,-1,1,-2,0
7881,-3,0,-2,-1,-3,0,-2,-1
7893,-4,-2,-2,0,-1,-1,0,1
7893,-2,0,-1,0,0,-2,-2,-5
7895,1,-2,1,-2,-1,-3,-3,1
7895,0,-2,-1,-1,-2,1,1,-2
7916,-1,-1,-2,0,-2,-1,-2,-1
7916,0,-1,-2,0,0,-1,-4,0
7917,0,0,-4,-1,-2,0,1,-1
7917,-4,-1,0,-1,-1,-4,-3,-1
7931,2,0,-3,0,-2,-5,0,1
7931,-4,-1,-1,-1,0,-1,3,-1
7937,-5,-1,0,2,0,-2,-1,-1
7937,-1,0,0,1,-1,-1,1,0
7953,-2,0,2,0,-1,1,1,-1
7953,-2,0,0,1,-2,-1,-5,-5
7955,-1,-1,-1,-2,0,-1,1,-5
7955,1,-1,-5,-2,1,1,0,2
7976,-3,-1,-3,-2,-1,0,-3,0
7976,-4,1,-1,0,-2,1,-1,-2
7978,4,0,0,1,0,0,-2,-1
7978,0,-1,0,-1,-2,-1,1,-4
7990,-1,-2,1,1,-2,-2,0,-7
7990,0,-3,0,-2,-2,-1,-4,-12
7999,1,0,-2,-3,-1,0,2,-11
7999,3,0,-2,1,-1,1,0,33
8013,-1,-1,-4,-1,1,1,-2,-7
8013,-1,-2,-2,-3,-1,0,-1,-1
8015,1,-1,-2,0,-1,-4,-6,-19
8015,4,-2,-1,0,-1,-4,-6,-15
8036,-2,-1,1,0,1,-2,-4,6
8036,-2,-1,-1,0,-1,-3,3,-2
8038,-6,-1,-1,-2,0,0,0,7
8038,1,-1,-3,-2,1,0,1,-4
8059,-2,-1,-2,0,-4,0,-1,5
8059,-2,-2,-2,0,-1,-1,-1,-2
8060,0,-2,0,0,-1,-4,-3,12
8060,-11,-1,0,-1,-3,-2,-2,-2
8074,1,1,-1,-3,0,1,-1,-7
8074,-2,-2,-2,0,-2,0,-3,1
8080,-4,-1,-2,0,-1,1,0,6
8080,-1,-1,-3,-2,-1,0,2,-8
8096,-2,-2,-1,-2,0,-2,2,1
8096,1,-2,-1,-2,0,-1,0,1
8098,-2,-1,-1,-1,-2,-2,-2,2
8098,5,-2,1,-3,-3,-5,-2,-4
8110,-1,0,0,-2,-1,-1,0,0
8110,1,0,0,-2,1,-2,0,3
8119,1,0,-3,-1,-1,-1,-4,-9
8119,-2,-1,-2,1,-2,-1,-1,7
8133,2,-1,-1,0,-2,-3,-3,0
8133,-6,-1,0,-1,-1,2,0,5
8136,2,-1,1,-2,0,1,3,5
8136,-5,-1,-1,1,-1,1,-1,-6
8164,-1,-1,-3,-3,-1,-2,0,15
8164,0,-1,-2,0,0,-1,-2,-7
8166,-3,0,1,0,1,2,-1,-2
8166,1,-1,-2,0,-3,1,1,-2
8169,-3,-1,0,-1,0,-1,-2,-4
8169,1,-1,0,-3,-2,-2,-2,9
8179,0,-1,-1,-1,-1,0,0,1
8179,-1,-1,-2,-1,0,-2,-5,-7
8193,-4,-2,-2,-1,-1,-2,0,-1
8193,2,1,-1,-1,1,-2,1,-4
8195,-6,-3,-1,-2,0,-3,-1,-2
8195,0,2,1,-2,1,-1,-1,0
8216,0,-1,2,-2,-1,-1,-4,-6
8216,1,-2,-1,0,0,0,-3,-4
8218,-2,-3,-3,-1,-1,-1,1,0
8218,-1,-1,-1,-1,-1,-2,0,1
8230,2,0,0,1,-2,1,0,-7
8230,-3,0,-2,-1,-5,-2,-2,6
8238,1,1,2,0,-1,1,1,5
8238,1,-1,-1,-1,-2,-1,-1,0
8261,4,-1,1,0,0,-2,-5,-17
8261,-1,0,-2,0,1,0,0,22
8262,-3,-1,-3,-1,-1,0,1,-14
8262,-4,0,0,-1,-2,-1,0,-2
8276,-2,-1,0,-2,-1,-1,-1,3
8276,6,2,-1,0,-1,1,2,-8
8278,-2,-3,-2,-3,-2,-4,-5,-15
8278,-3,-1,3,-1,2,-1,-1,22
8290,-2,-1,1,-1,-4,-3,-1,-16
8290,-6,-2,-3,-1,-3,-2,-11,-8
8299,1,1,-1,0,1,-1,4,-4
8299,1,-2,0,-1,-1,-1,-1,-16
8314,-7,-2,-2,-1,-1,0,1,9
8314,-1,0,-1,-1,-2,-4,0,-7
8315,-3,-3,-1,-1,-3,0,-7,-6
8315,-4,-7,-3,-1,-1,-3,-2,-7
8336,6,2,1,1,3,1,6,5
8336,-2,0,-13,-2,0,-1,-4,-14
8337,0,2,4,-5,-2,0,-2,8
8337,-4,-5,4,1,0,-1,1,-10
8350,6,-3,-3,0,-2,-5,-1,6
8350,4,-3,-1,-2,-1,0,5,1
8359,2,-2,-4,0,-1,-1,-6,-7
8359,-2,0,-4,-2,-2,-1,-2,-5
8374,-4,1,1,-2,-1,1,-3,2
8374,0,2,3,-1,0,-1,0,-5
8375,2,-1,-2,1,-1,0,4,20
8375,0,1,0,-1,-1,-1,3,-15
8397,-11,-4,-6,-1,-2,-2,-1,16
8397,-1,1,2,2,1,0,-2,-13
8398,-3,-1,-1,-2,-1,0,5,2
8398,0,-1,-4,-1,-2,-1,-5,0
8410,-9,-3,0,-1,-1,0,-1,35
8410,5,-2,1,0,0,0,2,7
8418,-1,0,0,0,0,-2,-5,5
8418,-3,0,-4,-2,1,-1,0,3
8434,8,3,-1,-3,-2,-3,0,-11
8434,-3,1,1,-3,-2,0,-1,2
8435,0,-1,-3,2,-2,-2,1,-15
8435,-1,-1,-9,-4,-2,-2,-3,16
8456,0,0,18,5,-1,0,1,-16
8456,-3,0,-3,-2,-2,-3,0,10
8458,5,0,-1,-2,-3,-1,0,14
8458,4,1,5,-2,-1,3,4,9
8470,4,0,-6,-3,-1,-2,-5,-9
8470,-3,-3,4,-1,1,0,5,-11
8479,-5,-3,-6,-3,-1,-3,-5,-4
8479,-1,-2,1,2,0,1,-4,-12
8501,1,1,-2,-1,-1,-1,1,7
8501,-9,-1,20,0,-2,-2,-1,-11
8503,16,1,-2,-2,0,0,0,15
8503,-2,3,-1,-4,-2,0,2,9
8515,-3,-7,-1,0,-2,0,-4,-22
8515,-4,-4,-10,-2,0,1,-1,19
8518,-7,-2,-1,-1,1,-1,-2,2
8518,3,1,2,-1,0,-1,-1,-20
8530,-2,-2,-11,-2,0,1,-6,-22
8530,-4,-4,-7,-5,-4,-1,1,4
8539,4,-2,1,-1,-2,-4,-1,7
8539,2,1,-1,-1,-2,-2,-5,-45
8553,4,3,-4,-1,1,2,11,65
8553,0,5,26,0,-1,-1,-2,-12
8555,-7,-3,-11,-2,-1,1,1,-21
8555,-4,4,2,1,-2,-3,-4,0
8583,-4,-2,-1,-3,-2,-3,-1,-12
8583,0,-6,-6,-1,-2,-3,-8,-10
8586,0,3,3,1,2,2,7,66
8586,3,-1,0,-2,-1,-3,-3,-17
8589,-6,-2,-3,-1,-2,-1,-16,-70
8589,6,3,-7,2,1,7,23,87
8599,5,-3,-3,-1,-2,-2,-1,2
8599,-4,-4,-6,-2,-2,0,1,15
8614,8,3,3,-1,-1,-1,1,-4
8614,-3,-1,-5,-1,-1,-6,-12,-47
8615,-6,-2,0,-1,-2,-4,-3,-51
8615,0,-2,1,1,1,1,2,11
8636,1,0,-3,-1,0,-1,7,39
8636,-4,-1,0,-2,-2,-2,-8,-23
8637,-12,-4,-1,-3,-4,-2,-10,-45
8637,0,-6,-15,-2,-1,0,8,36
8650,-5,0,7,1,-1,-2,-2,-11
8650,-2,-2,-7,0,-1,-1,2,3
8659,-3,4,1,0,0,-1,0,-3
8659,-8,-3,-1,-3,0,0,-5,-29
8673,3,-1,-2,-1,-1,0,-2,5
8673,1,-3,-10,-3,-1,0,-2,8
8675,-4,-4,2,0,-1,0,-5,-25
8675,6,1,2,-1,-1,-1,-1,11
8696,-3,2,2,1,-1,1,0,13
8696,-10,-1,-1,-1,-3,-2,-5,-30
8698,-1,-1,-3,-1,1,-1,2,37
8698,5,-1,2,0,0,-2,2,-3
8709,2,0,0,0,1,-1,1,0
8709,3,-3,-6,-1,-3,-3,-3,-12
8718,2,1,1,0,-1,1,2,6
8718,1,-2,3,0,-1,-1,1,7
8741,-4,1,-3,-1,-1,0,-6,-2
8741,2,1,0,-1,0,-2,-4,1
8743,2,-1,-1,0,-2,-1,1,4
8743,1,4,2,0,-2,-1,-6,2
8756,-5,-9,-3,-4,-4,-1,0,-12
8756,1,6,-3,0,0,1,-3,-1
8758,1,-3,-2,-1,1,0,3,1
8758,-5,-1,0,-2,0,0,2,3
8770,-2,3,-1,-1,-1,-3,1,-13
8770,-8,-3,1,0,1,2,2,-3
8779,-3,-3,-2,-2,-1,-2,-4,-21
8779,-8,-19,-5,1,-1,-6,-12,-33
8801,20,5,-2,-3,-3,5,10,68
8801,22,-6,25,-1,-3,-1,5,-5
8803,6,8,1,1,-1,-1,-3,-4
8803,-15,-8,-3,-3,0,-3,-4,-21
8816,-7,8,12,2,3,-2,-9,-24
8816,-6,-14,-6,0,-3,-5,-3,6
8818,7,-1,-17,-3,-2,2,7,25
8818,-10,-15,4,0,0,-1,0,10
8839,-5,-3,-9,-6,-1,-5,-5,-23
8839,13,26,7,3,1,4,3,14
8840,-6,-1,0,-1,-1,-2,-5,-14
8840,1,5,-2,-4,-3,0,1,7
8853,-13,-20,-10,0,-1,-2,1,-9
8853,-8,-6,-9,-4,-1,-4,-3,-6
8860,-2,-2,4,-1,0,0,0,9
8860,4,6,4,0,0,0,0,10
8876,7,4,-10,1,-1,2,0,2
8876,-4,-5,23,8,-2,-3,-3,-4
8878,-3,0,9,-6,-2,-1,1,-3
8878,3,-1,-12,-2,-3,0,4,8
8899,-1,7,-7,-1,-1,-3,-2,-15
8899,4,12,6,-2,1,0,2,5
8900,3,-29,-9,8,1,-1,1,5
8900,3,8,3,-6,-4,1,-1,-1
8913,-1,-1,3,-1,0,0,0,-1
8913,-15,-10,-16,-7,-7,-2,-10,-10
8915,-13,-5,-11,-4,-2,-6,-9,-6
8915,4,-22,-60,-4,9,0,-2,2
8936,-1,10,52,7,-18,0,4,9
8936,-5,-4,-12,-2,-1,0,-1,-4
8938,-11,7,-1,-12,5,-1,-9,-25
8938,10,2,-22,-12,-11,4,9,54
8958,-11,-10,-16,0,4,-3,-6,-11
8958,17,-1,-5,2,4,8,15,24
8961,-5,9,7,5,-3,-4,-9,-16
8961,-2,5,20,12,7,-1,2,-12
8972,-13,-11,-11,-4,0,-3,-9,-16
8972,0,-5,-4,-4,-3,-4,-1,4
8981,9,20,2,4,1,2,9,14
8981,2,4,15,-1,0,0,-3,1
8996,-15,-13,12,11,-5,-5,-8,-21
8996,-3,6,-12,-14,1,1,6,0
8998,6,-9,-30,-14,0,4,10,21
8998,6,20,17,6,-4,0,-14,-15
9019,22,8,-11,-11,1,2,6,-2
9019,-16,-23,3,9,-2,-10,4,-6
9020,12,11,18,8,2,4,18,22
9020,22,21,8,-2,1,0,9,11
9032,-7,10,-8,-2,7,3,-32,-6
9032,14,16,6,7,5,13,15,7
9040,-13,-45,-5,-7,-11,-4,15,2
9040,-26,-19,-7,-1,-3,-7,-27,-28
9056,50,76,23,11,5,5,6,18
9056,-10,-7,-8,-8,-10,-13,-6,-3
9057,-7,5,7,1,0,2,-8,-24
9057,-5,-19,-41,-9,-3,-1,20,25
9078,-1,-16,29,-26,10,6,2,7
9078,10,9,30,31,13,7,-7,-3
9079,-17,-9,-8,-21,-10,-3,-13,-29
9079,-2,-2,-31,-22,-6,0,-11,-17
9092,4,-6,32,50,17,3,19,10
9092,-2,-7,11,0,10,2,0,5
9101,-7,15,9,19,8,2,-1,3
9101,-1,-7,-12,-33,-22,-2,3,-2
9116,-18,-41,-31,-12,-4,-6,3,2
9116,-10,-11,50,66,12,-1,-2,-8
9118,22,22,-25,-34,-42,-10,-12,9
9118,-2,21,9,-41,4,-1,-3,-12
9146,-5,3,-17,2,1,0,7,-3
9146,-14,-43,-54,-80,-24,-13,-7,-5
9148,-8,-20,103,75,15,-2,-2,1
9148,1,-2,46,97,16,7,1,-12
9152,-8,-17,12,-1,-5,1,-14,-31
9152,1,11,-112,-94,-21,-7,-2,5
9161,-11,-33,17,8,3,4,9,20
9161,7,9,90,90,17,5,-21,-6
9183,25,83,-20,14,13,12,32,28
9183,-6,-2,33,35,3,-11,-25,-16
9184,-7,14,-75,-61,-12,-19,4,1
9184,-15,-60,-14,-13,1,6,5,1
9198,1,4,-17,-29,-18,-5,-48,-23
9198,8,29,-15,-20,-6,8,24,17
9200,0,-1,2,1,8,3,20,1
9200,-9,-9,-7,0,1,3,4,-1
9212,-5,-22,-41,-48,-16,-13,-28,-7
9212,7,14,13,0,14,27,-32,1
9221,-5,6,45,64,10,-31,44,3
9221,-1,5,-5,-2,-7,2,-60,-34
9236,-3,-15,-24,-30,-21,-33,52,27
9236,-17,-30,-6,-9,0,0,-45,-16
9237,11,-21,-31,8,10,4,28,19
9237,20,77,16,-12,11,33,21,24
9259,-12,-20,25,-2,-6,-2,-13,-13
9259,4,5,-1,17,-15,-6,-54,-41
9260,-38,-19,-14,12,-11,-20,-5,11
9260,33,-6,-9,-17,-6,-28,0,-2
9273,-23,-19,-2,12,16,18,-12,-15
9273,42,31,8,1,2,7,36,21
9282,-9,-11,-1,-19,3,20,-38,-19
9282,-34,-1,-22,-19,-4,8,23,20
9296,-6,-8,4,5,-7,-11,9,1
9296,-29,32,10,-1,-13,-14,1,-15
9297,61,21,-23,-18,-1,15,3,13
9297,-17,-4,10,4,2,-3,-2,-12
9318,3,-12,11,12,20,11,-10,-5
9318,-45,-23,-3,16,-11,-11,16,9
9320,21,14,-2,-13,-15,-24,-47,-25
9320,-15,-1,-5,-13,-6,3,9,-13
9332,-6,-9,-29,-18,-8,7,31,16
9332,-5,-14,30,35,20,3,7,2
9341,-14,-12,-6,-12,0,-1,-24,-3
9341,19,4,10,0,-9,21,16,3
9356,-26,-32,-12,2,-5,-49,-9,-11
9356,39,20,9,7,2,0,29,11
9357,3,-16,-16,1,11,15,-5,-4
9357,-24,27,-7,-27,-9,-21,-10,-11
9379,9,14,-7,17,2,32,3,5
9379,-2,-8,10,6,1,18,7,-50
9380,7,20,21,12,21,10,7,52
9380,35,-18,-15,-14,-31,-45,3,4
9392,9,7,5,-5,4,28,15,-37
9392,3,-1,-11,-17,12,-24,0,81
9402,4,0,-13,-1,-32,-8,-29,-64
9402,-26,-21,-8,-2,-18,-32,1,-2
9417,18,-13,3,10,-5,-4,-13,23
9417,-3,2,6,13,23,15,-3,-27
9418,2,4,-8,-15,22,43,27,-8
9418,3,-13,8,10,2,-5,5,40
9447,-3,8,12,4,-1,8,1,-21
9447,-3,5,-1,8,0,3,-18,15
9448,-9,1,0,-15,-26,-46,0,-3
9448,-23,-2,-1,-1,15,30,-5,-43
9452,8,-5,5,10,26,1,-10,11
9452,-21,-32,-11,-5,-37,-4,-15,-13
9461,6,6,-2,-14,-11,-36,9,43
9461,-9,0,3,7,2,16,29,10
9476,-4,-14,-4,-17,-4,-5,-32,-2
9476,10,24,-6,12,0,-30,-14,12
9477,-22,-2,8,12,5,3,-10,-42
9477,-5,1,3,1,4,15,-7,-1
9507,34,8,-11,-11,1,3,23,22
9507,-9,-2,7,10,9,46,36,-8
9508,-5,-3,0,8,15,38,-18,-27
9508,21,8,-6,-3,3,-67,17,59
9512,-19,0,7,3,-43,-29,-45,-27
9512,0,-6,1,-6,-22,-54,21,11
9521,-9,3,1,0,5,35,-15,-9
9521,2,9,-14,-7,35,15,32,53
9536,-2,-3,-8,6,-7,-8,3,-2
9536,4,7,23,4,-4,40,-15,-16
9542,-9,7,-4,8,18,-12,11,12
9542,-26,-9,-1,-8,-18,-16,-34,-42
9559,-2,11,6,0,4,31,35,24
9559,13,-5,-26,-19,15,-33,-1,4
9560,3,7,19,26,-22,22,4,-16
9560,-14,-24,-12,-7,-14,-56,-43,-34
9573,9,9,12,7,13,9,4,14
9573,6,1,-3,-16,0,14,-12,-30
9581,-16,-1,0,-6,2,30,27,11
9581,19,1,-9,-6,-9,-10,-10,-12
9596,-31,-7,-1,9,-2,-3,17,-9
9596,1,3,-12,-18,-2,-3,21,1
9602,-22,-10,-10,-4,0,-23,-33,4
9602,36,17,12,28,3,14,-10,0
9619,-1,0,9,4,5,14,2,-16
9619,-26,-14,-8,-3,14,17,11,-2
9620,33,12,-3,-19,-12,-45,8,-5
9620,8,-6,7,-3,-20,14,-19,19
9632,-5,-30,-16,-14,-12,-13,-2,11
9632,30,4,6,6,-7,-38,-14,-4
9641,-25,-5,3,-2,25,47,26,10
9641,22,7,-7,-13,11,17,9,1
9655,-3,10,10,35,4,2,-14,-5
9655,-7,-8,-11,-9,-3,-31,16,3
9662,27,-3,2,-2,-61,-63,-49,-48
9662,-12,-10,5,-15,4,-22,-10,-2
9678,-12,14,-3,-8,23,71,27,4
9678,-3,-5,6,13,19,37,20,-18
9681,1,17,3,-1,2,-33,-7,-1
9681,-7,-15,-6,-5,-22,6,2,-9
9692,10,-12,-4,2,-4,-4,-30,-1
9692,-13,3,2,9,12,-18,3,3
9702,16,-4,-5,-5,-1,9,6,0
9702,-75,-5,2,-3,0,29,-1,-21
9716,21,17,-4,13,5,-28,-2,7
9716,-8,-11,1,-9,-25,-20,-10,3
9722,3,-2,7,6,19,60,9,13
9722,26,14,-6,11,15,-20,14,3
9738,-19,-19,-5,-19,-19,-40,-15,-9
9738,-5,-14,-12,-14,-18,9,3,10
9740,13,4,-3,11,16,2,-12,13
9740,2,3,11,10,16,18,17,-11
9769,10,4,3,-7,9,26,14,-2
9769,-13,-11,-5,-18,-20,-29,4,2
9770,-20,-4,-6,22,1,4,1,-7
9770,9,-9,2,8,7,14,-5,30
9775,9,9,-3,-8,-14,-14,-6,-1
9775,-17,1,2,-8,-20,-19,-33,-12
9782,-2,-7,5,-3,7,27,22,10
9782,1,-4,-9,-2,5,-27,5,-13
9806,-7,6,10,10,16,5,-13,11
9806,18,8,-2,3,-3,18,18,-2
9808,-18,-15,-6,-35,-28,-31,-18,-4
9808,14,-3,1,4,-16,-17,-28,-17
9821,-2,1,9,16,35,52,30,10
9821,-1,0,-5,0,40,44,11,4
9823,10,-1,-14,-11,-60,-70,-14,-2
9823,-27,2,-6,-9,-25,-20,-37,-25
9834,3,-7,-6,-10,9,-33,8,5
9834,5,5,5,14,22,57,15,10
9844,4,0,4,-2,26,11,-1,3
9844,-7,-2,5,-1,-8,4,21,7
9858,-28,-5,-14,-13,-27,-34,-32,-12
9858,53,16,3,1,-3,11,6,0
9860,10,-1,2,18,8,-17,-21,-5
9860,5,-6,-3,-4,-1,42,4,-2
9881,-3,6,3,13,32,43,22,6
9881,-8,-5,-2,-12,-19,-48,7,-4
9883,-20,12,1,2,-10,-9,-14,6
9883,4,3,-1,-2,1,-31,0,-19
9904,-2,-12,-1,-21,-26,-11,-9,-7
9904,-26,-16,-10,16,7,7,-15,-3
9904,15,19,7,-2,27,39,30,20
9904,-1,-4,-6,13,28,41,4,11
9918,-6,6,-2,-5,-23,-32,27,-2
9918,13,2,6,2,-26,-41,-55,-4
9919,-17,-15,-12,-23,5,33,-9,-8
9919,-3,4,3,13,3,-70,4,-7
9949,26,-12,3,-1,-23,-19,-21,-3
9949,16,1,-1,-8,10,23,3,-6
9949,-10,-1,1,16,14,42,27,7
9949,6,-3,5,-10,6,-4,1,1
9964,-5,7,-3,-10,-15,-26,13,-3
9964,4,1,-1,0,-19,-34,-32,-3
9964,6,-7,-8,-14,17,44,7,3
9964,-7,-11,-2,12,6,1,16,6
9978,6,9,4,6,-7,5,5,1
9978,-16,-3,1,-3,16,-24,-18,-1
9979,26,8,5,-17,-17,-34,0,10
9979,-1,3,7,13,-24,10,-9,-10
1,-2,-16,-13,0,10,1,-4,-6
1,-7,15,0,-5,-18,7,-15,-5
1,3,-7,3,2,15,-22,6,-1
1,3,5,-6,0,24,12,25,9
24,9,0,1,-2,-32,-28,-22,2
24,2,5,-1,2,-4,-8,-12,-11
24,-16,-7,-7,-5,-9,-39,-14,-8
24,14,1,5,-7,0,52,30,14
38,-5,7,10,11,43,46,10,5
38,5,-4,-3,5,5,14,19,2
39,-14,-4,4,7,-12,25,14,-6
39,6,0,-4,-22,-5,-49,-46,-7
67,-6,-8,-3,-14,-25,-63,-23,-6
67,9,-14,-13,3,-28,-9,5,9
76,20,3,8,3,27,29,15,11
76,-10,0,2,12,24,66,10,-12
84,0,2,-3,3,21,-57,6,-1
84,4,5,1,-3,-38,-30,7,8
84,-12,-4,-2,-12,-26,-35,-38,-15
84,9,-14,-8,10,-3,-8,-6,1
98,10,5,7,-2,13,39,0,2
98,-18,8,5,4,31,6,29,3
99,1,-5,4,5,-24,-46,-18,-6
99,-7,-12,-14,-11,7,56,-1,2
121,-12,1,3,5,10,15,16,-8
121,16,-5,-2,-4,-20,-37,5,9
122,10,-2,-5,-9,-10,-21,-20,-18
122,-18,-7,-3,-11,-15,-52,-14,-10
144,-15,-2,-2,22,41,124,29,0
144,-4,6,0,-5,2,-23,23,25
144,4,0,-1,-13,-48,-74,-40,-3
144,-6,1,1,-8,-5,1,-15,-15
158,20,-7,-14,-1,4,-7,-7,-1
158,5,14,16,19,35,73,5,1
159,-14,-2,-9,-10,14,30,31,5
159,6,-2,-4,12,-19,-3,-3,4
181,-12,2,6,-7,-13,-44,0,4
181,4,-4,11,3,-2,10,-7,-11
181,-8,-3,-14,7,8,8,-19,-5
181,31,11,8,-8,5,48,12,16
204,3,-1,-1,-15,-24,-72,8,-5
204,-12,-11,-6,5,4,58,-18,-12
205,0,-2,9,2,31,41,16,12
205,-5,25,-13,3,-9,-54,1,2
218,-12,-18,-13,-16,-44,-26,-17,-7
218,10,6,-3,-2,4,-23,-28,-4
219,-6,-2,-3,13,22,20,23,-10
219,1,3,12,4,16,69,15,3
240,1,0,2,-2,18,51,33,14
240,-9,-5,-9,-9,-5,-87,3,-11
241,2,-5,-2,-7,-50,-47,-8,-2
241,-16,4,2,0,4,-8,-19,-15
263,-5,6,-2,-11,-31,-30,-35,-14
263,-7,-7,1,-6,28,57,8,7
264,5,6,3,14,27,35,28,3
264,-1,-7,4,6,-2,-18,4,-1
279,-1,2,3,1,-5,38,-9,0
279,-2,-7,-14,-29,-28,-48,-20,-7
279,-7,-14,-3,25,9,23,-5,-1
279,12,-7,-4,-10,5,-32,8,3
300,-2,11,12,14,6,3,10,12
300,-4,-2,3,-6,-2,32,23,2
302,-1,1,-10,-19,3,-9,-4,-4
302,-9,-18,5,-1,-7,3,-7,2
323,-6,-1,-6,4,7,16,-8,-1
323,-7,-5,-4,-8,-25,-57,-12,-18
325,4,5,3,0,18,60,-6,7
325,5,12,31,-12,12,-9,16,1
339,-13,-16,-46,7,-22,-43,-11,0
339,16,9,-1,3,-11,11,3,-2
341,-5,4,8,1,-7,-19,-21,-4
341,3,4,3,6,13,23,14,2
361,4,-3,12,-8,25,23,2,-6
361,-6,-3,-1,6,1,50,16,6
361,-2,-8,-4,-2,-15,-73,-26,-5
361,-1,6,-11,-17,-23,-57,-7,3
384,25,-8,5,8,-1,43,1,1
384,-10,-3,-1,8,32,-5,14,2
385,10,11,6,-8,-8,-5,9,0
385,-9,-5,-16,-25,-25,-4,-45,-4
398,-8,-15,1,13,6,-24,11,0
398,-5,4,9,4,-25,-6,-25,-9
399,-4,0,-11,10,3,-33,5,-1
399,-3,0,-1,-6,25,83,2,-1
420,6,4,2,-2,-20,-27,15,4
420,-7,-3,5,6,28,91,-7,-2
422,-1,7,3,-12,-13,-69,37,4
422,-7,-22,-12,-2,-44,-36,-44,-12
444,2,28,6,3,30,20,-7,-5
444,3,-2,0,4,20,38,14,6
445,0,-3,-6,-16,0,23,28,-1
445,-2,-1,-9,17,-1,-11,-11,-1
458,7,4,3,-1,-15,-21,-11,-7
458,-5,-5,-4,0,10,22,-9,-1
459,4,0,7,7,14,23,19,8
459,1,1,0,-8,-27,-95,-4,-5
481,-2,2,5,-19,-25,-52,-37,-1
481,-12,-12,-25,-2,-14,-19,-15,-11
481,6,16,19,15,45,87,32,4
481,7,7,-10,8,5,3,23,1
504,-8,-9,-4,-5,-36,-43,-49,-2
504,1,2,0,-23,27,-27,15,1
504,-7,-7,-9,11,-47,-18,0,-4
504,-5,-10,-7,-4,3,6,-19,-1
518,2,12,10,5,47,57,35,-5
518,-3,-12,-1,-2,-22,-14,4,8
519,2,20,-6,-3,4,-28,-23,1
519,3,8,7,17,7,4,21,-1
549,-12,-18,-6,-8,-27,-18,-28,-5
549,4,0,8,1,3,8,-1,1
549,-6,-14,-1,3,14,17,-3,-4
549,0,-5,-12,-7,0,56,19,2
555,1,-1,-3,-6,-1,-17,10,2
555,3,1,4,11,3,-11,-4,0
563,-3,-7,3,-33,-26,0,-12,-8
563,3,9,-3,29,0,-19,-33,-3
577,-3,-11,-3,8,24,31,19,1
577,4,8,0,2,6,27,9,1
579,-1,-7,-1,3,-11,-11,-7,-4
579,-7,8,4,-23,-20,-54,5,7
602,0,6,13,-3,-11,-18,-9,-6
602,-11,-9,-18,7,0,-9,-26,-8
603,-1,-11,-11,1,49,95,17,3
603,7,6,6,6,-18,-13,22,-1
614,2,1,8,-6,0,13,-9,5
614,0,-3,-4,-7,9,-35,-6,1
623,-6,-4,-7,10,-11,26,11,0
623,-8,-16,-3,-13,-7,-15,-6,-7
654,-1,7,-7,-4,-6,-39,-29,-10
654,2,1,10,0,6,44,46,14
654,1,8,0,-3,3,-35,-14,-4
654,-2,-4,8,2,10,91,16,7
660,-1,-5,-12,7,7,-14,6,-5
660,1,3,5,5,-15,-58,-6,-1
661,-5,-6,-2,-6,-51,-82,-42,-16
661,5,0,-1,-31,-9,-21,-33,-6
677,-2,-13,-11,16,34,61,23,13
677,4,10,6,13,44,64,31,6
683,6,12,12,2,-33,-81,-3,5
683,-5,4,0,-17,-9,-5,-4,-6
698,-6,-12,-16,-13,5,-15,-16,-5
698,-1,-13,-4,1,3,30,-7,-9
699,2,3,-9,-4,15,30,19,10
699,0,0,4,19,-2,-35,-4,0
720,3,3,6,-6,-22,7,4,1
720,-6,-5,0,-18,-2,-25,-12,-2
722,2,-1,13,-3,-12,34,-16,-2
722,-2,-5,-20,27,26,-51,21,9
751,2,3,-1,11,0,-32,24,-1
751,-6,-3,-3,-21,-44,-39,-51,-14
752,-2,-2,-2,-7,5,-4,-7,-5
752,2,1,5,3,30,63,5,-3
757,3,4,11,-8,15,44,24,3
757,0,0,-11,11,-34,-66,18,5
765,-7,-10,-7,-4,7,37,-21,-9
765,-5,14,8,0,6,-7,4,2
780,4,-1,-3,3,-20,-79,-6,4
780,-4,-8,8,-26,-28,-18,-26,-12
782,-3,-4,-20,20,6,-6,-23,-2
782,0,-7,-1,-9,19,49,19,-2
804,-3,1,3,-1,13,53,19,-2
804,9,13,6,10,32,60,25,15
804,0,-2,19,6,21,-9,36,10
804,-2,-2,-14,-7,-66,-92,-40,-4
817,-5,-8,-8,-20,-31,-47,-55,-13
817,3,0,5,14,19,12,7,1
818,1,3,4,-3,25,11,8,0
818,4,-7,6,4,20,35,16,3
841,0,10,1,17,-33,-26,-30,-11
841,-3,-4,-9,1,6,-8,15,7
842,1,-3,-3,-5,-6,16,-14,-3
842,1,3,2,-5,0,-35,14,6
872,-4,-6,-1,-4,4,45,17,-1
872,-3,-1,4,6,12,-19,-21,-7
872,2,6,-1,-10,-17,-31,-8,3
872,-7,-11,-9,5,-14,50,0,-4
878,-1,0,-3,-7,15,12,14,1
878,3,6,-1,14,34,45,12,5
880,-4,-1,6,-5,-38,-71,-12,-5
880,-2,-8,-13,-14,-32,-29,-25,-9
900,0,0,6,0,12,6,-3,0
900,2,5,3,-27,-6,1,16,-2
902,-3,-3,-4,22,18,21,14,4
902,-1,3,4,17,17,30,-10,-3
924,-2,-2,9,0,19,70,38,5
924,-4,-8,-18,-5,-46,-108,-1,3
924,3,3,-9,-14,-34,-50,-49,-7
924,-2,-9,1,2,32,32,19,-1
938,1,2,-1,1,16,41,9,1
938,-3,6,4,1,7,35,-3,-7
939,-6,-9,-4,-2,-1,-10,17,3
939,1,4,5,2,10,-27,-13,2
960,-2,-3,-6,-17,-43,-59,-16,-12
960,-4,2,2,10,-30,-49,-44,0
968,1,-3,-10,-13,20,50,21,1
968,-1,3,17,23,10,2,8,-1
984,-1,0,-11,-5,28,57,17,1
984,0,-4,2,-11,-23,-20,17,-2
985,-5,-7,-3,0,-17,26,-23,-7
985,7,12,4,-1,-2,-41,-10,-3
998,-5,-9,-9,-4,2,18,2,7
998,0,-8,-3,10,10,17,6,-2
999,6,4,7,-5,28,37,11,4
999,-3,-4,-3,-9,-31,-9,5,-2
1021,-6,-6,3,-14,-46,-80,-26,-6
1021,-1,8,-11,0,23,36,-17,-3
1021,-3,-4,-2,26,53,90,35,2
1021,3,7,0,-12,2,-42,19,5
1044,-2,-5,-3,-6,-54,-73,-32,-12
1044,-3,-5,3,-7,-2,11,-34,-4
1044,-1,-4,4,2,12,12,23,4
1044,-1,1,1,-11,-1,8,7,3
1058,-1,-2,-9,3,18,26,3,2
1058,2,0,6,8,-1,21,6,-2
1059,1,6,-3,-8,-13,-32,-4,-3
1059,-2,-6,-2,6,24,18,9,4
1080,3,8,13,16,6,-26,-7,4
1080,-3,-7,-9,-14,-38,-48,-20,-7
1082,2,2,-3,-3,-18,-24,-21,-12
1082,-1,-3,-4,-1,21,56,18,10
1111,3,1,3,0,14,13,10,-1
1111,-4,0,5,-7,-13,-29,4,1
1111,1,-5,-12,2,2,-4,7,7
1111,-4,4,3,11,10,80,16,-9
1119,2,6,-1,3,16,-32,-21,1
1119,-2,-4,6,-1,-21,-5,0,0
1125,-5,0,-1,-16,-18,-58,-6,0
1125,0,-2,-12,-12,15,38,-16,-4
1141,1,-2,6,15,-1,-4,19,4
1141,0,6,-7,-5,-12,-9,-21,-8
1141,-6,-10,8,12,-15,-28,6,1
1141,-1,7,-8,-2,-7,-10,-8,-3
1164,3,-2,8,-2,31,66,28,6
1164,-1,6,-11,2,17,74,22,5
1164,-4,-8,2,3,-13,-58,-8,-4
1164,4,5,2,-8,-7,3,-31,-8
1178,1,9,-3,-21,-30,-79,-9,-4
1178,-1,-8,0,11,-15,-16,-17,-1
1179,3,3,5,-5,19,52,22,0
1179,-3,-7,-4,10,6,12,5,-5
1201,-3,-3,-2,-8,10,2,8,-2
1201,5,-4,-4,4,7,-2,24,9
1201,0,-4,-2,11,-20,-27,-12,-1
1201,2,5,1,-4,5,-30,-11,-3
1223,-1,0,4,11,5,56,9,-4
1223,1,5,-7,-19,9,-19,-3,-1
1231,0,4,4,-2,-21,-32,-27,-8
1231,-4,-8,-2,-7,-15,-34,-13,-4
1238,-1,-4,-6,16,27,58,18,6
1238,0,5,11,4,10,40,11,3
1239,0,-2,-7,0,14,-14,-7,-5
1239,-1,-3,-6,-17,-62,-64,-10,6
1261,-10,-9,2,-3,7,10,-20,-6
1261,1,1,-5,3,16,-11,18,-7
1262,4,6,-6,-4,-7,3,-16,-2
1262,-3,-6,-1,-2,3,11,9,0
1284,1,3,5,-3,-8,-8,-6,1
1284,-2,-5,2,0,34,64,18,3
1284,-2,-2,-6,10,16,12,27,1
1284,-1,1,-1,-10,-46,-70,-31,-2
1297,-5,-4,1,-15,-28,-45,-34,0
1297,-2,-3,-9,11,31,64,10,-5
1305,7,10,7,-13,10,0,6,8
1305,-3,-8,-6,8,13,20,38,4
1321,-3,0,1,14,-21,-38,-13,-9
1321,-2,-7,-10,-8,-29,-12,-4,1
1322,-4,-4,-1,-3,10,5,-1,-6
1322,6,4,5,4,22,35,-9,3
1344,0,1,1,-1,-3,-22,1,3
1344,-5,-3,-4,-13,-31,-70,-27,-10
1344,-3,-2,2,-4,5,25,-3,3
1344,4,1,12,19,36,47,8,-6
1357,0,2,-15,3,-14,-21,2,3
1357,-7,-6,4,-9,-40,-78,-12,0
1366,-3,0,3,-5,4,33,-3,2
1366,-5,-7,-14,-6,15,24,9,-3
1380,3,4,8,3,26,58,31,4
1380,1,3,-3,2,-10,-25,8,-5
1389,-5,-8,6,-3,-15,-22,-42,-7
1389,0,4,-8,-6,3,-3,-3,6
1411,2,-6,-5,1,7,10,10,6
1411,0,-2,6,3,18,30,10,2
1412,4,8,-3,-11,-30,-42,3,0
1412,1,5,13,-19,-1,3,-47,-8
1417,1,-1,-12,15,4,-17,13,6
1417,-3,-3,6,8,-22,-26,-8,-4
1425,-6,-3,-5,-12,20,20,-12,-6
1425,-5,-8,-8,3,-23,-21,17,-3
1440,1,3,3,-1,18,58,-6,-4
1440,3,-1,6,2,27,-14,25,15
1448,-4,-2,-4,6,0,36,-2,-6
1448,-2,-2,4,-4,-20,-41,-2,3
1464,-1,-2,0,-13,-14,-32,-23,-11
1464,-6,-9,-15,6,18,43,5,0
1464,3,7,-5,15,4,6,12,1
1464,-3,-1,0,-9,-24,-32,-26,-6
1478,-2,-4,0,2,-14,-46,3,3
1478,1,2,5,-6,5,-9,-8,-2
1493,-3,0,3,-4,15,33,0,-2
1493,-3,-6,-4,1,-1,0,45,6
1501,1,0,2,-2,-20,-12,-32,-5
1501,0,-2,6,6,10,-6,-14,-12
1501,6,-6,7,-7,-4,2,-3,7
1501,-2,-1,-8,5,2,-1,14,2
1523,-3,2,6,-5,-4,-2,-11,-6
1523,3,8,-10,10,4,37,8,-4
1525,-7,-11,-4,8,10,21,11,7
1525,2,1,6,-1,7,-12,-3,-2
1537,1,-3,-9,-16,-15,6,6,5
1537,-2,-3,2,-4,9,53,-1,-4
1546,2,1,-1,-8,1,-64,1,0
1546,0,7,4,-5,-38,-41,-15,-3
1560,-7,-8,-21,1,12,13,-15,-11
1560,2,0,5,2,-11,-39,-3,0
1560,1,-1,3,7,35,89,26,4
1560,3,3,15,-4,15,-9,28,8
1584,-1,3,-10,6,-34,-57,-33,-2
1584,-10,-12,5,-4,-15,-38,-39,-11
1584,8,10,-16,0,3,20,2,2
1584,-8,-4,-2,6,22,-1,20,-1
1598,-1,-2,4,-3,9,67,26,7
1598,3,2,5,0,24,51,10,7
1605,-1,-1,3,-1,-27,-36,-12,-2
1605,-3,-8,-9,-11,-37,-41,-24,-11
1621,-4,-2,-12,-18,-9,-24,-29,-9
1621,-3,-3,-6,12,18,15,6,-5
1621,2,1,4,5,31,83,25,5
1621,4,5,3,6,15,12,18,10
1644,-1,2,3,-13,-21,-46,6,-5
1644,-5,-11,-8,-18,-32,1,-33,-2
1644,-2,6,-10,6,12,-14,6,0
1644,-4,-8,-2,1,-14,-28,-17,-3
1666,-4,-4,4,7,29,48,7,-9
1666,4,1,-6,-7,-1,-18,12,3
1668,-1,2,7,2,-7,1,-7,2
1668,-1,-3,-12,0,3,33,10,-2
1680,1,1,6,-9,-20,-37,2,-1
1680,-1,3,4,3,3,3,-5,-1
1681,-4,-6,-4,-13,3,8,13,2
1681,2,3,15,16,16,5,-21,3
1704,-3,-2,-12,1,-13,-28,12,-1
1704,-3,-4,-1,-5,-26,-29,-27,0
1704,-7,-8,-6,-3,11,11,-12,-10
1704,-2,-4,0,-3,-9,-4,13,0
1727,5,2,4,-2,11,5,-4,11
1727,0,-3,-3,0,11,16,16,3
1728,-2,-1,-2,2,-26,-45,-7,-9
1728,-1,-2,-3,-2,19,32,-4,-4
1748,-3,-4,11,4,15,49,18,4
1748,0,3,-12,-16,-25,-30,23,0
1749,-5,-7,-3,5,-15,-25,-35,-9
1749,-2,-3,-6,0,3,-3,0,-7
1764,-1,-1,-5,12,13,16,-2,-3
1764,1,4,13,1,17,27,13,4
1764,-1,1,-3,-15,-6,11,5,3
1764,1,0,-1,2,-26,-9,13,3
1786,0,-1,-2,-7,6,-9,-43,-17
1786,0,-1,-1,2,20,10,20,8
1786,-2,-2,-4,2,-41,-104,-13,-3
1786,-4,2,7,-4,-4,4,-9,-4
1809,-3,-13,-9,-4,1,24,6,3
1809,0,8,0,-1,-2,-12,-2,-7
1810,3,-2,5,-2,21,44,29,3
1810,3,-3,-6,10,29,42,-3,-1
1824,0,1,2,-4,-23,-45,-3,6
1824,-5,-7,-6,3,-9,-23,-22,-1
1824,0,4,8,-1,9,3,4,4
1824,-1,0,-1,-16,-18,-12,2,-4
1847,0,-4,-10,-5,-2,25,-13,-1
1847,0,-3,-11,4,-7,-46,4,-4
1848,-6,-1,-1,-8,-27,-11,4,-4
1848,0,-5,-4,5,22,8,-19,-4
1861,-1,7,11,6,42,79,34,4
1861,0,8,10,-13,-25,-26,13,0
1862,-7,-6,-9,8,-24,-42,-43,-9
1862,-1,-9,-11,0,15,28,17,2
1883,2,1,2,3,3,-11,-4,-1
1883,2,9,3,13,10,32,-1,-1
1890,0,-4,1,-4,1,-1,16,2
1890,-3,4,4,-10,-7,-6,-9,0
1906,-7,-3,-2,-2,-33,-76,-35,-5
1906,-3,-11,-4,-4,8,21,6,0
1907,3,1,4,12,39,45,14,4
1907,-1,3,8,-7,-15,-18,-5,-1
1920,1,7,13,-8,-28,-21,5,-1
1920,-7,-10,-23,25,-1,-23,-9,-3
1921,1,-3,-6,-5,-6,14,-30,-12
1921,0,0,-2,8,28,57,29,9
1943,0,-2,4,2,24,26,27,3
1943,6,5,10,-12,-6,-4,-21,4
1944,-4,-5,-3,-2,-45,-63,1,-4
1944,-4,4,-5,-5,-40,-82,-50,-5
1966,3,-6,-8,2,15,10,-2,-6
1966,3,14,3,3,33,65,20,0
1966,4,3,7,3,32,79,38,12
1966,-2,1,-6,2,-8,-39,-5,-1
1980,-3,1,0,-10,-24,-28,-9,-4
1980,-4,-10,-9,6,0,-2,-17,-3
1981,-1,-2,-3,1,27,35,13,5
1981,0,5,3,2,1,40,15,4
2004,1,0,-5,5,-28,-69,12,4
2004,-6,-8,8,-21,-25,-30,-43,-9
2004,-3,6,-16,-6,-18,-38,-20,-8
2004,-1,-6,-3,12,41,85,19,2
2026,2,6,2,4,29,28,11,3
2026,3,-1,9,-13,-5,60,20,4
2027,-2,-8,-9,-18,-24,-97,-9,1
2027,-2,4,-2,4,-43,-64,-42,-10
2041,-1,-8,1,-1,14,13,-4,-6
2041,2,3,-5,12,19,37,38,4
2042,5,5,13,6,19,32,3,2
2042,-1,-1,-1,-3,23,1,14,-2
2063,-2,-1,-3,-5,-29,-36,-13,-3
2063,-4,-6,-3,-12,-30,-62,-30,-7
2064,-1,-5,-5,8,7,19,-19,-11
2064,-2,-1,6,10,26,57,25,8
2086,0,3,-4,4,6,38,22,6
2086,4,3,1,2,16,-11,20,10
2086,-4,5,6,-10,-39,-49,-9,-6
2086,-8,-13,-12,-19,-43,-66,-52,-15
2101,-2,2,0,-4,27,11,-2,0
2101,4,4,-18,11,4,12,8,-1
2101,-2,-3,7,14,14,37,6,-1
2101,3,-2,2,8,29,50,36,10
2124,2,3,3,-10,-24,-14,-9,-4
2124,-5,-3,0,-14,-29,-67,-28,-5
2125,2,5,-7,-5,0,-4,-2,1
2125,-4,-10,-5,13,16,27,12,-2
2146,7,13,3,5,18,39,-4,3
2146,4,5,6,1,-5,-6,13,1
2147,-5,-8,-6,-3,-2,13,-6,-1
2147,-1,1,-2,-14,-27,-53,0,-2
2161,-9,-10,-8,-5,-13,-46,-12,-6
2161,0,-7,1,-13,0,-23,-25,-6
2162,-1,2,3,8,6,21,-6,0
2162,0,-2,-8,-5,4,8,7,-1
2184,1,1,15,17,19,43,25,5
2184,-2,-6,-19,-5,-2,3,7,0
2185,-1,-5,2,-10,-17,-36,-14,-1
2185,5,9,3,2,2,23,-12,-1
2206,-4,-2,3,3,16,14,5,2
2206,-3,-4,5,-1,-6,0,5,1
2207,2,2,-2,0,-19,-41,-8,2
2207,-4,-2,1,-7,-2,-5,-11,-8
2220,-2,-2,-8,-6,0,8,9,-2
2220,-1,0,3,7,8,19,0,-3
2221,1,-9,-2,3,5,14,5,0
2221,1,6,1,-12,-11,-11,7,-4
2244,-4,-9,-8,9,-14,-40,-31,-4
2244,2,1,-7,0,9,23,10,7
2244,0,3,4,-1,2,2,-1,-3
2244,-2,-3,3,-6,-2,2,-3,0
2267,2,1,-5,-9,-7,6,7,3
2267,-2,-1,2,6,4,-8,-9,-4
2267,-1,-3,2,2,16,67,21,4
2267,2,0,-2,-3,-3,-44,-10,-3
2279,0,3,-1,-3,-27,-37,-30,-6
2279,-4,-7,-2,-1,-1,33,0,0
2288,-2,-2,-3,-5,-7,-40,-1,1
2288,-4,-3,-2,10,10,34,3,-1
2303,0,-3,1,-5,21,32,12,1
2303,0,3,2,-13,-28,-38,-25,-8
2304,-3,-5,-8,1,-6,16,-3,1
2304,1,-6,0,-3,4,-25,8,1
2326,1,0,-3,7,3,-2,-11,0
2326,-2,4,5,6,8,6,13,2
2327,1,4,2,-6,14,18,6,-1
2327,-2,-1,0,3,-11,-11,-19,-9
2340,0,-3,-4,-3,-20,-10,2,7
2340,-2,-3,-4,-6,3,-10,-2,-4
2348,-6,1,4,8,8,26,5,1
2348,3,2,-3,2,1,2,13,4
2363,-4,-6,-3,-4,2,7,-15,-8
2363,4,14,5,3,-9,-25,-16,-7
2370,-2,-4,-1,-3,7,44,11,5
2370,5,1,2,3,10,-8,7,2
2386,1,-1,-2,0,-10,-25,4,1
2386,-3,-8,-1,-3,-20,-16,-12,0
2393,-4,-2,-4,-2,9,-2,1,-2
2393,-7,2,-2,3,9,46,-27,-8
2400,2,3,3,1,-6,-24,23,6
2400,-5,-2,1,-1,-1,-12,-11,-2
2408,-1,-1,0,-6,-2,15,-2,-1
2408,-3,1,-10,-10,-15,-48,1,3
2423,-3,-10,1,15,24,52,-5,-4
2423,1,2,0,1,4,3,9,1
2423,0,1,2,-5,-21,-37,-8,-4
2423,-2,-2,-1,-20,-9,3,-5,-8
2446,-3,-12,-7,6,6,20,14,5
2446,3,6,-3,3,6,0,22,1
2446,-2,-4,-1,1,-1,-5,-2,-6
2446,4,2,1,-3,-8,-13,-1,6
2460,0,4,0,-8,0,33,-2,-4
2460,-4,-6,-3,3,2,-20,-3,1
2476,2,-1,-4,-3,-5,-22,-7,-1
2476,-3,-2,-2,5,-2,-1,4,-4
2483,-4,0,0,-3,1,-1,-4,-4
2483,3,-3,2,4,11,21,8,1
2483,-14,-1,-3,-4,-19,-34,-20,-11
2483,-2,-7,-1,12,9,13,2,7
2507,3,5,-4,-3,5,10,7,4
2507,-2,-2,3,2,17,76,9,-1
2508,-1,2,1,-5,-17,-90,-3,-5
2508,-7,-7,-2,-5,-29,-33,-25,-8
2520,-1,1,-4,-10,-7,-23,-13,-8
2520,-1,1,1,1,23,43,9,2
2528,1,-4,-4,4,2,22,20,9
2528,-2,-4,0,4,-1,-2,-3,-1
2542,2,1,2,-3,-4,-19,-3,1
2542,2,-2,3,-3,-5,-11,-7,-3
2544,3,-1,-3,-15,13,8,5,1
2544,3,2,4,5,-20,-49,-10,1
2566,-14,-19,-17,-2,-1,7,-7,-10
2566,4,8,12,6,0,-4,-1,-4
2567,-9,-4,5,2,6,18,4,3
2567,11,-1,-1,-7,4,19,-2,-2
2580,-4,5,11,7,-7,-15,2,3
2580,-4,-1,-11,-4,3,15,0,-1
2588,4,2,1,1,5,-10,25,11
2588,-5,-2,-1,-3,-10,-43,-32,-8
2603,0,1,-2,2,-5,-8,0,-4
2603,1,-6,-5,-4,-4,-8,-3,4
2604,7,8,3,5,-2,-36,-6,-3
2604,-8,-3,-8,-12,-3,23,6,-2
2627,5,3,-1,-2,-2,-17,-12,-1
2627,-7,-4,0,-1,-4,-3,-9,-6
2628,2,-3,-2,-3,1,32,3,2
2628,4,8,4,7,12,21,22,8
2649,4,-1,-2,-3,-1,3,6,1
2649,-3,-6,1,-3,1,-2,-8,-3
2650,2,10,-9,2,-13,-24,-3,1
2650,0,0,-1,7,-5,-21,-29,-8
2662,-26,-3,0,2,3,13,0,-3
2662,19,4,0,-7,-2,-37,16,7
2671,-5,-2,4,1,2,17,-11,-7
2671,-2,2,-3,-6,2,24,12,0
2686,0,1,1,-6,-6,-11,8,0
2686,-17,-6,-5,4,7,22,-11,-7
2687,4,-2,0,-2,-8,-43,2,3
2687,-2,1,-3,-2,-7,-5,-10,-7
2709,5,-1,-3,-3,14,37,10,4
2709,-11,-2,-7,-8,-27,-27,4,0
2710,3,0,2,3,6,24,-13,-2
2710,-5,-4,-2,-2,11,18,10,3
2722,5,1,-2,1,3,-11,1,4
2722,-3,0,-1,-4,-5,2,-1,4
2731,7,0,-2,1,-8,-14,-18,-6
2731,1,-1,-19,3,4,11,9,6
2746,1,0,14,-3,1,4,-3,-5
2746,0,-3,-10,3,4,13,6,-1
2748,-3,-17,5,13,-1,-32,-3,1
2748,0,0,-13,-5,-6,18,2,-1
2769,8,5,-2,-4,0,-12,-4,-2
2769,-3,1,-2,-3,0,15,-1,-4
2775,-5,-4,1,-1,-6,-2,-5,-8
2775,1,0,8,2,23,61,6,6
2783,-6,0,0,-3,-19,-54,5,0
2783,3,-2,-2,-8,-25,-47,-28,-5
2792,-9,0,-8,-9,4,31,-18,-6
2792,-3,1,19,14,0,-41,11,1
2806,7,-3,-19,-18,10,59,-5,-2
2806,6,0,1,7,13,-1,21,4
2808,4,5,1,0,-7,13,2,1
2808,-5,-7,1,-5,-6,6,1,0
2828,-2,-3,9,7,-6,-18,-9,-2
2828,3,2,-3,3,-2,-16,-4,-1
2830,-5,-1,-7,-4,4,14,2,2
2830,4,1,3,-2,4,-1,10,5
2842,0,4,2,-3,12,20,8,1
2842,-8,-5,-4,-2,-15,-22,-11,-6
2852,-2,-1,-1,-3,-7,-5,-11,-6
2852,-4,-3,15,7,4,-21,5,-1
2866,6,8,-1,-5,1,6,6,3
2866,-5,-4,-3,-7,2,13,0,-5
2867,0,-2,-7,-5,-17,-17,-10,-2
2867,-8,-5,-16,-9,-10,-25,-9,-9
2896,-3,-6,2,4,3,-16,-14,-5
2896,1,2,5,1,3,2,1,-2
2897,0,0,5,7,16,31,4,-6
2897,3,-2,-7,-1,5,26,15,19
2902,-1,-3,1,4,-9,-14,8,4
2902,-2,1,-2,0,7,49,-1,-3
2912,-5,-3,1,1,-3,-55,-2,-2
2912,9,10,0,-9,3,-5,-8,2
2925,-4,2,0,6,-9,-5,3,-5
2925,-2,-8,2,-1,-18,-28,-20,-1
2928,5,15,3,-3,7,19,0,-6
2928,-8,-3,2,0,7,19,1,-8
2949,6,7,-1,0,2,0,5,2
2949,1,-8,0,5,6,23,4,-1
2950,-1,5,-2,-6,-3,-8,0,1
2950,-17,-16,-9,-3,-8,-30,17,-6
2962,6,-27,-4,0,1,20,-32,0
2962,19,64,15,7,3,-18,-4,4
2971,6,-5,-4,-1,-5,1,3,9
2971,-5,2,3,0,-8,-1,-3,-2
2986,-14,-12,-15,-30,2,22,-1,-10
2986,-11,-24,4,8,4,-12,10,4
2989,5,-3,2,16,-1,-2,2,1
2989,-4,5,-2,-6,-3,2,-7,-9
3008,-6,-14,-4,1,-3,3,9,1
3008,7,2,-5,-14,4,3,-2,1
3010,0,0,-3,-5,-1,-16,4,5
3010,8,4,1,-2,3,22,2,4
3022,2,-11,1,9,3,-4,4,-1
3022,-2,20,2,-2,-5,-6,3,-5
3031,-8,-12,-2,-1,-4,15,4,2
3031,5,1,-10,-19,-19,-38,-9,0
3053,-12,-1,10,8,5,-11,-25,-2
3053,17,5,-1,20,7,8,11,9
3055,-15,-8,-3,-4,-2,13,6,-7
3055,4,3,-1,-6,-2,-1,-11,-3
3068,-2,3,-6,-4,-2,9,2,-1
3068,-21,-15,-5,-2,3,-9,2,-1
3070,16,4,4,2,3,-11,0,4
3070,-5,4,2,5,-2,0,-22,-13
3091,-3,-1,-2,1,-12,-20,13,-1
3091,1,-6,-3,-13,-4,28,-1,0
3093,2,-11,-4,-1,3,-24,5,2
3093,-9,-10,-2,3,3,12,-4,-6
3106,23,22,7,6,1,9,8,5
3106,-10,-25,-7,0,-4,-17,-2,-4
3107,6,9,5,1,0,18,3,-2
3107,-3,-6,0,5,7,5,-2,-4
3129,-7,2,-1,0,2,-16,-9,-8
3129,-6,-11,-7,-10,-9,0,9,5
3130,-3,9,-1,-6,-6,-13,1,4
3130,0,-13,-1,3,8,25,4,4
3142,-3,9,-4,-3,-10,-32,-11,-4
3142,0,-1,-1,-5,-17,-30,-28,-7
3159,-12,-7,-6,-7,5,18,-19,-13
3159,7,4,1,-2,5,13,21,14
3165,-7,-2,2,9,11,22,15,-1
3165,12,6,3,5,5,2,-1,-3
3180,1,9,0,-1,-5,1,4,-2
3180,2,0,5,3,-2,-6,-6,11
3188,-6,-8,0,2,1,-6,-10,-7
3188,-8,-4,1,2,-3,-13,-15,-6
3190,-6,-6,-4,-2,2,15,8,1
3190,3,2,-4,-3,4,5,7,1
3203,2,3,-2,-3,-6,-18,2,5
3203,3,-3,-3,-3,-9,-17,-10,1
3211,1,-2,-4,-6,-2,-5,-7,-2
3211,-2,-1,1,8,10,24,5,7
3226,1,5,1,0,10,19,7,-17
3226,8,4,-3,-6,-23,-38,-2,-13
3228,-8,-19,-6,-12,-10,-10,-1,5
3228,4,16,5,8,-3,-21,-5,-11
3248,7,0,-1,2,6,9,-5,10
3248,-6,11,9,10,21,42,19,-4
3251,1,5,2,2,-3,-12,-14,-1
3251,-5,-7,-8,-13,-12,-10,10,6
3263,-4,-23,-11,-11,-7,-10,-13,0
3263,18,15,4,2,2,-6,-7,3
3279,-5,-8,-1,12,6,21,4,-2
3279,-8,-1,2,2,-1,-6,-16,-18
3286,-5,-3,-3,-6,-7,3,7,3
3286,-5,-11,-8,-15,-3,0,10,6
3288,-1,-5,-6,-3,1,-7,11,4
3288,2,12,2,2,-12,-30,-29,-14
3309,6,4,5,2,-5,-1,4,8
3309,-9,-7,1,5,8,25,-3,2
3310,5,12,2,1,16,51,20,8
3310,-10,-16,-4,-5,-11,-56,-2,-13
3331,-2,2,0,-2,-9,6,-8,4
3331,-4,-13,-2,3,8,7,-5,6
3333,12,25,3,4,1,6,12,-1
3333,1,-6,-2,0,1,21,1,6
3345,1,7,3,-1,0,-22,12,-2
3345,-13,-16,-10,-14,-11,-1,-12,-7
3352,-3,-3,1,4,-6,-29,-17,-10
3352,9,0,2,6,8,6,0,4
3369,2,2,-1,-2,-5,2,11,21
3369,-1,8,-2,0,11,28,10,-24
3370,-7,-11,-8,-10,-5,-34,-18,-10
3370,-8,3,3,0,0,12,15,13
3391,-10,-6,1,10,5,10,-10,-5
3391,3,-1,1,-2,0,-12,5,5
3393,-1,-5,0,-1,-3,2,0,-5
3393,-2,-1,-4,-10,-4,7,2,0
3405,4,4,2,3,3,-2,-9,6
3405,-6,-6,0,1,1,5,11,-9
3412,3,1,-3,-1,-1,-2,9,4
3412,-1,-7,-3,0,1,-8,-9,1
3428,-3,0,-5,-8,-15,-7,-5,-12
3428,0,1,3,5,-5,-26,-6,1
3430,-2,-4,0,-1,1,-2,-10,0
3430,7,3,2,4,6,26,14,7
3442,-4,2,-4,-5,10,63,11,-4
3442,3,0,2,2,-11,-83,-9,4
3451,-13,-7,2,3,-7,1,-10,-18
3451,11,6,3,1,-1,2,-4,0
3466,-1,0,-2,0,4,2,-1,-3
3466,-4,-4,-2,-1,5,24,9,12
3468,-2,0,-1,-3,-6,-3,-2,-8
3468,2,-1,-10,-9,-7,-14,-12,-16
3489,1,1,6,-1,-1,-8,1,-2
3489,7,6,0,7,7,12,1,9
3490,5,-5,0,0,-1,-4,1,4
3490,-6,-4,-4,-4,-5,2,1,-9
3519,-3,0,-6,-8,-13,-31,-13,-2
3519,-4,-11,1,3,3,7,-3,-2
3521,7,9,2,4,4,12,1,7
3521,2,3,-2,-2,3,3,8,7
3526,-2,-3,1,5,6,-8,6,-5
3526,-7,-6,-2,-2,-13,-11,-15,-8
3533,6,13,0,-3,-6,-7,-5,5
3533,-4,-6,1,1,4,3,-2,2
3548,2,1,-4,-5,2,-2,1,-3
3548,2,-1,-3,-5,1,9,-2,-4
3550,-12,-8,-1,-2,-1,5,2,-4
3550,3,-1,-1,0,-5,-2,9,6
3571,1,-4,-3,1,6,0,0,0
3571,2,5,8,12,6,8,5,4
3573,1,-7,-6,-12,-11,-17,-15,-2
3573,-3,-1,1,1,-1,3,-6,-7
3586,-5,-9,0,0,1,-4,-1,-2
3586,4,-1,-4,-7,6,11,8,3
3592,-1,-1,-1,3,11,1,-2,-29
3592,-8,1,1,3,1,-3,-6,1
3609,-30,-12,-16,4,22,-10,-25,-63
3609,43,28,8,12,-14,11,45,33
3610,-15,-21,18,6,-17,-5,0,-10
3610,-4,0,-24,-89,-95,-17,-10,-74
3632,-16,-2,3,-2,-7,-7,-23,-82
3632,-17,-11,-12,-12,1,-4,7,14
3636,26,8,-23,11,28,4,17,83
3636,-10,-5,18,27,23,5,1,3
3646,51,10,2,-5,-13,2,26,113
3646,-21,-2,-3,-5,1,-7,-25,-99
3653,2,-3,3,-2,-3,4,1,-32
3653,-6,-9,-8,11,14,-4,-9,4
3669,-17,-3,-1,-2,-5,-3,-2,-18
3669,9,-8,3,-1,2,-5,-7,13
3670,-7,-1,-7,-8,-4,-2,-9,-2
3670,30,9,10,13,12,8,4,72
3691,-12,-2,2,5,0,-4,-5,-21
3691,19,7,-5,-7,-5,4,10,112
3693,-11,-6,-1,-5,-5,-5,-5,-31
3693,-3,-2,-6,7,12,-1,1,-2
3705,9,5,5,1,-2,4,20,48
3705,-27,-13,-11,-6,-4,-8,-24,-70
3713,-14,2,1,-1,1,3,-6,-20
3713,2,3,6,12,11,2,1,-3
3730,21,3,-10,-2,-3,1,13,57
3730,-4,-3,0,-5,-6,-4,-9,-13
3731,-3,0,2,0,1,0,12,17
3731,2,2,-3,1,3,3,-2,-54
3751,-7,-2,0,-2,-4,-2,-3,33
3751,-16,-5,0,-3,0,0,-5,-23
3752,-3,-3,6,1,1,3,1,-5
3752,-1,2,-14,3,5,0,-1,10
3764,6,-2,9,-4,-1,-2,-7,-50
3764,-2,-1,2,0,3,4,8,40
3774,2,1,3,-2,0,1,-1,-5
3774,4,-2,-8,1,8,32,-3,-28
3788,-2,2,3,3,-5,-47,8,48
3788,-4,-5,-3,-5,-10,1,-10,30
3790,5,1,-3,-2,-1,-10,-10,-38
3790,-4,2,7,4,1,5,7,-38
3810,10,3,1,2,8,32,-1,-1
3810,-1,0,3,0,0,-18,-3,-34
3813,2,0,-4,-2,-7,-3,2,-7
3813,-7,-3,6,2,3,-5,-13,-28
3825,-1,-1,-3,-2,0,5,3,-21
3825,1,-2,0,-2,0,-3,-6,-28
3833,-1,-1,0,1,2,8,-3,7
3833,3,-2,2,-1,-2,-13,6,25
3848,-1,-2,-5,-4,-4,2,-4,-18
3848,0,1,-1,0,2,9,0,-6
3854,-1,0,-1,-3,0,-3,3,6
3854,-1,-1,1,0,-2,-3,3,31
3871,-5,1,-1,0,-1,2,-5,-26
3871,0,0,-1,1,2,3,1,-3
3873,2,0,0,-1,-2,-2,0,14
3873,-3,-5,1,-1,-2,-11,-5,-2
3884,7,0,-1,-1,-4,1,-5,-19
3884,-4,-2,-6,-3,-2,-4,-3,-19
3893,-3,-2,-15,-2,-2,-1,0,18
3893,-7,-2,12,2,-1,-1,-2,6
3909,-7,-2,-2,-1,-4,-2,-1,-19
3909,-1,0,-2,-1,0,2,-2,-20
3910,2,0,-4,0,-1,1,2,5
3910,1,-2,-4,-1,-2,0,2,23
3931,-5,-1,0,-1,-2,0,-1,-1
3931,-1,-2,-4,-1,0,0,-2,-5
3933,-4,-4,1,-2,-2,0,-4,-15
3933,6,4,0,1,-2,-5,-3,-9
3945,-7,-3,-1,-1,-1,-4,-5,-15
3945,-1,2,0,1,4,3,2,25
3954,1,-1,2,2,1,-4,1,-1
3954,0,-2,-2,0,-2,-2,3,0
3969,1,0,-3,0,-3,-1,-1,-7
3969,0,-2,0,-2,-3,-2,-4,-5
3970,-2,-1,2,-2,-1,-1,1,3
3970,-4,-1,-3,-2,-2,-4,-4,9
3991,2,1,0,-1,1,2,-4,-6
3991,3,1,1,0,-1,-2,0,0
3992,-2,-1,-1,0,-2,0,-2,3
3992,-1,-3,-2,-1,-1,-3,-4,-6
4005,-1,0,1,0,0,2,0,-7
4005,3,0,1,0,-1,0,2,5
4014,2,-1,0,-1,-1,-1,-1,-2
4014,-3,-1,-4,-1,-2,-3,-1,-5
4028,-4,-1,-2,0,-1,0,2,5
4028,-6,-2,-1,-1,-3,-1,-2,3
4030,0,2,0,0,-1,1,0,-5
4030,-1,-3,-1,-3,-1,-2,-1,-2
4051,1,-1,0,0,1,1,0,1
4051,-2,-2,-1,-1,1,-1,-1,-7
4053,-1,0,2,-1,-1,-1,0,-4
4053,-2,-1,-3,-1,0,0,1,-3
4065,-2,-1,-3,-2,-1,-1,-2,-4
4065,-1,-1,-1,-2,0,-2,0,4
4080,2,1,-1,0,1,-1,1,0
4080,0,-1,-1,-1,-2,-1,-2,-1
4089,-4,-2,-1,0,-1,-2,-4,-8
4089,1,-1,-3,-1,-2,-1,1,2
4090,0,0,0,-1,-1,-2,-1,1
4090,-3,-2,-2,1,-2,0,-3,-1
4111,-3,-2,-1,0,-1,-3,-5,-6
4111,0,-1,-1,0,1,-2,-2,-2
4112,-4,-3,-2,-3,-2,-2,-2,-2
4112,-3,1,1,-2,-2,1,1,-6
4125,-2,-1,0,-2,0,-1,2,0
4125,-3,-1,0,0,0,0,-2,-3
4149,-4,-1,-2,-3,0,0,-1,-2
4149,2,0,-2,-1,-1,-2,1,1
4150,-1,0,-2,-1,-2,-2,-4,-1
4150,-1,0,-1,-1,-2,0,0,-2
4151,2,-1,-3,-1,0,-2,-2,-2
4151,0,-1,-1,-2,-1,-4,-3,0
4171,6,0,0,0,0,-2,-1,3
4171,-2,-1,-1,-1,-2,0,-1,-3
4173,0,-1,-1,0,-3,-1,0,0
4173,-5,-2,-1,-1,0,0,0,1
4185,2,-1,-2,-2,-2,-1,-1,2
4185,1,0,1,1,-2,-1,0,0
4193,0,0,-2,-1,-1,0,-4,-1
4193,1,-2,-1,0,-3,-1,0,-1
4209,4,1,0,-1,-3,-2,-5,-4
4209,0,-1,-3,-1,-1,0,2,0
4211,-2,-1,-1,0,-1,-1,0,6
4211,-3,0,-2,-1,-2,0,0,-1
4231,-4,-2,-3,-1,0,0,-1,1
4231,0,-1,0,0,-1,-2,-4,-2
4233,-1,-3,-1,-1,-1,1,1,-4
4233,-3,-1,0,-2,-2,-1,-2,-1
4245,1,1,0,-1,-3,-1,0,1
4245,-1,0,-1,1,-1,-2,-1,-2
4254,-2,2,-1,-3,-3,-2,-1,-3
4254,-1,0,0,-1,1,-1,-3,-1
4268,-8,-3,-1,-2,-2,0,4,3
4268,0,-1,-1,-2,-1,-1,2,-2
4275,1,1,-1,1,0,1,-3,-4
4275,0,0,0,-2,0,-1,-2,-3
4299,-3,-3,-2,-1,-1,-3,-2,-3
4299,-1,-4,0,-1,0,-3,-3,-1
4300,-1,0,0,-2,-2,-3,-2,2
4300,1,-1,-2,-2,-1,-1,-1,-1
4305,2,-1,-2,1,1,-1,-1,1
4305,-3,-2,-2,0,-1,0,-3,-1
4314,-1,-1,-1,0,-1,1,-2,-1
4314,2,-2,0,-1,-2,1,0,1
4328,-4,-1,0,-2,-2,-1,1,-2
4328,-3,0,-1,-1,-2,-4,-2,-3
4335,-3,0,-3,-1,-4,-2,-2,-4
4335,0,-1,-2,0,0,0,0,6
4351,0,0,1,1,-1,-1,5,3
4351,-3,-2,-1,-2,0,1,-3,2
4352,-2,-2,1,0,-2,-2,0,0
4352,0,0,-1,0,-1,-1,-2,-3
4364,-1,-2,0,-2,0,-2,-3,-1
4364,1,-1,-1,-2,0,-2,0,0
4374,0,-4,0,0,-1,-2,-1,0
4374,1,-1,0,-1,0,-3,-1,-6
4387,-1,-1,0,0,-1,1,-3,8
4387,1,-2,-1,-1,-2,1,-3,-1
4394,0,-4,-2,-2,-1,-1,2,0
4394,-5,-2,-2,0,-1,-2,1,-3
4419,-3,-2,-4,-2,0,-1,-3,-5
4419,1,0,-1,-1,-1,0,-1,-2
4420,0,-1,-2,0,0,-1,-3,0
4420,-2,0,0,-1,-2,1,-2,0
4432,1,0,-2,-1,-1,-1,0,-2
4432,0,-1,-1,-2,-1,-1,-1,0
4441,-3,0,-1,-1,0,-2,-2,-5
4441,-1,-1,-2,-1,-1,-1,0,-4
4447,-2,-2,-2,-3,-2,-1,3,4
4447,-3,-2,-1,0,0,-2,-5,-3
4456,-2,-1,1,-2,0,1,4,2
4456,1,-1,-1,-1,1,-1,-1,-2
4471,-3,-2,0,-2,0,-1,-2,-4
4471,-2,-1,-1,-1,0,1,-1,-1
4473,2,-1,-2,1,-3,-1,-4,-2
4473,1,-2,0,-1,0,0,-6,1
4494,4,0,0,0,-2,0,-3,0
4494,2,0,-2,-1,-5,-2,7,2
4495,-3,0,-2,-2,0,-3,-2,-2
4495,-3,-1,-1,0,0,-2,5,0
4508,-1,-1,-1,1,0,1,-5,-3
4508,-1,-1,-1,0,-1,1,-4,-2
4516,8,2,0,0,0,1,1,-1
4516,0,0,-2,0,-3,-1,-7,-4
4531,-6,-3,1,-1,0,1,-4,-6
4531,0,-1,0,-2,-1,0,10,3
4532,-3,-2,-2,-2,-2,-3,1,1
4532,0,1,-4,-2,0,-3,0,0
4554,0,0,-2,1,-1,-4,-3,-2
4554,-3,-1,-2,-1,0,-2,-5,-2
4555,-2,-3,0,-2,-1,1,-5,-1
4555,0,-2,1,0,-1,1,1,0
4568,-1,-1,-1,-1,-2,-1,1,-1
4568,-4,-2,-1,-1,-1,-1,-2,-2
4575,4,1,-1,1,-1,-2,2,1
4575,-1,-2,0,-1,0,-1,-1,1
4591,-3,-2,-3,-3,1,-1,-1,1
4591,0,0,-1,-1,0,-3,-4,-1
4593,-2,-2,0,-1,0,0,0,-2
4593,-2,-2,-2,0,-2,0,2,3
4613,-1,1,-1,-2,-2,0,2,-1
4613,2,-1,-2,-1,0,-1,-1,-1
4616,-5,-2,0,1,0,-1,-4,-3
4616,-1,-2,-1,-1,0,-3,-3,-5
4636,0,-1,0,-1,-3,-1,0,-1
4636,3,2,1,0,-2,-1,-4,-1
4637,-1,-2,-2,-3,-2,-1,1,0
4637,0,-1,-1,-1,-5,-1,3,0
4651,-3,0,-1,-2,0,-3,-3,-2
4651,-4,-2,-1,0,-2,-1,1,-1
4653,-1,-1,-2,0,-2,-2,0,1
4653,0,0,-1,-3,-1,0,-3,-2
4674,0,0,-2,0,0,-3,0,-1
4674,1,-3,-1,1,-2,0,-2,1
4676,2,0,0,0,0,2,-2,1
4676,0,-1,0,0,-1,1,0,1
4687,3,1,-1,1,-1,-1,0,-2
4687,-2,0,-2,-3,1,-3,0,-3
4697,-3,-1,-2,-3,-1,-1,0,0
4697,5,0,-1,-2,-2,-1,1,-1
4719,1,0,-2,-3,-2,-1,0,-2
4719,-5,-1,0,-1,-1,1,-2,-4
4720,-2,-2,-1,-2,0,-1,0,-5
4720,-3,-2,-2,1,0,-1,-1,-4
4733,-1,-1,0,-1,0,1,-2,-1
4733,0,-3,-1,0,-2,-4,-2,0
4736,-1,0,1,-1,-3,-2,-3,0
4736,-2,-1,0,-3,0,-2,-1,0
4747,-1,-2,-3,-1,1,-2,0,2
4747,-1,-1,-1,1,-1,0,0,-1
4757,0,-1,0,-2,-2,0,1,-1
4757,-4,-2,-2,-1,-2,0,-3,1
4771,0,-2,-1,-1,-3,0,-1,1
4771,4,-1,-2,-2,-1,-1,0,2
4772,-1,0,-2,1,0,-1,-1,-1
4772,-1,1,-1,-1,-2,-2,-1,-2
4794,-2,1,0,0,-1,-2,-2,-3
4794,-2,-1,-1,-1,-1,1,-2,0
4795,0,0,-2,-2,0,-1,-1,-1
4795,-4,-1,-1,-2,1,0,1,-1
4807,-1,-2,-1,-1,0,-2,0,-2
4807,-1,0,-3,-2,-1,-1,0,-2
4824,-2,1,-2,0,-1,-2,-4,-3
4824,-2,-2,-1,1,-2,-2,-4,-2
4831,-4,-2,-1,-1,-2,-2,-2,1
4831,-2,-2,1,-1,-4,0,-1,-2
4833,-2,-3,-2,-1,-1,-1,0,1
4833,2,-1,-2,0,0,1,-1,1
4853,1,-1,-1,0,1,-2,0,-1
4853,-3,-2,-1,-1,1,0,0,0
4855,1,-1,-3,0,-1,-1,0,1
4855,-1,-1,-1,-2,-2,-2,0,-1
4867,1,0,-1,0,-3,-1,-3,0
4867,-1,1,-2,-2,0,0,-3,-2
4876,1,0,2,-1,0,0,0,-1
4876,0,-2,-1,-1,1,0,1,0
4891,-2,0,0,1,-3,-1,0,-1
4891,-1,1,-2,1,-2,0,0,0
4893,-4,-2,-2,-1,-4,-2,-1,-2
4893,-2,0,0,-2,-2,-2,0,-2
4913,2,0,-2,0,0,-1,-1,0
4913,-2,-1,-2,-3,-1,-3,-3,1
4915,-2,-1,0,0,1,-1,-1,-2
4915,1,1,-1,-1,0,-3,-2,0
4928,-5,-3,-3,-3,-1,0,1,-3
4928,1,-1,-2,-2,0,-1,1,-1
4936,-1,0,-1,0,-2,-1,0,-2
4936,-8,-4,-1,0,-2,-3,-2,-3
4952,1,-2,1,-1,0,-2,-3,-1
4952,-1,-1,-2,0,1,-2,1,-1
4953,0,-2,-2,-3,0,1,3,-1
4953,-1,1,-1,-2,-1,0,-2,0
4974,-3,-2,-3,-2,-2,1,-1,0
4974,0,1,0,-1,-1,0,-1,-1
4975,-4,-1,-1,-1,1,-3,-3,-2
4975,0,0,-1,0,-1,-2,-1,-3
4996,1,-1,0,0,-2,1,-1,0
4996,1,-2,0,-1,-2,-1,-1,1
4998,-2,-1,-2,1,-1,-1,-2,0
4998,2,-1,0,0,-1,-2,-1,-1
5012,-3,-1,-1,-2,0,-3,-1,-1
5012,-2,-1,-1,-2,-3,-1,1,-1
5013,1,0,0,-1,-1,-1,-2,0
5013,4,0,1,-1,1,1,1,-1
5034,-3,0,-2,-1,1,0,-1,-1
5034,0,-1,1,-1,-2,0,1,-1
5035,-1,-3,-2,-1,-1,0,-1,0
5035,-2,-1,-1,0,-2,1,-2,0
5056,-1,-1,-1,-1,-1,-1,-1,0
5056,0,0,0,-1,0,0,0,-2
5062,-2,-1,1,-2,-3,-2,0,0
5062,0,-2,-2,-1,-1,-1,-2,1
5072,0,-2,0,-2,-2,0,-2,-1
5072,-3,-3,-2,-1,1,-2,-3,-1
5073,-2,0,-2,-1,0,-2,1,-3
5073,1,1,-2,0,-1,-2,1,-1
5102,-1,0,-1,-1,-1,-1,0,1
5102,-1,-2,-2,0,-1,-1,-4,-1
5103,-2,-1,0,-1,0,-1,-4,-2
5103,-3,0,-1,-2,-1,-1,-1,-1
5108,3,-2,-1,-1,-1,0,-1,-2
5108,-6,-3,-1,-1,-3,-1,0,-2
5117,3,-1,-1,0,-2,-2,-1,0
5117,-2,-1,-3,-1,1,-2,-2,0
5131,-2,-1,-1,-1,0,-1,-1,-3
5131,0,0,1,-1,-2,-1,-2,-1
5137,-1,-1,-2,-2,-1,1,-3,-1
5137,-4,-1,-3,0,-2,-2,0,-1
5154,-3,-1,-1,0,0,-2,-1,-1
5154,-1,-1,-1,-2,-1,-2,-2,-2
5155,0,-2,-1,-2,0,-3,-2,-1
5155,-1,-2,-2,-1,-2,0,-1,0
5167,0,0,0,0,0,0,2,1
5167,1,-2,-1,-1,2,-2,1,-2
5176,-2,-1,-1,-2,-2,-3,-1,-1
5176,-1,-3,1,-2,-2,1,-1,-1
5191,1,1,0,-2,-3,0,-3,-1
5191,1,0,0,0,0,0,-2,1
5192,0,-1,-1,0,-2,-2,-2,-1
5192,1,0,-2,0,-1,-1,0,0
5214,0,1,-1,0,-1,0,-1,0
5214,6,2,-2,-2,-2,0,-1,-1
5215,-2,0,-3,-2,1,0,3,-2
5215,-3,-1,-1,-1,-1,-1,-1,-3
5227,-3,-3,-1,0,0,1,1,-2
5227,-4,-1,-1,-3,-1,-1,-1,-1
5236,1,-2,-1,-1,-1,-1,-1,1
5236,0,0,0,-1,0,-2,-3,0
5250,2,-1,-2,0,0,-1,-4,-2
5250,-1,0,-1,0,0,0,-6,-2
5258,-1,-2,0,0,-2,-1,4,1
5258,-2,-2,-2,-2,1,-1,2,-2
5274,0,0,0,-1,-1,-2,2,0
5274,-1,-1,-2,1,0,-1,1,-1
5276,-4,-1,-2,0,0,1,-4,-1
5276,-1,0,-1,-2,1,-1,-1,-1
5287,-1,-3,-1,0,-2,0,-1,-2
5287,-4,-2,-1,0,-2,-1,1,-1
5297,-3,-3,-2,-2,-1,0,-1,-1
5297,1,-1,0,0,-1,0,-2,0
5310,4,3,-1,-3,0,-1,-1,2
5310,-3,1,0,-1,-1,-2,0,-1
5317,1,0,-1,-2,-2,-1,-2,-2
5317,1,-1,-1,-1,-1,-1,-1,2
5333,-3,-5,-1,-1,-3,-3,0,-1
5333,-2,-3,-1,0,-3,1,-1,1
5336,1,-1,1,-3,-1,1,-2,-3
5336,-3,0,-1,-1,-2,0,-12,-5
5356,-6,0,-2,-2,0,-1,2,-4
5356,2,-1,-1,-2,-1,-1,10,11
5358,10,2,0,-1,-1,0,1,-3
5358,-3,-1,-1,-1,-2,-1,-9,-5
5371,-4,-1,-2,-1,-3,-2,7,3
5371,0,-1,-2,-2,0,-4,-7,-3
5378,-2,0,-2,-1,-1,-2,5,4
5378,-1,-1,0,-1,-2,-1,-1,-3
5393,2,-1,-2,0,-2,-3,-8,-4
5393,-5,-2,-2,0,0,0,0,-4
5396,5,1,-2,1,-1,0,-3,-1
5396,-2,0,-1,-1,-1,-1,2,-2
5407,-4,0,-2,0,-1,-1,-2,-1
5407,-1,0,-3,-1,1,2,2,-4
5417,-5,-2,-2,-1,0,-3,-6,-3
5417,1,0,0,-2,0,-1,3,1
5430,1,-2,1,-1,0,-1,0,-1
5430,2,0,0,-2,-1,-1,-5,0
5437,-4,-3,-1,1,-1,0,-1,2
5437,6,-1,-2,-2,-1,0,-7,-2
5454,0,0,0,-1,0,0,4,1
5454,-4,-1,0,0,0,-1,1,-3
5455,-11,-3,-3,-1,-1,-1,1,0
5455,3,-1,-1,1,-2,-1,2,3
5484,-1,-3,-1,-1,-2,-1,-9,-5
5484,0,-3,-2,-2,-2,-1,-6,-1
5485,-2,-1,-1,-1,0,-3,0,-1
5485,8,1,0,0,-1,-3,2,0
5490,-1,-1,-2,-2,-1,-1,-2,0
5490,-4,-1,0,-2,-2,-2,2,0
5497,-1,-2,0,-1,0,0,0,0
5497,-8,-2,-1,-2,-1,0,2,-1
5513,2,0,-2,0,2,-1,0,-1
5513,3,0,0,0,0,0,-1,-1
5516,-2,-3,-2,-1,-1,0,-4,-3
5516,1,-3,-1,-1,0,-2,2,0
5536,-3,-1,-1,0,-3,-1,2,1
5536,-5,-1,-2,0,-4,-2,-3,-3
5537,5,2,-1,-2,-1,-1,-2,0
5537,1,-1,-1,0,0,-1,-3,0
5551,1,-1,0,-2,-2,-2,-4,1
5551,-6,-3,-2,-2,-2,-3,-1,-2
5558,-2,0,1,-1,-1,-3,-2,-1
5558,-1,0,-1,-1,0,0,3,1
5574,-4,0,-1,-1,0,-1,-2,-3
5574,-1,1,-2,-1,-1,-1,-2,-2
5575,-4,-2,0,0,-4,-1,0,-2
5575,-2,-1,0,-1,0,0,-1,-2
5596,2,-1,-1,-1,-1,-2,-1,0
5596,2,0,0,-1,0,0,-1,-1
5597,-4,-2,-2,-2,-1,2,2,0
5597,-10,-4,-2,0,0,0,-3,-6
5610,5,0,0,-3,-3,-2,-1,-1
5610,-2,-3,0,0,0,-3,-4,-1
5619,-1,0,-1,2,0,0,-4,1
5619,-7,-2,0,1,-3,-2,0,-1
5634,-4,-2,-2,-1,-1,-2,-2,-2
5634,10,1,1,0,0,-3,2,0
5640,2,-1,-1,-2,2,0,1,-3
5640,-3,0,0,-2,-1,-1,-7,-1
5656,-11,-3,-2,0,-1,0,4,-1
5656,1,0,-2,-1,-1,1,-4,-1
5658,-2,-1,0,0,-1,-3,5,1
5658,3,0,0,-1,-4,-2,0,2
5669,-2,-1,-1,-1,-4,2,-3,-3
5669,1,-2,-1,1,-2,-2,2,-1
5679,0,-3,-2,-1,-3,-1,-2,-1
5679,1,-3,-3,-1,-1,-1,-1,-2
5694,-1,-2,-1,0,0,-1,2,1
5694,-2,1,0,-1,-1,-1,-1,2
5695,-5,0,-1,-2,-2,-1,-3,-3
5695,0,-1,-1,-2,-1,-1,1,-1
5716,-6,-2,-3,-2,-2,-2,-8,-2
5716,2,1,0,0,-1,-2,-1,-1
5717,-2,-1,0,-1,-2,-3,-4,-2
5717,2,0,0,0,-2,-2,-5,1
5730,-1,-2,-3,1,-1,0,-2,0
5730,-2,-2,-2,0,0,0,-1,0
5738,1,-1,-4,-2,-1,1,0,-2
5738,-5,-3,-1,-1,-1,0,2,-4
5754,4,0,0,-2,1,-1,-2,-4
5754,0,0,0,-2,0,-1,0,0
5755,-1,-1,1,-1,-1,-3,-1,-1
5755,5,-1,-2,-2,-1,0,1,4
5777,4,0,-13,-4,-2,0,-1,0
5777,-5,-3,3,0,0,-1,-1,0
5778,-1,-2,2,0,1,0,-1,0
5778,0,0,-3,2,1,1,2,-1
5790,5,0,-1,-2,-2,-2,-1,-1
5790,-6,0,-2,0,0,2,1,-2
5799,4,-1,0,-2,-1,-1,1,2
5799,2,1,-3,-3,0,-2,1,-1
5814,-9,-2,1,0,-1,-1,-1,-1
5814,5,1,-2,-2,-1,0,-2,2
5815,0,0,2,1,-2,0,-4,0
5815,-2,-1,-1,-1,1,-1,-2,0
5843,-1,1,3,-1,1,-1,-2,-1
5843,1,0,0,1,0,-2,-2,2
5846,-1,-1,-6,0,-1,-3,-2,-1
5846,0,-3,-17,-2,-2,1,-1,0
5850,0,-1,6,-1,-1,0,-2,0
5850,-1,-1,-5,-2,-1,-2,0,-2
5865,1,1,-1,-2,0,-2,-1,-4
5865,-2,-1,0,-1,0,-1,0,-1
5874,-2,-1,1,0,-1,-1,1,-2
5874,-4,-4,-3,-2,-1,-1,-4,-3
5875,1,-1,-6,-3,-2,1,2,-2
5875,-6,1,3,-2,-1,0,0,-5
5896,2,-2,5,2,-3,-1,2,3
5896,3,0,0,-2,-1,-2,0,1
5898,-5,-3,-2,0,-2,-2,-5,-2
5898,-6,-2,2,0,-1,-1,-2,-4
5910,3,1,-1,-1,-1,2,-1,0
5910,-2,-3,1,-1,-2,0,-1,-1
5918,-3,0,2,-1,-2,0,3,2
5918,-1,-1,1,0,-2,-1,1,0
5933,-1,-1,-1,1,-1,-3,-3,-3
5933,-3,1,-2,0,0,-2,-2,-1
5939,-3,-1,-2,-1,-2,-1,-7,-3
5939,12,2,6,-1,1,-1,2,5
5956,-6,-2,-2,-2,-2,-3,-5,-1
5956,-4,-2,-11,-3,-3,0,-2,1
5958,-3,-6,3,-3,1,1,-4,-3
5958,-3,-2,0,-3,-1,-1,-1,0
5970,-5,-2,2,-2,-1,-3,-1,-4
5970,1,0,0,-1,0,-1,4,-1
5986,-10,-3,-3,0,-2,-4,2,-1
5986,-3,-4,-1,0,-2,0,2,2
5993,5,0,-10,-3,0,0,1,3
5993,-2,-2,5,2,-3,1,0,-2
6000,5,1,0,-1,2,1,2,-2
6000,-5,-2,0,0,-2,-3,-3,-1
6016,-8,-2,-2,-2,-1,-2,-1,-4
6016,3,-1,-1,-2,-1,-4,-4,-7
6017,1,2,3,2,2,1,-1,7
6017,3,0,-18,-3,-2,-3,-4,1
6030,0,-3,9,3,0,1,-2,-4
6030,-10,-3,-2,-4,-2,-1,0,-4
6039,5,2,-3,0,-2,1,3,0
6039,1,-1,-1,-2,0,-1,-3,-4
6054,17,5,-2,-1,0,1,2,6
6054,0,0,3,-1,-5,-1,-3,-1
6055,-1,-2,-7,-4,-3,-3,-2,-4
6055,4,0,7,1,-2,-1,4,6
6076,-2,-3,0,0,0,-2,-3,-3
6076,-1,-2,2,1,2,1,-4,-6
6084,-19,-6,-4,-1,-3,-4,0,-2
6084,-7,-2,4,0,0,-1,-1,-5
6099,4,2,-1,0,0,1,9,13
6099,0,1,-2,0,0,1,-6,-11
6100,10,-3,0,-6,-6,-4,-3,5
6100,-9,-3,-2,1,1,-2,-2,-8
6113,0,-1,3,-6,-6,-4,-3,3
6113,3,0,-5,-3,0,-2,-1,-1
6115,12,7,6,4,2,0,-3,4
6115,-1,1,-1,-1,-1,0,0,1
6136,-4,-6,-9,-1,1,-1,-7,-12
6136,-1,7,7,1,-1,1,4,12
6138,-6,-7,-42,-5,-4,-3,0,7
6138,-9,-5,25,3,-2,-5,-9,-30
6149,-9,2,-3,1,2,5,11,14
6149,-17,-8,-1,3,0,-1,3,-9
6158,0,3,6,2,1,-2,-4,-6
6158,9,4,-9,-2,1,0,7,26
6174,-6,-2,-5,-3,-4,-4,-4,-12
6174,4,6,4,0,2,0,1,-14
6175,-9,-7,4,-5,-4,2,-2,-3
6175,-3,-6,-9,-3,1,-3,-6,-5
6196,-6,-2,6,0,-3,-4,-17,-49
6196,6,1,-8,-3,1,7,20,12
6198,16,6,10,6,2,0,0,-20
6198,12,14,26,0,-2,-1,5,1
6210,-9,-11,-17,-3,-2,-1,-6,5
6210,5,-3,-28,1,-1,-2,-8,10
6219,-11,-4,25,18,2,0,2,19
6219,-8,-10,-13,-18,-6,-3,-3,-49
6241,2,12,-4,1,3,1,2,2
6241,-14,-3,2,-3,0,1,-5,-19
6242,2,0,-2,-2,-2,2,7,16
6242,-3,0,-11,1,-3,-5,-14,-47
6256,4,-4,5,0,-2,-1,11,90
6256,-4,-3,-21,-1,-4,-6,-5,1
6257,1,-2,30,-5,-1,-1,-1,-3
6257,-1,-4,-3,1,1,2,4,19
6269,5,1,6,3,1,0,1,-13
6269,9,5,3,1,2,1,1,6
6278,-2,-1,2,41,-3,-1,-2,8
6278,-1,-4,-35,-61,-6,-2,-4,-13
6302,6,-2,-1,-14,-13,1,5,33
6302,-2,-4,7,-6,-2,-5,-7,2
6303,-2,2,-4,4,2,0,-1,-15
6303,-5,-1,10,19,6,3,3,32
6315,6,1,-4,6,1,0,-6,-31
6315,2,0,23,0,-1,1,4,9
6318,-8,-5,-12,-18,-1,-4,-7,-32
6318,-1,1,1,10,0,5,10,14
6330,-7,-3,-3,-6,-1,-11,-15,-12
6330,0,-3,2,4,-4,-8,-9,-9
6338,1,-1,-6,-9,-1,0,11,6
6338,5,1,2,7,0,1,2,29
6353,0,3,5,9,4,2,-1,-20
6353,14,-1,1,-4,0,1,6,70
6367,-4,-1,-11,-13,-4,-3,-7,18
6367,-1,2,4,8,-2,-1,-5,-14
6375,-4,-10,-21,-5,0,2,8,31
6375,2,-1,-3,6,0,-1,-1,-11
6384,-15,-6,-9,-4,-6,-6,-8,-23
6384,-34,-9,-2,2,-1,-2,-12,-22
6399,25,10,3,0,1,4,9,2
6399,-11,-3,-4,-7,-5,-1,-2,-30
6400,-1,2,-1,-1,0,2,-2,2
6400,-1,0,5,5,-2,-2,0,5
6413,-5,0,-22,-3,2,-3,-4,-22
6413,-1,2,9,2,-2,0,3,-23
6420,4,2,14,-5,2,0,-2,12
6420,19,-1,-3,4,-3,-2,-8,45
6436,-9,-2,8,-3,-1,2,3,-5
6436,5,2,-6,6,3,1,-2,-47
6437,-5,-4,-9,-6,-2,-4,-12,-32
6437,-1,1,13,4,-2,-1,23,10
6458,-3,-1,2,-1,-2,-3,-7,-3
6458,-2,1,3,-3,-1,2,5,-37
6459,5,3,-4,-4,-2,2,8,40
6459,-3,1,14,4,1,-2,-12,-4
6481,-2,4,14,4,-1,-1,-1,-12
6481,-3,0,-11,-3,-1,0,-1,15
6482,6,0,-1,3,1,0,-7,-11
6482,3,-7,-16,-7,-4,-2,4,18
6504,-15,-2,2,2,0,-1,1,-19
6504,-4,-5,-6,-10,-2,-4,-8,19
6505,5,1,-8,10,3,2,5,10
6505,5,4,2,2,0,0,-3,-39
6550,-8,-3,4,-4,-3,-1,-6,-23
6550,-5,-5,-4,3,0,-4,-2,-7
6551,5,11,31,-3,-1,2,5,63
6551,-9,3,11,3,-2,-2,-6,-36
6553,0,-11,-14,-7,-2,-3,-2,0
6553,-11,1,7,-1,-2,-2,-9,-11
6572,5,-1,-15,-6,-3,-3,-1,-1
6572,1,-1,-10,2,3,4,1,-18
6573,-1,-2,11,6,-4,0,0,8
6573,3,-22,-11,-3,-2,-5,-5,-1
6574,-7,2,-8,-8,-1,1,-7,-49
6574,5,1,-16,-4,-4,1,7,58
6579,-9,-4,2,0,-1,3,5,10
6579,12,-4,-15,-4,-3,2,5,17
6580,0,2,-13,2,3,-2,-4,-23
6580,5,0,-6,2,-4,-4,-7,-87
6593,5,-3,1,2,3,1,9,13
6593,4,1,0,-6,-2,-1,-1,-18
6600,9,-1,-1,1,1,1,4,-3
6600,-3,-6,-4,-2,0,3,-4,-1
6616,1,18,-8,-3,-2,0,-5,-3
6616,-10,-8,18,7,0,2,5,16
6617,-7,-15,-24,-4,-4,-3,-6,2
6617,16,0,12,5,4,2,4,30
6639,-3,-6,-16,-6,0,0,-1,-23
6639,13,7,0,0,3,2,4,22
6640,-10,2,11,-5,5,0,4,-36
6640,-10,-7,-20,-4,8,-4,-8,1
6652,5,3,8,4,7,-2,-3,-1
6652,-8,6,7,1,1,1,-3,15
6669,-7,-12,-1,-6,-12,-5,-2,-11
6669,8,12,31,2,-11,-2,5,21
6676,0,-2,3,-2,-8,2,-3,-44
6676,-8,-8,-3,-2,-10,1,0,-4
6678,-5,2,3,-4,-9,-1,-3,10
6678,-2,0,-11,-6,-4,-2,-16,-42
6699,0,-2,3,-1,-5,-8,2,26
6699,-3,2,-2,-6,-6,-5,10,60
6700,3,2,0,3,1,0,4,49
6700,1,-1,2,3,-1,4,12,12
6712,-13,-10,2,-1,-2,-3,-12,-38
6712,-3,3,-2,3,0,-2,-7,-27
6729,-15,-6,2,-1,-1,-5,-7,-4
6729,15,11,-21,0,2,1,6,10
6743,10,-3,-12,-7,4,5,5,45
6743,-4,7,1,-1,-1,1,-3,-10
6751,-1,-6,10,4,5,2,-5,-28
6751,-8,-6,-11,-7,0,-5,-8,11
6765,4,4,3,1,0,-3,-3,-11
6765,11,5,3,1,3,1,1,-1
6775,-13,-4,-14,-7,-3,-3,-2,-43
6775,1,-5,5,2,-3,-3,-5,-38
6776,9,2,-15,1,1,-1,-3,-2
6776,-7,-16,14,1,1,-2,-2,-18
6789,21,17,10,5,5,2,15,48
6789,4,-4,2,-2,-1,-1,-7,-33
6796,-4,-2,0,-3,-3,0,4,11
6796,-2,-3,-14,-4,0,-2,-7,3
6798,-19,-8,-3,-1,3,-1,-8,-30
6798,22,9,-1,-4,1,-3,2,23
6818,10,-5,-8,0,-2,-8,-10,-14
6818,-10,-7,-3,1,2,1,-2,-35
6821,31,4,4,1,-1,-1,4,24
6821,-17,-4,1,-2,1,2,7,30
6832,-6,3,8,7,4,2,-6,-77
6832,2,6,21,-3,-3,-9,1,5
6842,20,3,4,16,-2,-4,-5,33
6842,3,-10,-27,-25,0,5,20,80
6864,-11,1,10,6,-1,0,-35,-87
6864,-6,-2,-7,2,3,8,21,53
6865,-3,5,2,3,2,-1,-1,-48
6865,-3,4,-4,5,3,-5,-11,-18
6879,0,-14,5,2,10,7,29,127
6879,-11,4,-15,-7,1,0,-11,-46
6880,16,1,8,-2,-2,-7,2,-1
6880,-7,-26,-11,-9,-23,3,-7,-71
6892,-24,0,7,-9,-15,3,8,-26
6892,45,7,-5,-11,-21,-22,-13,23
6901,-30,-9,0,-9,-16,0,-26,-90
6901,-13,12,24,10,0,5,22,14
6917,28,14,3,-4,-8,7,-7,34
6917,23,-4,-22,-8,-4,10,14,20
6918,-49,-24,-7,-14,-8,-12,-20,-56
6918,18,-13,13,5,5,9,32,80
6939,37,16,26,16,4,12,16,92
6939,-1,8,4,3,-7,0,5,-64
6940,-2,-3,-9,1,0,-10,-6,-81
6940,-37,-16,-20,-8,2,7,-17,-75
6952,-15,-28,-34,-42,10,4,21,20
6952,-21,-4,19,36,33,-37,-31,-44
6961,43,26,16,101,25,20,5,20
6961,-13,-2,-43,-79,-62,-25,-32,8
6977,-16,5,30,73,-13,-38,-16,-41
6977,-5,-6,-44,-78,-9,-5,-4,28
6978,-24,-13,3,-7,19,2,5,35
6978,15,55,16,17,12,7,16,25
6999,-63,-8,6,1,1,13,2,-30
6999,37,-41,-49,12,25,12,-3,7
7000,-27,20,32,43,10,12,15,39
7000,-4,11,-28,-64,-76,-20,-22,-27
7021,9,-1,-27,-59,-7,-3,9,-25
7021,-31,7,34,45,9,2,-16,-3
7023,42,-10,23,-21,20,4,13,21
7023,-23,33,-76,-7,7,-7,5,14
7036,-80,-44,57,39,40,-13,-35,-94
7036,70,84,55,-44,-33,-12,25,86
7042,-17,-61,-103,-28,-45,15,20,39
7042,10,-36,20,14,29,29,9,15
7066,0,-32,8,26,8,-27,-4,-8
7066,-12,53,1,-13,-38,13,-1,-21
7068,-12,80,9,-11,-8,-19,-15,-28
7068,-3,-113,44,69,15,-35,-18,-45
7072,0,57,-26,20,11,26,18,-35
7072,48,-72,59,66,50,93,40,72
7082,8,61,40,-23,-26,-42,10,55
7082,-23,-24,-2,11,-5,-19,-14,-30
7103,13,-6,-11,-17,-19,3,-9,11
7103,-42,-87,-64,-8,-13,-34,-24,-55
7106,-7,48,-13,-33,26,31,-5,-18
7106,18,40,-16,-48,20,31,-14,-40
7119,39,7,32,6,-28,-32,6,32
7119,33,15,6,66,37,29,41,41
7121,7,47,13,-4,-6,-18,-30,-18
7121,61,5,116,53,-12,-26,6,-3
7133,41,33,-127,-74,62,54,27,56
7133,-32,-27,14,-28,4,-9,-21,-47
7141,-50,-4,40,12,-9,-28,-37,-60
7141,36,19,2,26,1,-72,6,50
7156,-1,8,-15,-76,-10,-7,-8,-31
7156,-25,-32,-6,10,61,33,15,0
7162,-27,-27,-26,-10,41,47,17,-26
7162,-1,23,-19,-10,-6,23,1,32
7179,14,-27,35,62,-1,-9,-12,-10
7179,-41,32,-53,-51,-35,-20,-10,-35
7180,20,-118,-40,-45,-60,0,-8,-15
7180,22,63,-14,-60,-25,4,-1,46
7192,-20,-68,1,-50,-19,-16,2,8
7192,-63,33,63,24,-7,10,-14,-47
7217,41,-55,-23,113,4,43,21,77
7217,-37,14,-13,104,3,-27,-18,-23
7219,-49,28,20,-62,-102,-22,-16,0
7219,-35,-60,-5,-80,-51,-24,-7,1
7223,-18,-50,-8,-125,48,57,22,30
7223,-7,-2,24,-35,127,13,-10,-41
7239,17,43,52,-3,-26,-25,7,23
7239,-37,-6,-49,1,-61,4,-27,-118
7240,54,15,15,20,-101,1,14,85
7240,-38,2,2,83,-96,38,13,-47
7252,-61,-23,26,67,-74,47,-20,-91
7252,40,9,35,83,-128,63,17,32
7261,-75,43,3,58,-96,55,-38,-128
7261,18,-15,-3,24,41,-26,92,92
7275,9,-3,-32,94,-81,-29,-92,-68
7275,4,13,-17,127,-50,-19,46,-8
7283,102,35,41,127,-5,-1,20,36
7283,35,-5,85,120,25,62,26,80
7299,94,-15,-101,-22,75,36,46,55
7299,21,49,3,-11,121,-98,-103,2
7300,-47,-49,-45,-73,106,-62,-29,-90
7300,38,36,-23,-121,64,-34,22,10
7321,42,-10,100,-88,102,-99,19,64
7321,-51,-37,-27,-128,58,-104,-26,-61
7323,-27,4,-34,-128,50,-12,-15,1
7323,-98,-37,55,-51,-77,89,-9,-70
7328,-94,-20,82,-37,61,126,22,-81
7328,43,7,9,-94,-103,-1,87,72
7335,11,-18,5,79,-14,-118,-31,-104
7335,-34,-34,-128,-102,-42,-77,-58,-32
7351,-28,-75,-128,-40,87,47,-36,-92
7351,37,-22,-10,33,-26,33,58,50
7352,9,65,-16,-34,-55,-21,2,18
7352,43,1,-12,-97,-21,-77,-47,-75
7365,-19,22,26,38,-24,-68,-6,3
7365,45,9,37,41,92,86,-17,10
7373,9,2,41,-62,73,97,62,55
7373,-20,-12,-8,75,60,30,-30,-31
7388,21,71,13,19,-69,21,41,-2
7388,14,-5,25,-68,17,-51,-59,-6
7402,-7,-14,-52,-22,-11,-74,-25,0
7402,-12,-15,100,104,117,36,13,15
7411,42,-7,-114,-87,-48,-67,-19,25
7411,-41,31,-40,12,-28,-28,32,23
7417,5,-3,92,120,-3,-29,-1,71
7417,15,-32,-33,24,30,16,3,-2
7441,-45,-33,-40,4,18,-3,-3,29
7441,-4,32,63,124,23,-6,-61,-49
7443,16,-27,-27,-47,-60,65,10,0
7443,1,50,114,35,27,108,63,-98
7456,55,2,12,28,52,-93,95,103
7456,-25,-42,-82,-85,127,33,-94,-71
7462,-2,-13,93,63,105,-128,21,-19
7462,25,45,-31,44,-54,33,-31,-19
7478,1,27,-86,2,-108,20,-53,52
7478,-55,-99,-86,-86,-17,-69,42,-1
7481,-5,30,82,63,-50,-28,-39,-21
7481,-33,-9,36,62,79,27,7,58
7484,12,56,12,-30,-79,68,39,-50
7484,-15,41,15,82,-128,-85,-22,29
7493,-35,-62,-20,53,37,-60,-27,33
7493,-21,14,70,-20,34,64,-35,-38
7508,10,-66,-43,-11,-11,-28,28,77
7508,57,87,66,83,123,8,49,-49
7515,13,-28,-74,1,3,103,42,30
7515,0,-78,-33,-28,-128,-128,-31,85
7530,-7,54,127,42,-9,-70,-56,-9
7530,4,-24,-103,-53,15,-36,13,12
7537,0,-12,-55,-93,-90,53,-11,-68
7537,62,83,-25,18,49,-22,59,78
7578,0,-12,15,78,-120,58,6,-53
7578,-32,-64,-18,-61,-89,11,18,-52
7580,29,86,70,45,64,45,15,-42
7580,7,-22,-54,17,-128,8,-18,-5
7584,7,18,55,-56,-43,-97,28,64
7584,37,29,11,-22,82,19,-51,-40
7585,-15,-10,-56,-47,-24,71,18,115
7585,-6,-18,-18,-42,-26,-16,10,-51
7587,-5,-4,-11,49,79,-47,-37,-51
7587,6,-6,33,73,-38,6,-5,54
7597,3,-22,-7,-23,-25,-5,-20,-65
7597,0,24,-18,-22,14,45,11,47
7606,2,-21,17,84,30,89,19,4
7606,-18,-14,14,-10,-29,-14,7,-27
7612,7,3,58,32,14,-73,-18,-25
7612,-22,20,1,16,8,32,1,-66
7628,3,-17,-2,-63,33,-80,-12,-81
7628,12,-1,41,-30,-96,-9,20,87
7634,32,26,-30,-121,108,-26,-12,-35
7634,-32,-30,-31,-15,-43,11,-34,-80
7650,-19,16,45,89,22,42,-40,-34
7650,12,21,38,103,-38,71,3,8
7657,23,15,15,125,-50,13,-23,26
7657,54,-46,-35,-36,-13,-54,5,-3
7674,0,-11,20,82,87,51,-26,-86
7674,0,-25,-21,-46,25,-16,-13,-23
7676,4,-10,-24,-33,63,16,43,25
7676,8,-1,-9,3,82,-43,-19,-9
7695,-17,10,2,-2,-10,121,35,74
7695,5,21,-36,26,-4,32,22,-49
7704,-27,-15,-36,-95,-89,-46,-11,-27
7704,-34,-5,1,13,-46,-68,27,68
7705,4,45,-1,21,-28,-7,-3,30
7705,-36,13,37,30,-6,12,4,-25
7717,-17,12,31,37,-40,97,23,56
7717,-42,-28,-46,-30,-12,-59,24,-5
7726,-46,-19,15,15,31,73,-46,-76
7726,-5,48,-17,-37,-26,-91,-5,65
7732,-13,-23,-78,-16,-39,-31,-14,1
7732,-41,-14,30,-5,-15,41,-36,-79
7748,-7,-4,-49,-62,-9,-20,17,52
7748,30,-13,34,48,81,82,20,-13
7755,11,-9,-12,2,-29,-4,6,-84
7755,-31,-24,-16,-46,-38,-17,-9,-128
7770,17,-26,-56,-39,-39,-128,-31,-9
7770,23,18,9,25,-3,59,-27,-50
7778,2,4,-13,-16,25,-9,28,-42
7778,44,26,76,91,94,117,51,44
7785,-9,11,53,23,-15,7,10,-51
7785,-17,9,52,-10,-36,-115,-54,75
7794,-5,-29,-12,-13,-8,10,-28,-61
7794,50,23,-9,8,23,10,-16,80
7808,-9,-12,-13,14,20,34,35,-48
7808,21,3,-12,-35,3,114,60,22
7814,-3,4,-9,8,-33,-97,19,92
7814,-25,2,-14,-12,-49,-71,-71,7
7822,12,12,28,9,22,19,-25,17
7822,-12,-12,-3,-25,29,12,22,9
7838,-20,-16,-5,12,-2,57,7,14
7838,20,13,-15,40,77,-34,5,-23
7845,13,27,3,-66,-64,-37,2,-13
7845,-3,29,29,35,0,-16,-20,-22
7853,-1,-29,-5,20,35,3,8,35
7853,3,-17,8,27,19,37,25,52
7868,1,-7,-20,18,61,32,-21,-72
7868,-21,-29,-13,-4,-15,36,45,36
7875,3,96,-18,-52,-55,-78,-18,-9
7875,9,-35,6,-29,-20,10,-23,21
7890,1,-28,-5,20,24,-9,12,63
7890,-7,3,-1,13,0,48,-17,-75
7898,44,95,52,28,38,12,33,9
7898,-30,-34,-29,-71,-106,-51,-17,-23
7914,5,-40,-9,12,-17,-48,-31,-25
7914,-12,35,-9,7,37,-18,-6,8
7915,-12,-55,-49,-58,-5,86,1,38
7915,64,85,52,84,56,60,46,19
7928,-19,10,6,28,-32,-49,-8,-33
7928,9,-29,-3,14,-36,-90,-36,91
7935,-10,11,24,31,34,29,-18,-47
7935,-15,-9,-44,-83,-2,22,8,52
7942,-3,-12,-21,-41,-3,32,42,32
7942,-12,-46,2,37,61,21,7,-19
7957,6,-19,-19,-60,-69,-17,0,68
7957,-65,-67,-20,-45,-65,-65,-33,-62
7965,-2,22,85,78,55,2,-45,16
7965,34,51,19,-63,-33,18,-3,-81
7972,59,-26,28,31,57,7,46,77
7972,71,86,26,6,-26,34,19,2
7988,-29,-64,-41,-20,19,-23,16,-11
7988,48,54,-17,-30,-20,51,19,-15
7994,-22,11,5,-2,-40,-111,-69,-88
7994,-51,-48,-18,-7,-19,-40,-31,-35
8028,-16,19,-10,2,38,61,19,-39
8028,-33,-64,-24,-28,38,28,15,39
8029,-34,-13,7,15,-38,0,21,-34
8029,-10,-5,0,8,-8,-19,-30,18
8030,-15,-9,-13,-1,35,-50,-19,-22
8030,-2,-4,-29,-34,-68,-50,20,-17
8049,15,-20,-6,7,-30,-16,-19,16
8049,-28,15,18,19,24,7,-14,-11
8049,16,-27,-27,-32,9,96,23,35
8049,4,30,2,19,19,-1,9,-2
8062,-15,-35,9,5,8,-16,3,-27
8062,14,0,-12,-7,-21,-23,-8,10
8070,9,12,-15,-21,-26,20,-2,4
8070,14,-16,0,7,-4,-35,-2,19
8078,-32,-23,-3,-6,-22,-20,-13,-33
8078,29,26,14,34,50,43,18,69
8086,17,19,-9,-19,-24,-29,-3,-26
8086,-29,-31,-4,17,-2,14,-23,-71
8092,3,8,12,10,24,15,7,3
8092,5,1,-5,-22,13,56,25,-21
8108,8,4,9,3,-2,-18,22,47
8108,-15,-12,-17,-11,-62,-38,-20,-11
8115,-8,1,-4,25,18,-40,-47,-31
8115,1,-3,-1,-2,-7,-35,2,41
8131,3,5,2,11,46,93,12,5
8131,6,1,18,17,36,-79,23,25
8138,-5,12,-14,-30,-34,36,10,-41
8138,-15,-25,-19,15,-31,-71,-31,41
8146,17,10,12,-14,-55,-44,-8,31
8146,-11,-4,0,15,53,109,-5,-39
8152,9,2,2,14,52,35,28,38
8152,-15,-29,-16,-19,-16,-16,10,-53
8177,15,10,1,-6,-37,-89,-41,29
8177,-17,-33,-16,1,-14,-4,-15,9
8178,4,4,6,10,25,44,3,-8
8178,5,27,7,7,29,46,22,-35
8191,-4,1,3,0,-9,-42,-10,4
8191,-17,2,8,-2,-6,-10,3,-30
8198,2,-29,-58,-46,-55,-39,-4,63
8198,4,5,31,17,41,90,15,14
8205,10,12,0,-6,4,-22,10,10
8205,-9,-3,-16,-12,7,-3,-28,5
8214,-5,19,21,47,-3,-12,1,-36
8214,2,-24,-17,-16,-10,-9,-14,26
8228,5,8,3,1,6,8,3,-14
8228,4,11,5,10,17,57,26,18
8234,-2,-4,10,0,11,-44,1,12
8234,-16,-15,-39,-49,-77,1,-11,-45
8250,8,-26,43,11,18,-17,-10,-20
8250,20,13,8,2,-10,-7,-7,47
8257,-2,9,8,22,37,60,23,11
8257,8,9,10,1,18,-23,4,-36
8265,-16,-2,-21,-9,4,73,22,21
8265,1,-25,-16,-18,-25,-77,-17,-17
8274,-7,-6,12,12,-9,-27,-26,-13
8274,-4,9,-6,0,8,39,2,-18
8295,-6,-5,-15,-15,-9,-56,-1,-26
8295,0,0,2,-25,-9,71,19,10
8304,1,24,6,14,11,-3,0,0
8304,-14,-3,1,-16,-19,-53,-25,-19
8310,1,-26,-5,-2,-15,-1,-11,-13
8310,6,26,8,6,-26,-47,-2,-24
8318,1,-3,-13,3,25,12,-1,47
8318,-18,-10,31,17,19,17,2,-31
8324,13,21,2,4,15,64,24,-6
8324,4,-9,-1,7,12,0,-9,-71
8340,4,-10,6,5,26,84,17,54
8340,-2,13,-6,12,8,-38,-3,-41
8348,-8,-27,-17,-24,-47,-48,-15,26
8348,-4,-36,-8,-10,-36,-22,-39,-54
8354,1,10,-7,8,45,6,16,-20
8354,-1,-13,5,-2,-36,6,17,27
8370,-2,-7,-15,-28,-30,8,1,3
8370,-9,7,-6,5,21,-2,3,16
8378,-15,-23,-1,3,11,15,-14,-53
8378,15,18,4,-2,22,8,-2,36
8385,-1,16,-5,14,5,29,19,-25
8385,-13,-11,-5,-1,-2,1,-9,39
8409,14,-3,-1,-16,-27,-76,-1,1
8409,-11,-5,-8,-7,-18,-50,-24,-113
8409,10,15,6,2,4,17,-15,-1
8409,-13,2,-8,27,55,15,13,-3
8415,3,9,20,0,-18,32,9,-13
8415,-8,-24,-25,-5,-5,-58,-2,6
8431,-8,0,9,9,34,49,5,20
8431,10,21,6,-6,-12,40,-4,2
8437,-15,-13,-2,2,-8,-47,-15,-27
8437,12,9,-6,-8,-13,-50,4,55
8445,-1,22,-3,9,-5,19,-9,-79
8445,7,-5,-10,-16,17,-13,9,87
8460,6,12,9,-30,-38,-11,-9,1
8460,-7,-22,-8,8,9,9,-8,8
8468,7,-3,5,6,43,32,20,53
8468,1,11,4,-6,-18,13,16,-14
8475,-13,-10,-8,1,3,-19,-10,-96
8475,-7,34,1,-8,9,25,1,39
8498,-4,-5,5,23,6,-35,-14,-7
8498,0,4,-4,-42,-58,-47,-5,-19
8506,15,0,-4,1,-1,11,-9,52
8506,2,6,17,44,44,73,14,-45
8508,-5,11,0,-12,-17,-48,14,4
8508,8,0,1,8,-26,-59,-22,78
8519,-9,-7,-18,-11,-5,-8,-15,-17
8519,12,0,24,24,56,70,20,-10
8528,-17,-13,-12,-35,-53,-1,-8,-7
8528,18,3,-1,3,20,29,13,18
8535,-10,-18,-8,17,16,-33,-10,-21
8535,7,2,-19,-51,-33,-4,7,28
8558,-3,-2,-10,11,1,-31,-8,-3
8558,-18,-11,13,9,-5,-19,-5,2
8559,11,9,0,8,16,33,0,65
8559,4,8,9,16,28,-3,22,-21
8575,-1,3,-9,-53,-55,72,5,-4
8575,5,-4,-6,6,-3,-54,4,-54
8580,0,6,3,2,10,-64,-41,16
8580,-15,-13,-5,-17,-35,-25,-9,-16
8602,6,-11,-9,-32,-28,-54,-25,6
8602,-7,-14,-3,21,28,70,19,25
8603,2,18,6,-23,11,87,35,-24
8603,6,4,1,5,14,-32,15,12
8618,2,-6,-3,17,33,28,-2,-23
8618,-12,-9,1,5,-14,-29,-40,-46
8619,0,0,8,21,-7,21,16,41
8619,1,-9,-10,-13,-34,-64,-19,-27
8642,-6,16,8,17,10,-2,5,16
8642,-17,-7,-5,-10,26,22,-10,-41
8643,7,19,5,-8,24,108,24,-7
8643,8,3,4,6,-24,-1,24,52
8655,-3,5,6,19,-5,-96,-33,2
8655,-8,-21,-9,6,22,12,-5,-28
8663,3,24,-3,-26,-47,21,8,-6
8663,-9,-14,8,6,16,12,-4,16
8677,0,4,6,18,18,-24,-24,-35
8677,1,3,-2,-15,-4,18,10,8
8684,6,-11,10,36,52,71,44,-3
8684,3,-3,-9,-18,-31,-66,-5,-33
8693,-5,-2,-4,-13,-63,-44,-50,1
8693,8,-5,6,-5,11,0,-25,9
8700,-7,-32,-6,16,41,79,9,-55
8700,11,36,38,12,44,82,42,35
8716,-4,-18,8,48,65,-8,43,14
8716,8,15,-1,-57,-108,-84,-11,84
8716,-18,-16,-12,-14,-31,-95,-83,-98
8716,-8,-12,-9,1,24,36,-8,61
8737,2,-19,-11,0,67,75,32,-1
8737,41,27,26,39,10,36,44,-18
8738,-22,-19,-12,-15,-47,-100,-22,14
8738,-15,2,4,19,16,27,-43,-70
8762,11,40,9,9,18,41,39,34
8762,-4,-16,-20,-18,-20,-19,-16,27
8762,10,-1,-3,-8,-26,-86,-4,-5
8762,-16,-39,-16,-24,-25,-41,-34,-13
8775,4,58,2,-23,-28,25,-6,3
8775,-8,-30,-1,19,23,-9,-8,-56
8776,5,25,3,19,39,118,29,18
8776,14,-13,-3,5,22,-11,13,34
8798,-16,-8,-6,-10,-9,-3,-1,-68
8798,-13,-28,-5,-7,-45,-41,-18,7
8799,-2,5,-4,-14,-37,-68,-30,47
8799,15,18,-1,9,43,67,16,-42
8813,22,16,18,20,10,-33,25,38
8813,-23,2,-17,-22,-12,41,-15,7
8820,-2,-24,-17,-27,-22,-35,10,45
8820,0,-11,-9,1,-19,2,14,18
8836,-4,-28,3,26,29,2,-37,-74
8836,-4,0,8,10,17,28,16,13
8837,0,32,9,-21,-20,-8,-15,-20
8837,2,-8,-14,-11,-30,-86,-10,58
8859,-3,-59,-12,-8,12,15,-10,-23
8859,-2,30,22,35,58,74,28,35
8860,15,-17,-6,3,-13,-35,38,13
8860,-8,-5,0,8,-26,-30,-52,-52
8874,-5,-9,-17,-36,-53,-19,-14,48
8874,-8,-5,2,-7,14,-32,-9,-46
8880,3,-9,9,9,34,74,15,33
8880,-5,4,-4,15,39,20,29,18
8896,2,30,4,9,-21,2,-14,-44
8896,9,-5,-3,-5,-6,-52,6,22
8896,-16,8,1,-1,11,-12,-9,-67
8896,16,4,-9,-17,-49,13,2,41
8918,-6,-18,-9,-19,-15,20,-13,59
8918,-7,17,-2,-2,14,-10,-3,-56
8919,13,9,7,4,-6,-46,3,69
8919,0,-1,3,4,4,-3,-9,10
8934,-18,-19,-3,1,11,-2,10,-51
8934,13,22,-5,-4,-19,16,-3,13
8940,-9,-12,-4,17,53,68,26,-15
8940,-6,-2,0,-26,-10,31,-4,-11
8956,10,-12,3,-3,-46,-94,-10,49
8956,3,24,-8,-8,-13,54,16,-3
8956,-1,-7,2,-2,-1,-71,-40,-40
8956,-10,0,0,7,-19,-11,-6,1
8972,-5,-18,-8,6,47,55,27,-7
8972,-11,-28,5,16,15,0,0,-59
8978,-3,16,7,10,8,102,5,-22
8978,-19,14,-3,-8,2,-88,-5,-50
8993,38,22,-4,-19,-45,-79,-13,31
8993,-8,-34,-14,-14,-23,18,-9,37
9000,-6,-21,-8,-9,18,49,13,-35
9000,12,23,17,31,63,93,30,86
9016,-11,9,11,10,-13,-74,-12,-45
9016,-1,14,-11,-10,-45,-62,-19,4
9017,5,-22,-3,-30,-28,5,0,99
9017,-9,-15,3,-10,-8,-41,-13,-116
9053,5,2,-9,4,20,30,-2,31
9053,-13,-26,-14,-27,-30,-5,-16,8
9054,1,1,19,24,3,-22,-1,-38
9054,7,66,2,-8,34,114,19,25
9076,16,25,5,11,6,-56,28,35
9076,-12,-9,-1,-4,-27,-53,-34,-30
9078,-16,-16,-7,0,-18,-45,-33,7
9078,17,11,2,3,23,61,1,-5
9098,-9,-2,-2,-23,19,127,43,13
9098,10,18,-1,23,28,-45,19,40
9105,1,4,-3,8,-55,-86,-27,18
9105,-24,-58,-31,-53,-56,-78,-31,-11
9137,-3,43,3,18,7,25,-19,-36
9137,15,-4,10,19,50,106,33,35
9139,-14,-2,4,32,52,9,10,-39
9139,15,38,15,6,-27,-12,-9,18
9150,-19,-26,-14,-28,-25,-46,-5,-51
9150,17,-2,8,13,30,-2,-2,30
9158,-5,29,-1,-8,-28,-45,-17,-46
9158,-6,-43,-14,-8,-8,16,9,-7
9173,-1,-7,3,-10,-9,4,-21,-15
9173,3,5,2,13,15,-13,4,-19
9181,-6,-4,0,0,17,8,-2,6
9181,15,4,-3,-7,3,50,38,21
9204,-7,-31,3,26,35,-15,-1,29
9204,3,40,-1,-4,-24,-53,2,-40
9205,-7,-9,-9,-43,-75,-36,-37,8
9205,-18,-39,2,26,0,15,-16,-32
9227,5,6,5,12,20,14,-2,-21
9227,5,4,0,3,23,-2,2,-23
9228,0,-3,-3,-1,34,74,34,3
9228,-11,-14,-10,-8,-21,-41,-5,-19
9247,-2,-11,1,-10,-43,-31,3,71
9247,-13,3,1,-8,12,5,-44,-54
9264,15,-9,-7,12,-5,-27,26,11
9264,-4,1,-1,9,22,65,4,-4
9279,-3,4,-6,9,38,-28,15,20
9279,-7,-11,3,-42,-53,-2,-13,-51
9280,9,7,4,15,25,14,-12,56
9280,4,3,-2,13,21,-5,11,33
9302,-10,-14,2,-19,-83,-48,-38,6
9302,-14,-5,-8,-8,27,43,32,-51
9303,-6,23,-2,5,33,76,11,-39
9303,3,9,6,5,-22,-111,-9,7
9322,8,17,3,4,25,65,0,-8
9322,3,-30,-14,-24,-32,-59,4,40
9333,-4,25,10,-6,-18,12,-16,-24
9333,16,8,0,37,63,34,19,50
9354,-16,-8,2,6,17,-11,9,-93
9354,9,11,6,-4,-55,-31,-1,78
9361,2,-18,-19,-28,-16,-39,-11,26
9361,-1,21,5,-6,-8,19,-5,-34
9376,-4,-19,-4,12,37,61,18,-29
9376,-3,-11,-2,9,3,-13,-7,-2
9377,6,13,-3,-14,-6,-27,-1,-3
9377,5,-7,6,10,-8,-2,-5,68
9397,12,0,-2,-5,-16,-14,15,26
9397,-7,-6,1,19,35,45,5,6
9406,-36,-60,-4,2,-26,-59,-11,-38
9406,34,16,3,24,20,45,-33,-38
9437,-7,6,3,-16,25,16,17,-6
9437,6,3,-6,-24,-54,-5,16,8
9440,-6,-18,-6,-17,23,42,-14,-17
9440,-24,-24,-10,-13,-19,-93,8,38
9451,14,13,-1,13,-31,-26,-17,76
9451,0,15,9,22,56,45,-26,-65
9457,7,19,0,6,4,34,23,24
9457,-14,-26,-5,-11,17,48,16,-8
9481,4,16,-3,-25,-25,-44,-8,-53
9481,-1,4,-4,1,-4,-2,10,41
9482,14,21,4,20,38,26,-5,-9
9482,-25,-24,-3,2,-16,-48,-15,-63
9503,16,14,5,-23,-20,34,5,76
9503,1,45,-2,-8,-27,-28,0,-19
9504,6,-20,-2,-10,-19,-21,-30,-64
9504,-1,-20,-1,3,8,-42,-11,20
9527,-18,11,1,23,70,126,29,-46
9527,7,-2,3,20,16,-42,8,63
9540,13,3,3,-11,-37,-30,6,31
9540,-7,1,-20,-50,-38,-13,-31,-30
9557,-1,-10,14,30,21,-14,-10,16
9557,-3,-18,-5,24,29,61,20,-36
9558,-4,51,9,17,2,-81,0,1
9558,17,24,12,-16,-8,32,18,0
9578,-16,-35,-16,-3,-28,-36,-21,-35
9578,1,4,-10,-23,-13,-5,-37,23
9581,2,-22,-3,15,29,-36,43,42
9581,-5,15,0,-13,-13,-17,-1,-71
9601,1,10,2,3,-21,0,-11,34
9601,-19,-30,0,4,3,-33,-18,-54
9603,5,-19,-7,-20,-43,-26,-24,-29
9603,-12,-8,-2,18,42,53,-6,5
9622,7,-4,5,15,15,10,39,19
9622,-4,-7,-11,-44,-30,65,16,18
9633,-7,-41,-8,4,1,-55,0,5
9633,11,38,12,26,3,-19,-4,-17
9653,-10,-2,-1,4,-14,-8,-21,-18
9653,-2,-7,0,-13,1,-71,-6,-35
9655,-5,2,-11,-23,-19,20,7,1
9655,-15,-33,-15,-19,-58,-76,-26,14
9675,-4,-5,-4,6,15,-35,-30,1
9675,4,2,8,3,20,66,32,17
9683,19,63,15,21,48,116,49,10
9683,-19,-39,-12,-10,-27,-116,0,-47
9713,14,7,-3,-29,-37,-71,-36,87
9713,-4,-2,-1,-4,17,54,6,-8
9715,-17,-30,-8,4,-3,-11,-7,19
9715,23,9,7,-6,-54,-5,-16,-27
9730,-13,-4,-7,-16,36,104,20,-36
9730,7,6,12,52,97,40,26,-2
9732,4,1,5,-9,-54,-90,23,27
9732,-18,-28,-12,-2,-30,-26,-77,-82
9751,7,11,-2,-9,-6,-62,-15,67
9751,4,17,4,18,27,24,1,-8
9757,7,-4,8,3,50,127,40,-13
9757,2,17,4,-7,24,27,34,15
9782,0,-12,-6,2,-12,46,17,-13
9782,-1,-4,13,25,-10,-82,-11,-1
9783,0,23,-3,-13,-69,-76,-49,-22
9783,5,-7,-5,-14,11,87,13,106
9804,0,30,-3,7,25,-91,-5,-39
9804,1,4,1,-32,-38,69,-2,23
9805,1,-21,-2,-6,8,-22,-16,-33
9805,-2,15,-2,9,33,57,25,-56
9826,-6,-14,-2,-1,22,73,29,-10
9826,0,-1,-2,8,-31,-50,4,22
9828,-6,34,9,12,-32,-102,-45,-19
9828,8,-14,-4,-3,23,-7,4,9
9856,-5,-12,4,18,5,51,18,21
9856,-3,-29,-4,14,0,-85,-19,-49
9859,-1,14,-2,-33,-9,62,-13,6
9859,-10,6,-1,-4,14,6,24,81
9886,17,-7,0,-3,10,-11,-11,-33
9886,-5,-5,-3,12,-21,0,-6,20
9892,3,-5,-10,11,43,57,17,28
9892,-8,21,-3,-13,-22,-39,-13,-37
9908,-5,-20,2,-15,-6,18,11,-24
9908,-2,-5,-14,-7,1,-57,-9,16
9909,-15,1,8,15,-27,-27,-19,-1
9909,8,1,9,13,7,-17,-21,7
9924,-12,-5,0,3,63,117,20,-20
9924,7,10,4,15,-14,-79,12,14
9926,9,-17,-12,-13,-31,29,23,73
9926,-11,-3,-4,-1,-6,-4,-30,-89
9938,12,-11,2,6,6,-9,11,79
9938,-6,-1,2,-36,-31,8,11,-25
9939,-8,-27,-17,-18,-7,-37,-57,-24
9939,-2,4,2,11,31,18,26,-7
9953,0,-7,-3,7,9,60,8,-5
9953,16,21,3,3,-10,-32,-3,34
9960,-15,-26,-8,-9,-20,-30,5,1
9960,-5,0,4,3,9,49,3,-15
9976,-8,9,-3,4,-21,-128,-13,-31
9976,-5,-12,-3,-15,18,84,5,22
9978,7,3,10,44,54,123,25,-31
9978,9,28,10,12,-8,-92,13,56
9991,0,6,-19,-57,-96,-126,-54,-21
9991,-18,-41,-15,-6,-6,-13,-51,-22
9993,11,21,14,11,51,19,24,-24
9993,5,-20,-2,10,31,63,28,-19
5,-8,-8,-3,-3,-27,-26,0,-3
5,7,13,7,-7,16,36,4,8
7,1,-7,-2,13,34,-6,16,9
7,2,26,1,-6,-22,25,-5,-30
20,-10,-14,-4,2,17,20,-4,-12
20,-3,-18,-4,-6,-44,-80,-21,-15
28,-2,9,13,13,-10,-20,-26,-7
28,-1,-13,2,18,33,23,22,26
44,2,19,5,-6,8,55,11,6
44,7,9,-4,-12,-30,45,16,-6
45,-13,-23,-15,-19,-25,-102,-15,-27
45,0,-13,-9,-1,-15,-34,-9,46
59,1,4,6,2,-9,-10,-21,-28
59,14,48,12,17,33,-14,7,-17
60,-11,-21,-5,-16,-4,4,-14,-30
60,0,-14,-3,-10,-39,-20,6,-4
73,-13,-4,-8,2,5,26,-19,-60
73,12,-24,-8,14,35,2,23,28
76,-23,32,13,20,21,49,9,21
76,16,5,2,-14,-1,-6,-2,-11
96,-5,-10,-9,-34,-53,-47,5,67
96,-6,-5,-8,-3,-2,-24,-28,-35
97,4,-10,-10,-6,19,121,34,31
97,-12,-8,-1,1,10,-54,-5,-29
119,5,17,0,-10,-39,-31,-22,-18
119,-21,-11,-5,-13,0,16,-4,-30
120,15,-20,-3,17,24,43,9,51
120,13,21,4,-11,-11,-8,14,32
126,1,-13,9,39,33,-31,4,-14
126,-26,-36,-18,-8,-2,83,-11,-38
126,3,12,4,-25,-53,-120,2,-4
126,1,-15,-12,-6,-17,20,-17,58
142,9,-1,1,-1,30,31,0,10
142,-6,22,0,11,13,35,16,1
143,17,75,16,0,-7,-24,-16,5
143,-12,-19,0,5,-5,26,2,-37
155,-6,6,-4,-1,3,-24,18,24
155,-3,-8,-2,12,32,47,5,1
164,0,-36,-11,-36,-35,-62,5,-54
164,5,47,7,39,40,67,-5,57
179,8,26,3,-14,-35,19,-1,-22
179,6,2,9,-6,-20,-62,-29,6
180,-16,-17,-14,-17,-2,-11,1,-56
180,-13,-12,0,-1,-9,-32,-19,-61
193,10,1,2,1,18,70,17,46
193,-7,19,0,19,64,22,35,-9
195,21,-4,0,-1,-21,-22,-3,8
195,-9,-1,-7,-31,-80,-67,-8,-1
208,-4,-7,-10,8,19,-10,-20,-1
208,-2,8,13,0,17,33,-1,-20
215,-8,-6,1,25,10,-63,0,6
215,1,0,-6,-22,-24,-11,-31,34
231,-1,-8,5,19,31,6,10,-77
231,7,-5,2,-7,-17,37,24,85
232,-6,-3,-10,-24,-9,62,22,4
232,-3,-6,-6,-12,2,-61,-5,-4
245,-6,-10,-6,-7,-72,-79,-29,-25
245,-11,-23,-23,-12,17,-13,-19,0
246,-3,-32,18,27,52,110,20,-3
246,3,8,4,1,-15,-30,26,14
269,-17,-19,5,18,16,-48,-47,-43
269,16,41,4,10,-7,-5,18,23
270,-11,-19,-3,-9,21,50,-25,-54
270,16,0,3,2,26,15,23,56
275,5,5,5,-3,-37,-5,46,33
275,-14,-16,-14,-17,-52,-104,-49,-50
283,-1,15,-7,-10,0,57,-13,25
283,-10,11,2,-6,18,-20,-8,-63
299,-1,-4,-1,1,0,16,23,38
299,16,2,8,0,-16,-34,-6,-7
300,7,2,-11,26,41,44,18,84
300,-12,4,14,11,9,14,-13,-48
314,4,-11,-8,-24,-43,-29,-8,6
314,-2,-11,-11,-26,-22,-12,1,42
315,1,7,2,6,9,-30,-14,-7
315,-14,-23,-3,5,8,39,11,-18
329,15,18,-1,-4,34,19,30,-9
329,10,-16,4,8,-14,-3,-11,-56
330,-11,-18,-9,-1,-3,4,-23,-10
330,6,1,0,15,25,-26,9,-10
342,-13,0,1,-17,-17,69,3,-7
342,-4,-17,-7,-12,-24,-15,10,25
350,-9,3,-1,15,-10,-108,-24,-47
350,12,23,9,33,31,31,-8,48
367,-2,-7,-10,-40,-22,66,8,1
367,10,16,5,-2,44,91,37,22
367,-8,3,4,-8,-47,-111,-25,-37
367,6,-16,-5,-4,-25,32,-10,-5
381,0,-4,-7,14,25,-22,-4,20
381,-3,2,-1,7,32,116,5,-3
383,-5,-10,-3,-17,-7,-64,2,-21
383,1,-8,-3,0,-1,0,22,14
397,-11,-4,3,19,-14,-24,-29,-18
397,-4,-15,-6,-11,-4,-2,-10,46
398,-7,-3,-3,-7,-5,-12,9,-15
398,8,-2,1,5,4,31,5,42
410,14,17,16,-3,64,-29,30,43
410,-12,28,1,-9,-67,-84,-6,-27
418,-3,-7,-5,-14,-21,20,-53,-39
418,-1,1,-8,-4,-22,-49,4,5
434,-8,-3,-7,4,17,69,-3,-25
434,13,1,16,28,76,24,33,66
436,2,11,-2,-22,-50,-25,9,30
436,-23,-17,-12,-20,-17,25,-17,-34
449,27,26,9,25,30,8,24,13
449,-10,-17,8,57,4,-104,-20,14
450,16,34,1,-27,-37,73,10,29
450,-12,-15,-2,-1,18,74,-7,-15
463,-12,-17,-12,-20,-26,-128,-18,-14
463,-3,3,1,8,-3,34,-6,-47
464,3,10,1,14,46,22,15,48
464,1,-19,2,-11,-3,18,19,-15
477,-7,4,-5,-23,-29,17,5,6
477,2,15,2,21,24,17,-24,-30
486,1,5,6,5,4,-63,14,16
486,-11,-3,-11,-46,-40,25,-6,-52
501,14,22,-1,13,9,-41,-10,14
501,-12,-26,-9,-10,-10,-18,7,-24
502,4,15,13,25,19,53,11,-5
502,8,-13,-8,-8,-12,-61,-24,21
517,-15,-6,-3,5,8,44,-5,-38
517,-7,2,-2,-25,-12,13,-3,-27
518,7,17,2,12,53,19,32,20
518,-12,-3,3,-3,-64,-99,-1,-42
530,1,-27,-9,12,-10,22,-46,59
530,5,7,1,-13,1,-60,-20,-15
547,-1,-9,0,3,47,115,33,-43
547,5,-11,-2,-2,-3,-28,3,43
554,-10,2,-4,-13,-28,-34,7,-32
554,-2,-23,-2,7,30,57,-11,-13
555,0,-13,3,18,11,-25,23,9
555,15,18,-1,-25,-31,-55,-30,13
569,2,-21,-10,-24,-45,-23,-8,-2
569,3,16,1,-3,36,78,41,50
571,1,-10,6,13,10,-73,-15,-64
571,-11,14,4,26,19,47,-2,-27
583,-11,-7,-1,-11,-30,-100,-19,32
583,3,5,0,-11,-18,39,-4,31
583,14,13,1,13,12,33,1,-10
583,1,8,3,23,40,46,43,11
597,-3,-12,-4,-22,-32,-5,-38,-34
597,-1,31,7,1,-4,-36,3,3
613,-11,-11,-10,-17,-25,-71,-14,4
613,-3,-14,5,2,-15,-11,-3,-12
621,14,17,10,27,37,38,15,21
621,-12,-17,-9,-2,-4,-11,-3,-83
627,-6,-15,-1,-4,9,97,7,76
627,-6,-6,-9,2,15,-77,4,-19
637,4,32,10,-12,-39,-6,-22,-8
637,-8,-6,-2,-9,-11,24,-16,5
638,11,0,-4,1,10,-29,0,13
638,-7,-12,-7,-28,-23,41,2,-7
650,9,16,4,13,22,-32,-1,-25
650,4,-8,3,14,17,34,10,12
657,-8,0,-14,-9,5,-2,7,10
657,2,-4,11,-2,14,21,6,-11
674,-2,9,-6,-1,-30,-40,-9,36
674,1,3,-4,-12,9,79,-3,15
675,-3,-11,2,15,-3,-97,-2,7
675,-7,0,-11,-25,-58,-22,-16,-12
688,-3,-19,-5,1,12,1,-16,-38
688,18,34,5,14,1,-23,19,6
690,-6,-10,-11,-12,-9,-31,-20,5
690,-6,-9,-5,-5,31,41,2,8
703,-12,-9,3,9,9,85,14,-7
703,-7,0,-5,-2,21,-91,-10,-58
703,-3,5,5,-10,-62,-20,-3,-5
703,3,-6,-9,-9,-17,-12,-24,59
750,-8,-8,-4,19,58,24,33,1
750,1,-14,2,-12,-38,-31,5,-5
758,15,19,6,1,-5,33,-14,-3
758,-4,1,0,15,40,36,-22,-5
758,-4,-12,3,21,16,7,27,10
758,-1,-7,-9,-29,-46,-22,-19,15
759,-5,-4,-2,6,-14,-20,3,0
759,7,-8,0,24,53,85,32,3
759,-5,-1,3,2,-6,-37,-24,-32
759,-7,-1,0,-7,-50,-76,-18,35
764,11,12,4,-22,-26,19,37,-1
764,8,10,7,8,12,-30,1,-16
765,0,-17,-3,-2,12,40,15,27
765,-8,17,7,7,-30,-53,-14,-39
766,-17,-7,-18,-28,-11,-40,-30,-22
766,0,-13,0,16,-22,-46,-21,-16
767,11,25,5,0,20,86,8,38
767,8,0,11,45,89,26,51,-22
777,-4,-11,-2,-18,-90,-67,-13,-27
777,-6,-6,-11,-31,-29,20,-20,-2
785,-12,-18,-7,9,18,-17,-9,4
785,9,-1,-3,-9,-12,60,1,-2
800,10,-3,6,13,51,-19,31,62
800,-4,8,6,15,5,-33,-21,-50
802,-14,-10,-4,-4,-17,3,-20,-45
802,15,17,4,-12,9,16,17,37
815,-2,-21,-1,3,9,41,12,26
815,2,-2,1,21,26,16,19,1
823,6,-5,-1,-6,-40,-13,-17,-20
823,-7,4,-4,-6,-28,-60,-33,-12
837,-6,-6,0,20,56,-42,25,-13
837,2,-4,-5,-21,-29,-45,3,77
845,-13,7,-6,-19,-36,-5,-25,-62
845,0,-12,6,10,8,0,-7,-7
860,12,0,7,32,67,95,38,22
860,-6,9,-2,-3,-23,4,15,-36
861,-6,-19,-15,-34,-36,-66,-35,17
861,-8,-10,-8,-9,1,-25,-24,-40
874,9,17,1,-14,-23,55,17,66
874,-2,-5,8,22,31,71,15,-18
883,-5,-3,7,25,24,-47,13,5
883,-2,-5,-1,-8,-27,-51,-40,-39
898,-16,-6,-13,-19,-39,-7,-36,-16
898,0,0,-1,5,29,6,-4,9
906,12,0,4,-3,37,119,37,3
906,-3,20,0,7,-12,-55,37,26
928,3,10,11,-5,-7,-29,-26,-20
928,-14,-36,-16,-29,-51,-24,-13,0
929,16,26,8,12,23,13,9,-1
929,-9,1,0,11,40,43,7,-17
935,13,3,2,1,-19,24,15,8
935,-12,-7,-5,-20,-7,-45,-11,-50
943,-3,-6,-5,-8,23,9,-12,4
943,4,1,-1,-7,-29,-17,14,38
957,-10,7,-4,0,-41,-74,-29,-28
957,-1,-8,-6,11,19,-37,-22,-11
965,8,-2,-1,-15,-8,80,38,1
965,3,35,14,3,21,-10,2,15
980,-7,-16,-10,-7,4,61,7,-66
980,-3,-3,1,12,-3,-39,-14,22
982,8,-4,-3,-5,1,-17,-15,-20
982,13,19,8,-1,-15,-22,-1,18
995,-8,-10,-5,14,33,33,2,-14
995,-9,5,5,19,28,54,23,-17
1002,-15,-1,-4,-26,-68,-36,-17,-57
1002,-1,-13,-16,-27,-24,-86,-11,5
1017,-1,-6,-1,9,9,-4,-20,14
1017,1,11,5,13,42,80,22,21
1025,-2,-17,-3,17,-5,-54,21,25
1025,0,15,-1,-12,-19,-16,-20,-24
1040,-4,1,3,7,5,32,-1,-3
1040,5,-9,-6,10,10,-21,4,23
1041,-10,5,-1,-9,-27,-11,-14,-30
1041,15,-15,-6,-2,-24,-50,0,80
1055,-5,15,-1,8,36,36,-2,3
1055,8,8,2,-11,4,17,20,-1
1062,2,13,-2,3,2,18,5,4
1062,-16,-4,0,18,-14,-56,-24,-36
1077,11,-17,-9,-32,1,74,-4,-16
1077,-7,6,-2,-6,-9,-45,-2,33
1085,16,1,1,11,-5,-39,6,41
1085,-21,-20,-9,-34,-7,21,-29,-100
1101,16,19,4,17,24,89,53,74
1101,-8,-9,-5,-39,-70,-86,-28,-72
1103,-1,-20,-5,17,14,-8,-23,21
1103,-2,15,1,12,22,48,-4,-41
1115,-15,-26,0,6,1,-58,-15,-28
1115,6,15,-7,-16,-7,51,11,29
1123,-5,10,12,16,33,-19,13,-3
1123,-2,-26,-11,-25,-1,96,24,27
1138,-15,0,-2,-4,-43,-91,-8,-33
1138,19,12,1,-7,-39,-44,-17,9
1145,-12,-8,-8,7,26,-3,-30,-21
1145,-4,-1,7,21,18,7,0,-78
1169,8,1,-4,-20,8,46,40,48
1169,-7,3,2,14,0,-43,3,-4
1169,3,4,0,6,7,20,0,10
1169,0,6,-5,-13,-23,-9,-1,9
1191,5,-7,0,-13,-7,-17,-10,-27
1191,8,15,9,30,43,86,28,13
1198,-1,12,3,-6,-8,-18,4,-28
1198,-7,-6,-2,-4,-33,-13,-11,38
1205,2,-6,-9,-16,-22,-111,-12,12
1205,-5,-9,1,4,11,17,-11,-10
1207,-1,0,7,16,23,22,1,-17
1207,9,5,3,10,0,15,22,82
1227,2,11,-3,-6,12,34,-11,-15
1227,-1,-14,-6,-21,-11,27,-1,-17
1236,-4,8,3,14,20,-65,-8,-5
1236,3,-1,3,-19,-62,3,24,10
1259,-5,-14,-11,-9,-21,-52,-24,8
1259,-3,1,-1,-3,-10,18,-2,-1
1261,-5,6,-3,-18,0,-11,10,4
1261,-15,-26,-5,18,49,18,1,-14
1265,21,14,11,50,66,49,2,18
1265,-2,-5,1,-30,-52,20,17,-20
1274,-3,-9,-9,-12,-31,-38,-29,21
1274,-7,-4,-3,3,16,-19,-19,-38
1288,-6,2,9,-11,14,38,9,-29
1288,7,-7,0,12,12,-54,10,8
1290,-7,-7,-4,-3,-41,-5,-9,1
1290,-5,-5,-4,-4,-5,-22,-18,-24
1311,-3,1,6,14,19,33,-2,-12
1311,4,-2,-4,2,35,50,11,24
1312,0,6,-1,-1,18,32,24,5
1312,6,-11,1,-5,-39,-85,-21,-6
1325,1,22,-1,-16,-12,-14,-30,1
1325,2,-11,-6,-4,1,18,10,16
1341,-6,-12,-5,-9,-17,4,-2,-25
1341,10,4,-3,-12,4,7,13,29
1349,-4,-2,7,10,2,-9,14,-1
1349,-2,0,-6,-3,-9,-8,-12,1
1350,1,-3,2,0,25,61,1,-14
1350,1,4,1,13,33,-14,-6,-7
1379,-3,-3,3,6,-31,-13,18,-7
1379,5,8,2,7,13,16,11,-26
1381,-14,-24,-10,-4,-28,-68,-21,11
1381,-3,3,-4,-20,-11,25,-18,-16
1394,-4,4,4,16,21,41,1,11
1394,-1,0,2,4,23,-28,1,23
1396,-12,-8,-9,-42,-64,-18,-2,-72
1396,7,-1,3,17,14,49,10,90
1409,1,3,-3,7,17,-28,4,-27
1409,-2,-5,2,2,2,19,-3,-26
1411,5,1,-4,-11,16,59,13,28
1411,-4,1,1,9,-12,-74,-23,-36
1431,-14,-6,-7,-28,-28,18,-28,-14
1431,-2,-1,0,-9,5,78,18,19
1433,14,19,5,18,23,-55,17,13
1433,5,-12,-1,-12,-15,25,31,16
1445,3,25,-11,-7,-30,-79,-14,17
1445,-5,10,5,-1,-19,-29,-54,-33
1454,-3,1,7,19,39,49,4,4
1454,1,6,1,-4,-5,32,18,-7
1469,-5,-12,3,-22,-4,5,15,-26
1469,-4,-2,-7,-12,-6,-40,-15,1
1470,0,2,2,29,31,31,5,-12
1470,4,-3,-8,-18,-30,-31,11,46
1499,-3,-13,-4,7,-8,-20,-8,29
1499,3,4,7,26,6,6,9,1
1501,2,18,4,-14,-12,2,-4,-4
1501,-17,-3,-1,10,6,1,-8,-45
1505,1,-18,-15,-17,-17,-14,-27,2
1505,11,9,4,-5,10,-7,20,39
1514,-1,-10,-3,30,41,46,18,28
1514,0,10,4,0,-22,27,11,-50
1528,-6,-2,2,2,12,-13,-34,-4
1528,2,-3,-2,16,43,-56,3,4
