0,1,-2,-1,0,0,-3,0,0
0,-1,0,1,-1,0,0,-2,-1
0,-2,-1,0,-1,-2,-1,0,1
0,2,-1,0,0,-1,-1,1,0
1,-1,-1,-1,0,-1,-2,0,-1
1,-1,-2,-1,-1,-1,-2,1,-1
2,0,-1,-2,-1,-1,-1,-1,1
2,-3,-2,-2,-1,-1,-2,-3,2
18,1,-1,-1,-2,-1,1,-1,-1
18,0,0,-2,0,-1,-1,-2,-3
21,-1,-2,-2,0,-1,0,0,-3
21,-3,-2,-2,-1,-2,0,1,-2
31,-3,0,-1,-1,0,-1,2,-1
31,-3,-1,-2,0,-1,1,0,0
38,-2,-1,-2,-2,-1,1,-1,-2
38,1,-1,-1,1,2,-1,-4,-1
46,0,-1,1,12,-1,-2,-2,0
46,-3,-4,-8,-17,-8,-5,-5,-2
60,0,1,-1,1,1,0,-1,1
60,-1,-2,-2,-9,-3,0,0,-3
70,-4,-1,-6,-22,-25,-3,-3,-2
70,-2,-2,-2,-1,-1,0,-2,1
85,1,0,-1,0,-2,-1,-2,-1
85,-1,0,-2,1,7,-3,0,-1
124,-2,0,-1,-2,-1,0,-2,-1
124,-1,0,0,-1,1,1,0,0
125,0,0,-1,-2,-2,0,0,0
125,-1,-2,-1,-1,-1,-2,-1,1
129,-2,-1,0,-3,-2,-1,-2,-2
129,-3,-1,-1,-1,-3,-1,-2,-3
130,4,0,0,0,-1,-1,0,-2
130,2,-1,-2,-1,-1,-1,2,-2
135,0,1,-1,1,0,0,0,0
135,-1,-1,-1,-1,-1,-3,-2,-1
142,-4,-3,-1,-2,-1,1,0,-1
142,-1,1,-2,-1,-2,-1,-3,-1
159,-3,-3,-1,-1,-2,-3,-2,-1
159,-1,-2,-1,-1,-3,0,-1,-1
165,-3,0,1,-3,0,-1,-1,-3
165,-2,-1,0,-2,0,-1,-2,-3
175,0,-1,-1,0,1,-2,0,-1
175,-2,0,-1,-1,0,-2,-3,2
196,-1,-2,-1,0,-1,-1,-2,2
196,-3,-1,-1,1,-1,-2,-3,0
198,0,-1,-2,-2,-1,1,-1,-1
198,-1,-2,0,0,-1,-1,-1,-1
210,0,1,-1,0,0,-1,-1,1
210,1,-2,0,-2,-1,-1,0,-2
220,-2,0,-2,0,-1,-2,1,-2
220,2,0,-1,-1,-2,0,3,-4
234,0,-1,-1,-1,-1,0,1,-2
234,-5,-1,-2,-1,-1,-1,-1,0
236,3,-2,2,-2,0,-1,1,1
236,-1,-1,0,-1,0,0,2,-1
257,-4,-3,-1,0,-1,0,-3,-4
257,-1,-1,0,-1,-1,0,-1,-2
258,-1,0,-1,1,-1,0,1,-1
258,1,0,0,-1,-1,-3,-3,-3
271,1,0,-2,0,-2,-2,-2,-3
271,-5,-2,-3,-2,-1,-1,-2,-1
280,1,1,0,0,-1,0,0,0
280,-3,-2,-2,-2,-1,-2,-3,1
295,-1,0,-1,0,-4,-1,-1,2
295,-4,-1,-1,-1,-2,0,-4,-1
297,3,2,1,-1,-1,0,-2,1
297,0,-1,-2,0,-2,-2,0,-2
317,0,-1,-3,-2,0,-2,-1,-2
317,-2,1,-1,0,0,-2,1,-2
318,-1,-2,-2,0,-3,-2,-2,-1
318,-2,-2,-1,-2,-1,-1,0,0
330,-1,-3,-1,-1,-2,0,1,0
330,1,1,1,0,-2,0,-2,-1
339,-2,-1,-1,-1,-2,0,-2,-1
339,-3,-1,-3,0,-1,-2,-2,-2
355,-2,0,0,0,0,-1,-2,0
355,1,-1,-3,-1,0,-2,1,-1
356,-3,-2,-1,-1,-1,-1,0,-2
356,1,1,1,-1,-3,0,1,-2
377,3,1,-2,-2,-1,0,0,-1
377,-1,1,0,1,0,0,-2,0
378,-1,-1,-2,-2,0,-3,-3,0
378,-2,1,-2,-2,-1,-2,-4,-3
391,-2,0,0,-1,-1,-2,-2,1
391,2,0,0,-3,-2,0,0,-4
399,-1,-1,0,-1,0,-1,-2,-1
399,-2,-2,-1,-1,-1,-1,-2,-2
414,-1,-1,-1,0,-1,-1,-1,-3
414,-1,-1,-1,-2,-2,0,0,3
416,-4,0,-1,-1,1,0,-3,-7
416,0,0,-1,0,-1,2,2,0
437,-3,-1,1,-2,-1,-1,1,1
437,-4,-2,0,-2,-1,-3,0,0
439,-1,-2,0,-2,-1,-2,0,0
439,0,-2,1,-3,-1,-2,0,1
451,-6,-3,-1,0,0,-2,-3,-2
451,0,-1,0,0,0,-2,-1,1
459,-1,-1,-2,0,-1,-1,0,-1
459,0,0,-2,0,-1,-1,0,-3
475,2,0,0,0,-2,-2,-1,0
475,3,1,0,-1,-2,1,2,-1
477,-2,-1,0,-1,-1,-1,-2,-2
477,-1,-1,-1,-1,0,-1,-1,4
497,-1,-2,-2,-2,-1,-1,-3,4
497,0,-1,-1,0,-1,1,-1,-13
498,0,-2,-1,-1,-4,-2,-1,-6
498,-3,-3,-1,-1,-1,-4,-4,11
510,2,0,-1,-1,-1,-1,-2,0
510,-2,-2,-2,-1,-2,0,-2,2
534,-6,-1,-2,-1,1,-2,-5,-2
534,-1,-1,-2,1,-1,0,-1,-6
534,-2,-1,-1,0,-3,-2,0,-1
534,-1,0,0,-1,0,0,0,-1
541,1,0,-2,-1,-2,0,0,-1
541,6,2,0,-1,-1,-2,2,-1
556,1,0,-1,-1,0,-2,2,1
556,-2,-1,-2,-2,-2,0,0,-2
564,0,-1,0,0,-1,-2,-1,2
564,-3,-4,-1,-1,0,2,-1,-2
570,-1,-2,-2,1,0,0,-2,-8
570,0,0,0,-1,0,0,-3,0
579,1,1,-1,-1,-1,-2,-3,2
579,0,1,0,-1,-2,0,-3,-2
617,-2,0,4,-2,1,0,-2,4
617,1,0,-2,-2,0,-3,-8,-30
626,3,-1,-2,0,-1,4,10,46
626,-7,-3,-2,-3,-1,-1,-2,-8
626,2,-1,-1,1,0,-3,1,5
626,0,0,0,0,-2,-3,0,-7
640,-1,-3,0,0,-1,-2,-2,-11
640,3,-1,-2,-1,-1,1,1,3
641,-1,-1,-2,-2,0,0,-2,-2
641,1,-1,-2,-2,-2,-3,-3,9
642,-2,-1,0,0,0,0,-2,-10
642,-3,-2,0,1,-1,0,0,4
655,-3,-1,-3,-1,-2,-1,-1,-9
655,-1,-2,-1,-1,-1,0,0,7
656,-3,0,-2,-2,-1,1,2,-4
656,2,1,1,-1,-1,-3,-2,-8
676,-4,-1,-1,-1,-2,0,-2,0
676,-4,-3,-4,-2,-1,-2,0,4
691,2,2,15,3,0,-2,-4,-6
691,-1,0,0,-1,-1,-1,0,0
692,-1,-2,-4,-2,-1,-2,2,-3
692,1,-2,1,0,0,0,0,6
699,1,0,-3,-1,-2,-1,-5,-7
699,1,-2,-2,1,0,1,2,-4
714,-1,-2,0,0,-1,1,-3,-29
714,1,-1,-1,-2,0,1,4,6
716,-5,-2,-4,-1,-1,-3,-3,-7
716,-2,-1,-4,-2,0,-2,-3,10
737,2,-1,-2,2,0,0,-3,-9
737,-6,-1,3,0,-1,-1,0,-5
745,-4,-7,-8,-2,-2,-3,-1,-10
745,-3,-2,-2,-1,-1,-2,-3,-8
751,-4,-2,-3,-1,-1,-1,-1,9
751,2,0,2,0,-1,-2,-2,4
767,2,2,0,-2,1,-1,-2,-1
767,-3,-2,-1,-1,-2,-2,-3,0
773,-3,-2,-1,0,-2,1,3,7
773,0,-2,-2,0,-2,0,-1,12
781,-4,-1,-3,-3,-2,-1,0,-17
781,2,1,-1,-1,-1,-1,-1,-13
796,-4,0,0,-2,-1,-1,2,27
796,12,2,2,2,-1,-1,0,-11
799,1,-2,-4,-2,-2,-1,-1,16
799,-3,-3,0,-1,-3,0,-4,-20
810,-5,-4,0,-2,-1,-3,-2,-12
810,-2,1,1,0,1,2,6,10
826,-5,-3,-2,-2,-3,-2,-6,-2
826,3,1,-3,-1,0,0,1,-4
833,3,5,12,2,1,2,-4,-25
833,-2,-1,-4,-4,-2,-2,5,-4
859,3,-2,-3,-2,1,0,5,8
859,-8,-5,-12,-4,-2,-4,-5,-18
860,5,-1,0,-3,-2,-4,-4,10
860,5,0,7,0,1,0,1,22
863,0,-1,7,0,-2,-3,-6,-13
863,0,0,-2,0,-1,1,0,-14
870,1,-2,-6,-1,0,2,0,-5
870,-9,-4,-2,-1,-2,-2,-11,-31
879,-10,-5,-16,-4,-5,-6,-6,11
879,6,9,7,1,3,6,6,68
894,3,-3,3,-1,-1,2,18,66
894,-3,-10,-13,-2,-2,-2,-4,-3
900,3,1,5,0,1,0,-4,-47
900,-4,1,2,-3,-1,-2,1,-51
917,6,1,-3,-1,0,-2,-4,73
917,5,11,-15,1,-1,-2,-6,-33
918,-5,-7,5,-2,-1,0,4,13
918,-5,-4,2,0,-1,0,-11,-16
931,0,-1,-2,-2,-1,-2,9,10
931,-9,-4,-3,-4,-2,-3,-4,-45
954,12,4,0,1,-1,-1,2,1
954,-20,3,4,3,3,3,-6,-53
955,14,-2,-16,-5,-7,-7,-11,-50
955,4,5,-1,-1,0,3,12,41
961,-7,-3,4,-1,0,0,2,-9
961,3,-6,-1,-1,-2,-1,1,26
976,-9,-4,-4,-1,-2,-3,-10,-37
976,-7,-4,3,-1,0,-1,-11,-17
978,3,0,-1,0,1,4,3,33
978,3,-3,-3,-2,-2,-4,0,21
1000,-7,-3,-1,0,0,1,-2,-20
1000,-1,-2,4,0,-3,-2,-1,-2
1001,3,3,-4,-1,-5,-2,-2,-29
1001,8,3,2,0,-1,0,0,8
1014,-3,-1,2,-1,-2,0,4,-1
1014,-3,-7,-3,-3,-2,-2,-5,3
1020,0,0,-1,-2,-1,-1,-2,9
1020,-1,-2,-3,-1,-1,0,4,6
1036,6,2,2,-1,0,1,-5,-64
1036,-5,-1,1,0,1,2,-2,22
1043,0,1,0,0,1,2,0,4
1043,0,-5,3,-3,0,-1,1,9
1059,-8,-3,-2,0,-2,-2,-7,-29
1059,4,3,8,7,-1,0,4,-2
1061,0,2,-5,-10,-2,-5,-6,-4
1061,10,1,0,18,11,1,6,3
1074,-12,4,2,-12,-15,0,5,44
1074,-10,-12,-13,-19,-35,-9,-8,-11
1075,-3,-8,-15,-14,1,1,9,35
1075,-9,-4,-4,-1,0,-2,-32,-103
1112,-6,-1,-13,12,-1,-1,5,-37
1112,5,7,27,6,14,2,6,-7
1113,1,0,2,3,3,2,-6,-52
1113,-7,4,46,28,0,-8,1,-12
1119,-17,-21,-41,-77,-17,-9,-16,-27
1119,24,12,-9,-8,0,4,7,61
1121,14,-3,19,20,5,4,4,-4
1121,4,2,-31,-29,-3,4,10,46
1150,4,5,17,46,51,17,2,14
1150,-24,-14,-23,-11,-52,-34,-23,-68
1152,9,12,30,47,46,-8,3,69
1152,-2,-10,-41,-72,-73,-10,2,9
1156,5,11,55,97,53,20,-1,-60
1156,-21,-20,-53,-87,-37,-7,-40,-106
1164,-9,10,23,22,12,-14,24,70
1164,29,-10,9,-23,0,24,13,19
1187,12,0,-97,-50,-4,-1,19,101
1187,8,-29,0,-28,1,8,30,84
1210,-52,0,22,5,-44,-16,-42,-113
1210,50,44,18,50,34,19,34,76
1210,44,28,8,-3,-31,-9,17,12
1210,6,9,14,70,62,17,-10,-5
1213,35,-6,-44,-58,-2,11,20,22
1213,-52,-46,-10,-18,-52,-21,-7,-15
1224,-41,-41,41,41,-7,2,-32,-66
1224,5,33,-24,-4,12,-18,10,-4
1225,21,8,49,65,33,7,-19,-53
1225,-11,-18,-57,-36,-26,2,0,-7
1247,0,30,35,-2,-7,-6,-4,-71
1247,8,-14,-37,-34,-18,-4,-13,12
1248,-23,-18,-18,-17,-25,13,5,45
1248,17,20,55,16,29,1,0,-2
1269,-18,-35,-6,11,2,-8,1,52
1269,-20,-21,29,10,7,-13,0,13
1271,28,46,-21,39,41,6,5,-66
1271,-37,-20,53,7,-20,-10,-31,-101
1275,10,7,-28,-56,10,9,4,-25
1275,11,25,46,85,5,4,5,-15
1300,-34,-48,-30,-58,-36,-13,-5,21
1300,4,-8,-39,13,35,-1,-16,-37
1302,20,40,50,28,9,0,-17,17
1302,-9,-20,19,0,-3,-2,28,45
1322,-9,-53,-71,-5,-16,2,9,-8
1322,2,36,-34,-11,19,14,8,71
1322,-15,-61,-24,-27,-33,-9,-29,-7
1322,-19,85,69,53,4,1,-18,-3
1325,-43,-101,-77,3,2,-3,26,-4
1325,65,84,27,-42,-19,-6,13,19
1335,-15,-10,15,1,-11,-3,-3,-7
1335,7,-7,-23,-8,0,3,-8,34
1344,11,16,48,19,0,-5,6,27
1344,-30,-7,-1,33,19,-15,-22,-54
1359,39,22,14,-15,9,-1,23,91
1359,-9,-25,-12,8,12,2,-4,-62
1365,7,7,12,-12,6,7,-1,-4
1365,-11,-27,-39,-16,-9,-4,-3,34
1382,-34,-1,-4,-33,-6,-9,-16,-64
1382,-6,-7,-12,-11,13,9,-6,-45
1383,26,38,20,-2,-8,10,10,11
1383,4,-12,20,21,-14,1,38,-29
1396,1,2,3,6,3,-11,14,91
1396,12,4,9,1,8,-1,-9,-11
1405,6,30,14,-7,3,-1,-34,-57
1405,-7,-26,-14,16,21,5,-13,-27
1419,-15,-6,-35,-28,-24,1,15,-4
1419,16,4,-11,-46,-14,-2,7,23
1425,-9,7,24,-10,-14,-2,-8,-39
1425,-6,0,-41,-29,-5,-9,-10,-22
1442,4,-12,-8,12,3,2,9,-16
1442,-14,-13,20,24,34,10,-12,-35
1444,-9,6,15,-16,-6,-2,-10,-14
1444,-6,-10,15,5,-1,0,22,113
1465,5,20,5,-8,-13,1,-25,-76
1465,5,-10,-2,9,-4,-5,-12,13
1466,4,9,-7,-10,-11,-11,11,-33
1466,-1,-6,7,1,-6,-7,19,78
1478,-6,-6,-8,6,9,4,1,16
1478,4,-6,-6,-6,5,12,21,40
1485,-1,4,-12,-13,-12,-5,-18,59
1485,-6,-1,8,-4,4,1,-12,-8
1502,-2,-9,4,17,4,0,10,-16
1502,-1,10,-17,-23,-19,-7,3,-24
1503,-1,1,-7,-19,-13,-8,-5,18
1503,-6,-8,20,39,26,-7,-11,-3
1526,-2,13,-9,0,-5,0,-16,-3
1526,-4,-8,-34,-12,-7,5,9,-12
1527,2,0,25,4,4,1,10,-37
1527,-4,-14,12,22,9,11,-7,-58
1539,5,7,28,13,8,9,3,-54
1539,13,22,8,1,-4,2,20,1
1545,-14,-12,-29,-19,-15,-25,-23,10
1545,-11,-26,-16,-2,0,-10,-13,1
1562,6,0,-20,-18,0,-2,-2,8
1562,-17,-31,-70,-33,-9,7,8,-11
1564,12,15,12,5,21,16,15,34
1564,7,5,63,43,-9,-8,-13,38
1585,-12,-3,15,26,3,2,-6,-64
1585,-9,7,14,4,-5,-4,-13,-17
1586,5,13,-21,-6,0,5,14,13
1586,-14,-41,-27,-17,5,8,0,4
1598,-12,-91,-96,-44,-3,-7,10,29
1598,41,98,96,35,2,-4,2,35
1607,-7,-16,11,14,1,-5,-16,-21
1607,-26,-38,-29,-24,-2,0,-9,-24
1622,3,13,118,28,-19,4,11,37
1622,-19,-23,-10,-1,3,7,-2,-31
1624,-7,-67,5,14,2,-7,-10,6
1624,30,113,-12,-8,-4,-8,15,71
1644,-6,-20,-45,-20,-5,-15,-22,-63
1644,-3,27,7,-7,-2,2,-13,-33
1645,-1,23,14,14,11,15,19,-1
1645,-26,-45,-27,-4,-6,-8,-5,-21
1658,71,10,0,6,-1,-5,-2,87
1658,44,74,41,19,8,6,8,39
1667,-13,-12,-24,-5,6,9,-5,-48
1667,-24,-47,-7,-25,-16,3,15,17
1682,-32,6,5,5,-2,-16,-2,13
1682,11,-48,-25,-21,-28,-18,-19,-12
1683,1,-1,-15,-26,-8,-11,-4,6
1683,29,18,22,19,11,13,6,-4
1704,-22,-5,1,17,18,14,-2,-19
1704,-16,-60,-16,1,6,6,3,4
1706,-4,48,11,-3,-11,-2,13,4
1706,7,15,4,-3,-5,-9,-11,-42
1734,-17,-19,-21,-14,-10,-10,-9,-10
1734,40,61,19,9,5,-2,2,23
1736,-14,-26,-9,3,-2,3,-5,8
1736,8,3,9,3,12,3,-8,-31
1742,-10,42,-4,-6,-7,-2,-3,10
1742,-33,-56,-17,-5,-7,-2,5,3
1743,21,2,1,-5,-2,2,-1,-4
1743,2,-17,-19,-9,1,11,-3,-14
1764,-2,2,5,-6,-1,-9,3,7
1764,-17,-24,17,11,-7,-7,6,-5
1765,5,3,-4,0,3,2,-17,1
1765,-11,-17,-12,-12,-12,-13,-24,-12
1778,9,3,5,-4,-6,2,25,8
1778,-4,-18,-18,4,17,2,20,1
1787,9,2,5,-1,-5,-12,-13,8
1787,-9,-4,4,-2,0,1,-10,-19
1801,31,49,11,11,6,16,-3,-1
1801,-15,-15,-13,-15,-9,0,-4,4
1809,1,-5,0,-3,-6,0,10,-21
1809,2,20,8,3,-7,-15,-12,-25
1824,-3,-5,-5,-2,-3,-2,6,-6
1824,-7,-23,2,3,2,1,-2,27
1826,-9,1,-10,1,-2,-3,-19,-75
1826,18,9,33,8,4,6,31,36
1838,-14,-8,1,2,1,-2,-7,-42
1838,-2,-7,-7,-2,4,1,-2,1
1854,-6,-3,-3,-1,-2,-4,-14,-46
1854,-3,15,-1,-6,-5,-6,3,-45
1861,-4,-20,-9,7,3,-2,-4,-3
1861,-5,7,4,-8,-11,-11,-22,-90
1876,17,5,30,-3,1,6,32,116
1876,-4,-13,-10,0,6,5,2,5
1884,5,11,-3,-2,-2,5,3,34
1884,-7,-8,-1,1,4,6,-8,-62
1885,-19,-4,-2,2,-2,-18,-21,-78
1885,3,5,-10,-11,-13,-9,-15,-8
1898,25,2,6,3,-1,6,19,57
1898,-18,-5,-22,-6,-3,-1,5,-75
1906,15,2,-8,0,2,5,19,99
1906,-9,-2,1,9,9,-5,-18,-39
1930,5,4,-3,-5,2,0,3,33
1930,-3,-12,-7,-13,-26,-5,-4,40
1931,3,5,3,0,7,8,4,8
1931,-9,-2,-7,1,2,3,-12,-41
1944,-15,-6,2,-4,-1,-5,-6,-15
1944,17,6,3,0,5,-4,1,71
1946,-2,0,-2,0,-8,0,-1,-9
1946,2,4,3,-2,-1,1,14,31
1975,-7,-2,0,2,-2,1,-6,-20
1975,-3,-9,3,0,5,0,4,15
1976,1,-2,-9,-2,-4,0,-5,-25
1976,-2,2,4,2,1,3,5,-6
1982,7,4,-2,1,1,-3,-1,-5
1982,-8,-5,-7,2,0,-5,-8,-21
1983,1,0,4,1,0,-2,1,3
1983,2,4,-1,0,1,4,8,4
2004,-10,-6,-28,-18,-4,-6,-7,-32
2004,1,1,0,-5,-2,-8,6,17
2006,-5,-4,15,11,-4,-5,-3,-9
2006,-3,-4,-12,-1,-5,-5,1,-6
2034,2,0,18,8,1,-2,-7,-21
2034,2,13,-1,0,7,6,-2,6
2036,-4,-3,-16,-13,0,4,2,-7
2036,0,-1,6,-2,-4,0,-1,-10
2051,-9,-4,0,3,-4,-7,-4,-3
2051,2,-1,-23,-17,0,-1,3,10
2058,-7,1,9,0,1,-1,2,-5
2058,5,-7,6,7,3,0,1,10
2059,0,-4,-3,1,0,-1,-3,-7
2059,-5,-5,8,6,4,3,-1,-3
2061,-2,1,-15,-8,-3,-1,0,1
2061,0,0,-5,-9,-1,-4,-1,-14
2070,-3,3,17,13,0,4,3,-11
2070,-4,-4,1,10,-1,-10,-9,-8
2087,0,-2,-1,-4,0,1,-3,1
2087,4,4,4,4,-1,0,3,11
2109,-1,1,-6,-3,-6,1,1,-3
2109,-1,-3,-10,-3,-2,-1,2,8
2111,-1,-7,0,-2,-2,-7,2,-1
2111,3,3,6,10,1,1,0,5
2132,-4,-3,-4,-1,-2,-6,-5,-6
2132,2,-7,0,1,-1,2,-1,4
2134,1,1,-1,-1,-2,2,0,-2
2134,-3,-5,-16,-11,0,-2,1,-1
2135,2,-4,-3,-1,1,-1,-2,4
2135,1,4,10,7,-2,-1,1,4
2147,0,1,-2,0,-1,-1,-1,-2
2147,-3,1,0,-2,-1,2,3,7
2154,-4,-4,-5,-4,1,3,4,4
2154,-1,-4,1,-3,0,-1,2,3
2160,-1,4,3,3,3,0,4,-1
2160,3,0,0,-1,1,1,-2,0
2177,0,1,2,2,-1,-3,2,-1
2177,2,-3,-8,-8,-1,-3,0,-2
2178,0,1,1,2,-3,2,-1,-4
2178,1,2,5,2,-1,0,-2,-3
2199,-3,2,0,0,0,-1,-4,-4
2199,-1,1,4,2,-1,-2,-2,-1
2201,-1,-2,-4,-4,-2,-4,-5,1
2201,-1,-1,-4,-6,-2,-4,0,2
2214,-2,-2,-5,-5,0,7,-1,0
2214,0,-2,4,1,3,2,4,1
2227,-1,-4,7,7,0,1,0,0
2227,-2,0,-6,0,0,-2,-2,-3
2237,-1,-1,-4,-13,-3,-2,0,-2
2237,0,-2,1,-1,0,2,3,-2
2238,-3,-2,0,5,-1,-2,-1,-1
2238,0,-1,0,-2,-3,-6,-5,1
2251,0,0,-2,0,3,-1,0,0
2251,-3,-2,-6,-9,-7,-3,1,-1
2259,1,-1,2,0,-3,-3,-1,0
2259,-3,1,5,7,-2,-1,0,3
2274,-1,-1,-1,-2,-1,-2,-2,-2
2274,-1,0,5,1,1,2,0,1
2288,-1,1,-11,-6,-1,5,3,-2
2288,-2,-7,-7,-4,-1,3,-1,-4
2297,-1,2,7,3,-2,-2,0,-3
2297,-1,-4,0,8,2,0,0,0
2298,-2,-2,-4,-2,0,1,0,-2
2298,-2,-2,0,-4,-5,-2,2,1
2311,1,3,-4,-3,-3,-3,1,-1
2311,-1,0,-3,-3,-1,-3,2,0
2321,2,0,-1,-4,-1,-1,0,2
2321,1,0,-1,0,0,4,2,0
2334,-1,-5,3,8,0,-3,-2,-3
2334,-3,0,4,7,-5,-4,3,-4
2341,-3,-1,1,-2,0,-7,-9,-2
2341,-1,2,0,-3,-2,-2,-3,-1
2356,-3,-2,-7,-8,-1,2,-4,0
2356,0,-3,-6,-3,1,2,-2,-1
2359,1,7,0,2,-1,3,5,-1
2359,-2,1,4,8,2,3,1,2
2371,-1,-3,-2,0,-1,-1,-7,-3
2371,-2,-2,0,-3,-2,-1,-7,-3
2379,0,-3,-6,-5,-4,0,-4,-2
2379,2,-1,-6,-8,-2,-1,-4,1
2394,-1,-1,4,6,-3,0,-1,2
2394,-2,-4,2,11,-2,-5,-7,-2
2400,-1,-1,-2,-2,0,-4,-2,-4
2400,0,-1,1,1,-3,-1,0,-4
2416,0,-3,-16,-20,-4,-5,-4,-1
2416,-3,-2,10,6,-2,-3,-9,-3
2422,-3,-5,3,6,0,1,-2,-1
2422,-2,-3,-1,-1,-1,-2,-3,-2
2440,0,0,-2,-5,-2,1,4,1
2440,-3,-2,-9,-7,-2,1,0,0
2441,-4,-1,-6,-7,-1,-1,4,2
2441,-4,-2,6,9,2,0,1,0
2454,-3,1,5,7,-2,1,-5,-4
2454,-1,-2,-10,-10,-3,-4,-4,-3
2468,-2,-3,5,-1,-6,-3,3,2
2468,4,1,-4,-6,-2,-3,-4,-3
2476,-1,-1,2,7,0,-4,0,1
2476,1,-1,-1,-1,2,5,-1,-1
2483,0,-3,-3,-3,0,1,1,-2
2483,-2,-2,-2,-5,-2,-1,4,0
2490,-1,-1,2,2,-3,-2,-2,-2
2490,1,-1,-3,-4,-1,0,2,1
2500,2,-2,-3,-2,-1,-9,-11,-3
2500,-1,0,0,0,2,-1,-1,2
2513,1,-2,-4,-5,0,1,-1,-1
2513,2,2,-1,-5,-2,2,8,0
2520,0,-5,-4,2,-3,0,-2,-3
2520,-1,2,11,6,-3,-5,4,-3
2544,-5,-4,-6,0,-1,-3,-8,-1
2544,0,1,2,-2,-2,0,0,0
2545,-3,-1,-3,-3,-2,-2,-3,-3
2545,-1,-3,-10,-9,-2,0,-5,-2
2551,-1,0,5,-2,-4,-4,2,-2
2551,-2,0,-1,0,-1,-1,-3,1
2560,-1,0,0,0,1,-1,-2,-2
2560,1,-3,-4,-4,0,2,3,-1
2573,0,0,-2,0,0,4,6,-2
2573,1,-1,-5,-10,-1,-3,1,-4
2581,-2,1,9,27,-2,-1,6,4
2581,-3,-3,-3,-2,-1,0,-2,-2
2596,0,0,5,0,2,-1,-6,-1
2596,-6,-3,0,0,0,-5,-8,-1
2603,-1,-7,-8,-13,0,5,-9,-2
2603,6,14,3,5,-2,-3,6,2
2611,-4,-2,-4,-3,-3,-1,9,1
2611,1,0,-3,-2,-1,2,-2,-1
2633,-2,0,0,-2,2,-1,3,1
2633,-2,-6,-4,0,3,6,-3,0
2641,0,1,-4,-6,-6,-12,-5,0
2641,0,-1,2,-1,-5,-5,0,0
2644,-1,-1,0,0,0,0,2,-3
2644,-3,-6,-4,-1,0,-1,-4,-5
2656,-1,0,2,3,2,6,6,-1
2656,-2,0,3,5,-2,-1,1,2
2663,0,1,-5,-8,-2,1,0,-2
2663,-1,-3,-2,-9,-2,0,1,0
2679,-1,-3,1,9,-1,-7,-5,-2
2679,-4,-3,5,8,2,-1,-1,-2
2681,1,-1,0,-3,1,-1,2,1
2681,-2,0,1,0,0,1,3,1
2694,-1,0,-2,-4,1,3,1,2
2694,0,3,-2,-4,2,2,-2,-2
2701,0,4,4,-1,3,3,4,1
2701,-1,0,0,2,-4,-5,-5,-2
2724,-1,-5,-5,-2,1,4,1,0
2724,2,4,0,0,-1,-3,1,-1
2725,-3,-3,-2,-1,-2,-9,0,1
2725,-2,-3,-3,-5,-1,-1,-2,1
2747,1,0,0,-1,-4,1,1,1
2747,2,-1,-5,-2,0,2,3,2
2748,-2,-2,1,1,-2,2,-3,-2
2748,-2,0,0,3,1,-1,-2,-3
2754,-2,1,1,1,0,-1,-7,-2
2754,-2,-4,-1,-1,2,0,6,0
2761,0,0,-4,-4,-2,-1,6,2
2761,-2,-1,-1,-3,-3,-5,-3,0
2776,-1,-2,0,5,-1,-1,-5,-3
2776,-2,-1,-4,-2,-3,-1,-6,-4
2790,-1,-1,4,0,-1,1,-3,-2
2790,-2,-2,3,3,1,-1,1,-2
2800,-1,-1,-1,-5,0,1,-2,-5
2800,0,-3,-1,0,-1,-1,1,0
2801,0,-1,-4,-1,0,-1,-2,0
2801,1,-2,-3,-2,-3,-3,-3,2
2814,1,2,-1,0,-2,-2,1,2
2814,0,0,-2,-1,-3,-1,-2,0
2828,-2,-1,4,1,-2,-1,-1,-1
2828,-2,-1,-5,-1,-1,-1,-4,-1
2835,-1,-1,3,0,0,-2,1,-1
2835,0,0,-1,-4,-1,2,2,-3
2843,1,1,-2,-2,-2,1,2,-5
2843,-1,-4,1,1,-3,-5,4,1
2858,2,3,-15,-11,0,2,0,-1
2858,-3,-3,19,19,3,1,-1,-1
2859,-3,-3,2,4,-2,0,-8,-4
2859,-2,0,-5,-4,-3,-1,-3,-4
2875,-3,-2,-1,-3,-2,-3,3,0
2875,0,-2,-8,-9,-2,-1,-1,-2
2896,0,1,-3,-2,-1,0,-1,0
2896,0,-2,-1,-1,-1,3,0,-1
2905,1,-1,-1,-3,-1,-2,2,3
2905,-1,1,-1,5,-1,-1,-2,0
2906,-2,-1,2,2,2,1,0,-2
2906,1,0,-6,-8,-3,0,-1,1
2926,-2,-1,5,6,-4,-7,-6,-4
2926,0,-2,-3,-6,-2,-4,-3,-2
2926,-3,0,-1,-2,-2,-1,-5,-1
2926,-2,1,3,2,1,2,4,0
2941,-1,-1,0,-3,2,3,2,-1
2941,-1,-2,-1,-3,-3,-4,-3,0
2949,0,-1,-2,-3,-2,-3,-2,-1
2949,-1,1,-1,-3,-2,-3,-3,-2
2964,-2,-1,7,2,-2,0,-3,0
2964,-2,0,-7,-4,-1,-2,-7,0
2964,-1,-1,-7,-9,-2,1,2,3
2964,-1,0,6,8,1,2,-1,-2
2986,-2,-2,0,1,1,2,0,-4
2986,0,0,-2,-2,1,-4,-1,0
2987,2,0,-5,-3,-1,0,2,0
2987,0,-1,-1,0,-1,0,-1,1
3000,-1,-2,0,0,0,0,-2,1
3000,-1,-1,-2,-5,1,3,0,-4
3009,0,2,0,-3,-3,-5,-1,-1
3009,-1,3,-7,-2,0,-1,6,-1
3023,-3,-6,5,11,2,-1,-3,-3
3023,0,0,0,2,-4,-2,1,1
3023,-2,-2,0,-3,0,-2,-2,0
3023,1,-2,-1,-5,-1,0,-8,-1
3046,-1,-2,-4,-4,-1,0,0,-3
3046,-1,-1,-1,-1,-3,1,6,5
3047,-1,-3,-1,-2,-3,-3,-2,-1
3047,-2,-3,1,-1,-1,-2,-2,-3
3060,1,1,-5,-1,0,1,-2,0
3060,-1,-1,-3,-13,-6,-1,1,-1
3069,2,3,9,7,1,-3,0,1
3069,-6,-3,12,24,5,4,-3,-2
3083,-2,1,-1,-3,0,-5,-3,-1
3083,0,-2,1,2,2,4,1,-4
3085,0,0,-14,-12,-5,-2,0,-4
3085,2,-1,-8,-10,-4,-3,0,0
3106,1,0,6,5,0,2,-2,0
3106,0,-2,-7,-4,-1,-2,6,6
3107,-3,0,1,2,1,1,-3,-1
3107,-1,-2,0,-1,-1,-1,-1,2
3129,-1,1,-7,-7,-6,-7,-9,0
3129,-3,1,2,4,3,0,-6,-3
3130,-3,-1,0,5,1,3,-2,-1
3130,0,-1,0,0,0,4,0,-1
3144,-1,-1,-4,-5,-4,1,-1,1
3144,1,-3,-11,-6,-4,-6,-6,0
3145,0,-2,10,8,1,-1,1,3
3145,-2,-2,-1,-1,0,-3,-1,-5
3167,0,-1,-2,-4,-2,1,5,1
3167,-4,1,2,4,-3,-1,-2,-2
3168,-2,0,-7,-6,-1,-4,-1,-1
3168,-1,-1,-6,-7,-2,-2,3,2
3181,-1,0,1,-2,0,1,2,1
3181,-1,-1,5,2,0,-2,0,-5
3189,-1,-2,-6,-2,0,2,0,0
3189,0,-2,1,-3,0,1,-6,-2
3212,-2,-1,-1,1,-3,-2,-3,-2
3212,-1,0,-2,-3,1,3,1,1
3213,-2,-1,2,0,-3,-3,-2,-1
3213,-2,-2,0,-2,-3,-7,-3,-2
3226,2,-1,-1,-2,-3,-2,-1,-1
3226,0,-1,0,-1,-1,-4,-3,-2
3226,-1,-4,-2,-2,-4,-1,-1,-2
3226,1,-1,-3,-2,-3,1,0,-2
3241,-1,-1,0,2,3,2,0,-1
3241,-1,-1,4,3,-1,-1,-2,-2
3249,-1,-1,-4,0,1,1,-1,0
3249,-3,0,-4,-4,-4,-1,-6,-3
3264,-1,-2,1,-1,-1,-2,-1,-2
3264,0,-2,0,5,4,1,-1,-1
3264,0,-1,-2,-1,-1,-1,-1,0
3264,-1,-1,-2,-2,-1,-3,1,0
3286,-2,-1,-2,-2,-2,-2,0,0
3286,0,1,-4,-4,0,2,1,0
3287,1,-1,3,3,-1,-1,-3,-2
3287,-1,-1,0,2,-3,-7,-4,0
3309,-1,-2,-6,-10,-3,-2,-1,-3
3309,0,-1,2,7,1,-1,0,0
3310,-1,2,-1,1,0,3,-3,-1
3310,1,1,-2,0,1,4,-4,-3
3323,0,1,1,-1,-2,1,6,-1
3323,-4,-2,-2,-5,-7,-8,-5,-1
3325,-2,-1,-1,-4,1,-1,0,1
3325,1,-2,0,1,0,0,0,2
3346,-2,0,-2,-3,-1,1,-2,-2
3346,-1,-1,0,-1,-1,0,7,-2
3346,-1,-1,2,1,-1,2,0,-3
3346,0,0,-1,-5,0,-1,1,-1
3369,-1,-1,-6,-4,2,0,0,-1
3369,-1,-2,2,-3,-3,-4,-2,-1
3371,-1,-2,4,9,-1,-5,-3,-3
3371,-2,-2,0,0,-2,-3,3,-1
3392,0,-1,2,7,1,3,-1,3
3392,-2,-1,-3,-3,0,-2,-7,-1
3392,0,0,-6,-8,-1,-2,-1,-1
3392,-2,0,-1,-1,1,0,-2,-3
3406,-1,-1,1,3,0,-1,-4,0
3406,-2,-3,-1,-3,0,4,5,3
3407,1,-1,-2,-2,-1,-1,1,-3
3407,0,0,-1,0,-4,-2,-1,-1
3430,0,-1,1,-7,-5,-6,-6,-3
3430,1,0,5,11,2,3,0,-2
3430,-3,-2,0,-1,1,0,-1,-1
3430,-3,-1,-7,-7,-1,-2,0,1
3452,-2,0,-1,3,0,1,1,0
3452,-2,-3,-3,-2,-1,-1,-5,-1
3453,-2,-2,1,3,-1,3,2,3
3453,0,0,2,-1,-4,-2,-5,-2
3475,3,-2,0,-5,-1,-3,-3,0
3475,0,1,-3,-4,0,-3,-2,-1
3475,-1,-2,-2,-3,-1,2,1,-1
3475,-1,-1,-4,-2,-3,-2,2,-1
3490,1,0,-1,1,-3,-4,4,0
3490,0,-1,0,0,1,1,-1,-2
3490,1,-2,-2,-2,1,2,0,0
3490,0,0,5,4,2,2,0,-2
3512,-1,-3,-6,1,0,-4,-4,-1
3512,0,0,0,-1,-2,-1,-4,-1
3512,0,0,-4,-3,-2,-4,-2,-2
3512,0,0,0,-1,-1,-1,-1,-2
3541,0,-1,0,-1,2,2,5,0
3541,0,-1,-4,-5,-5,-2,1,0
3542,-3,-2,-2,-1,-2,-6,-7,-1
3542,-1,-2,-3,-1,0,0,-2,1
3565,-2,-1,1,1,0,0,-1,-1
3565,-3,-1,2,3,-1,3,-6,-4
3567,0,0,-3,-3,0,-1,0,4
3567,1,-2,-2,-2,-1,-2,-3,-2
3568,-1,-1,-3,-4,-1,0,-1,0
3568,-1,0,-2,-3,-1,-2,5,-1
3579,-2,0,-1,3,-1,-2,-3,-1
3579,-3,-1,0,0,-1,0,-3,1
3586,1,2,0,0,1,0,2,1
3586,0,-1,1,-1,0,1,0,-1
3586,-1,0,0,-1,2,0,2,-2
3586,-2,-1,-3,-3,-1,2,2,-2
3617,-1,1,2,-2,-2,1,-1,-2
3617,2,0,-2,0,-3,-5,-6,-3
3618,-1,-1,-1,-3,-1,1,-1,0
3618,0,0,1,0,-2,-1,0,0
3623,-1,-4,-2,-1,-4,-5,-4,1
3623,-1,-1,-3,-4,0,0,-1,-1
3625,0,-2,-1,-3,-1,0,-1,-2
3625,2,-1,0,2,1,1,-2,-4
3647,-1,-1,-2,2,-1,4,0,-2
3647,0,0,-1,-1,-1,-1,0,0
3647,-1,1,-2,0,0,2,-1,-1
3647,-1,0,0,1,-1,-6,-3,1
3669,-3,-2,1,-3,1,-2,-1,0
3669,-1,-3,-4,-1,-2,-1,-2,2
3669,0,1,-1,-1,-4,-2,-2,0
3669,0,0,-1,-1,0,1,0,0
3683,-1,-3,-4,-2,-1,1,2,-1
3683,0,-2,-1,-2,-1,1,2,-2
3685,-2,-1,0,2,-3,-2,1,-1
3685,-1,-2,-2,-2,-2,-3,1,-2
3707,0,0,1,2,1,-3,-3,-2
3707,0,-2,-6,-6,0,1,-3,-1
3707,1,-1,-2,-8,-2,-4,-2,1
3707,-3,0,3,6,1,-1,-3,2
3729,-2,0,1,-1,1,1,0,-1
3729,-1,-2,-2,1,0,-1,3,-2
3730,-1,-2,-1,-2,-1,-1,-1,-1
3730,1,0,-3,-5,-3,0,-2,-1
3744,0,1,-2,-1,-2,-2,-2,0
3744,-2,0,1,-1,0,0,-2,0
3744,-1,-1,-3,0,-1,-2,-4,-3
3744,0,-3,-1,-1,1,0,-2,-2
3766,-1,-2,0,2,-1,0,-2,0
3766,-2,-1,-3,-2,-4,-1,-2,1
3767,0,-1,-8,-7,-3,-3,-2,-1
3767,-1,1,5,5,-1,-1,-2,-1
3789,0,-4,4,11,1,-1,-1,-2
3789,-2,-1,2,4,0,0,-2,-2
3790,0,-3,2,0,-1,0,3,1
3790,-2,-2,-8,-6,-1,0,1,0
3820,-2,0,0,-7,1,1,0,-1
3820,-3,0,1,2,-1,-2,-1,0
3820,-2,0,1,0,-2,-4,-5,-4
3820,0,-2,-1,-4,-1,-1,0,-3
3826,1,2,-1,-1,-3,1,4,0
3826,-1,2,-3,-3,-3,-2,1,-3
3826,-2,1,-1,3,0,3,2,-2
3826,-2,0,-2,-2,0,-1,-1,-1
3857,-2,0,-4,0,-1,-3,-5,0
3857,0,-1,0,0,1,0,-4,0
3857,1,-3,-3,0,-3,1,-1,0
3857,-1,-2,-1,-1,-2,4,0,0
3863,1,0,-1,-2,-2,-7,-5,0
3863,0,-1,-1,-1,-1,-3,1,-1
3864,-1,-1,-1,0,0,-1,-1,0
3864,-1,-1,0,-2,2,-2,1,-1
3885,-1,-2,-2,-3,-1,2,1,-1
3885,0,-1,1,2,0,-3,1,-1
3887,0,1,0,2,-1,0,1,-4
3887,-1,-2,-2,-4,-3,0,0,-3
3910,-2,1,-4,-5,-1,-1,0,1
3910,0,0,1,-2,-2,-1,-2,-1
3910,-1,-1,1,2,-1,1,-4,0
3910,-1,1,-1,0,0,-2,0,1
3924,-2,1,-1,-1,1,-2,-3,-2
3924,0,0,-4,-4,-1,-3,-5,-2
3924,-1,-1,-1,0,-1,-1,-1,-2
3924,0,-2,-2,-1,-3,-2,-1,0
3947,-1,-2,-2,-2,-3,-1,1,1
3947,-1,-1,-1,0,-2,0,1,1
3947,-2,-1,3,-1,0,-4,-1,1
3947,-1,-1,1,-1,0,-2,-3,-2
3968,0,-2,0,-2,-1,2,0,-2
3968,-1,1,-7,-9,-1,-1,-1,-3
3976,0,0,1,-2,-1,-1,2,-3
3976,-2,-9,0,6,2,-1,-2,-2
3983,-1,0,1,1,2,1,-4,1
3983,0,-2,1,2,-1,-3,-1,1
3991,0,2,-4,-7,-1,-5,-1,0
3991,1,1,-4,-5,-1,-1,0,-2
4006,-3,-1,-3,-1,-1,0,-1,-5
4006,-2,-3,-1,-1,-2,-1,-2,-2
4007,-4,-3,-1,0,-1,0,5,2
4007,-3,1,1,-2,-3,1,-1,0
4028,1,-3,0,1,-2,-1,0,0
4028,0,-4,-2,0,0,-1,0,-3
4030,0,-3,-2,-1,-2,-3,0,-1
4030,-1,0,-1,-4,-3,-2,-3,-2
4043,-2,1,1,0,-1,-1,-3,-1
4043,-2,-1,1,1,0,3,3,-1
4052,0,-1,-1,1,1,1,-3,-1
4052,0,1,-2,-2,0,0,1,-2
4066,2,-2,0,-1,-3,-3,-2,-1
4066,-3,0,-1,0,0,-3,-1,-1
4074,-1,1,-4,-7,0,-2,-3,0
4074,-2,1,-4,-3,-3,-2,0,2
4096,0,0,7,7,3,0,3,3
4096,-3,-2,-1,4,1,1,0,-1
4097,2,0,-1,0,-1,1,-3,0
4097,2,-2,-3,-4,-1,-2,-5,-1
4111,0,-3,-7,-5,-3,-2,0,-1
4111,2,0,0,-1,-1,-3,1,0
4112,-1,-2,-2,-1,-2,0,0,-4
4112,-2,-1,0,-1,0,-1,-2,-1
4126,-4,-1,-2,-5,0,-1,-2,-2
4126,-2,-1,-1,1,1,1,0,0
4133,-3,-1,-3,0,-1,-3,1,-2
4133,-5,-2,0,2,-1,-1,2,-3
4149,2,0,-1,0,-3,-1,-2,-1
4149,0,1,-6,-7,-1,0,-4,-1
4149,0,1,4,2,-1,2,-1,1
4149,-5,-4,-2,5,1,-1,-2,1
4172,-3,-2,-1,-1,1,-1,0,1
4172,-1,-3,-2,-4,-2,-2,-2,-3
4172,1,-1,-3,-4,-3,0,-2,-1
4172,2,0,1,0,-1,0,1,0
4186,1,-1,-2,-1,-2,-2,-1,-5
4186,2,0,3,0,0,-2,-1,-2
4193,-2,-2,-1,1,1,-2,-2,-4
4193,0,0,-1,-2,0,-1,-2,-1
4224,-3,-1,-3,-1,-1,-1,-1,-2
4224,-3,-3,-1,0,-4,-1,-1,2
4240,-1,-3,-1,1,-2,-2,1,-2
4240,0,1,0,0,0,-2,0,-1
4242,-1,-2,-2,-2,-1,-2,-2,-1
4242,0,-1,0,1,-1,-1,1,1
4243,-1,-2,-1,-1,-2,-2,-2,0
4243,-1,0,-2,-1,0,2,3,-2
4248,-3,-2,-2,-2,0,2,2,-1
4248,-2,1,0,-2,-3,-5,-4,0
4248,-2,-1,-2,-3,-3,-3,0,-1
4248,1,-1,0,-2,-2,-2,-1,0
4268,-1,-1,1,-2,2,-2,-1,-2
4268,2,-2,-5,-7,-3,2,1,1
4269,0,-1,0,3,0,1,2,2
4269,0,-3,-1,3,0,-2,-4,-4
4285,1,0,1,1,-2,2,-1,-3
4285,-2,1,1,1,0,-1,0,-2
4291,-2,1,-3,-4,0,-1,-3,-2
4291,0,0,-1,-2,-2,-1,3,0
4306,0,0,-1,-1,0,-1,-2,2
4306,-2,-2,0,2,-1,1,1,-1
4307,-1,2,2,1,-1,-3,-2,-1
4307,-3,-2,0,2,-1,0,-3,-3
4329,3,-4,-2,-1,0,1,3,-1
4329,1,-2,-1,-1,1,-2,-1,-3
4330,-2,-4,-1,-1,-1,-1,0,-2
4330,0,1,0,-2,-1,-3,-3,1
4351,-2,1,0,-1,-5,-3,-1,-1
4351,-2,-2,-2,1,2,0,1,0
4353,1,-2,0,1,1,4,1,1
4353,-2,0,-2,-2,-2,0,1,-1
4366,1,0,-1,-1,-2,1,-1,-1
4366,-4,-2,0,1,-1,-1,-3,-3
4367,2,1,0,-3,-1,-3,-4,-2
4367,0,-3,-3,-4,0,-3,-3,-2
4389,-6,-5,-1,1,-1,-1,-2,-1
4389,0,0,3,3,1,0,1,2
4390,2,-2,-1,0,1,1,2,3
4390,-1,-3,-3,-1,-1,-2,-2,1
4412,-1,1,4,-1,-2,-2,-2,0
4412,4,1,-2,-2,-3,-2,0,-1
4413,-3,1,-2,0,-2,-3,-3,-3
4413,-1,-4,-1,-1,-3,-2,-1,1
4426,-1,0,-3,-2,1,-1,-2,0
4426,-4,-1,1,-2,0,0,-1,-4
4426,0,-1,0,-3,-1,1,1,-2
4426,5,3,-2,-3,-1,-1,2,-3
4448,-2,-3,2,6,2,-2,-1,-1
4448,0,-2,-1,2,1,0,0,3
4449,-2,-2,-2,1,-2,-1,-1,0
4449,-10,-1,-1,-2,0,0,2,1
4472,1,1,-6,-8,-2,0,-1,-1
4472,2,0,2,2,0,2,3,1
4472,-2,-2,-1,0,0,1,-1,-1
4472,-4,-2,-1,-2,-2,1,-3,1
4486,2,1,0,1,1,-2,-5,-2
4486,3,1,-1,-1,-1,-3,-3,0
4487,-1,-1,1,-1,-1,-1,0,-1
4487,1,0,1,2,-1,-3,-2,-2
4508,-1,1,0,-3,-1,-4,-2,1
4508,-5,-1,-2,-2,-1,-1,-1,-1
4509,-1,1,0,1,-1,0,-1,1
4509,9,0,0,0,-1,1,2,2
4540,3,-1,1,1,-3,-1,0,0
4540,-2,0,-1,-2,-3,-2,-1,-1
4541,-7,-3,-2,-5,-1,-1,-3,-1
4541,-6,-1,0,0,-1,-2,-1,-1
4547,-3,3,-3,-3,-2,-2,-1,-1
4547,-5,-2,0,2,0,-3,0,0
4548,-2,-1,-2,-1,0,-3,0,0
4548,-1,-1,1,-1,2,1,0,0
4569,-2,-4,0,-1,0,0,-1,-1
4569,6,0,-6,-2,-1,1,-2,-2
4569,4,-1,1,4,1,0,-2,0
4569,-3,-8,-22,-3,1,0,-3,-1
4591,-7,-6,2,-1,-3,0,0,-5
4591,0,2,-2,-6,-4,-4,-3,-3
4592,-4,-2,-1,-6,-2,-2,-3,-3
4592,7,5,-3,0,-3,-3,0,-2
4606,0,-1,1,-1,0,1,1,1
4606,-4,-5,-5,1,-1,2,-1,0
4606,-3,-1,3,2,-3,0,-1,-1
4606,-9,-3,3,-2,-1,-2,-2,-2
4629,3,4,-1,0,0,-2,0,0
4629,0,-2,1,-1,-1,-1,-4,-3
4629,3,0,-2,0,2,0,1,1
4629,-2,1,-10,-2,-2,2,-2,0
4651,2,2,19,3,-2,-1,-1,3
4651,-5,-2,1,1,-3,-3,-4,-1
4652,5,0,3,1,-2,-2,-2,-3
4652,-1,-4,-5,0,2,2,-1,-3
4666,-2,-3,2,1,2,1,-2,-1
4666,0,-15,3,0,-3,0,0,-1
4667,-4,-1,-2,-3,-4,-3,-4,-3
4667,7,-5,7,1,-4,-2,4,6
4689,3,15,-7,-1,-1,-1,4,1
4689,4,7,-2,0,-1,1,3,2
4690,0,0,21,1,-1,-2,3,-2
4690,-4,-3,3,-3,-4,-2,-1,-4
4712,-8,-8,-12,-5,-4,-2,0,-2
4712,3,5,6,1,1,-1,3,3
4713,-1,-2,-13,-3,-2,-3,0,-3
4713,-2,1,2,3,1,-1,-3,-3
4726,-7,-5,1,-3,0,-1,-2,-1
4726,-5,-3,-9,-11,-2,-3,-4,-3
4727,13,4,1,6,3,3,1,7
4727,-4,-2,0,3,2,4,-3,0
4748,2,-8,-34,1,1,1,0,2
4748,-6,-2,1,-2,-1,-2,-4,-5
4749,-8,-3,-9,-7,-1,-4,0,-3
4749,5,5,0,-2,1,-2,1,2
4772,3,-1,0,-2,0,0,-2,1
4772,-39,-6,-6,-1,-2,-3,-5,-47
4772,45,3,-4,-3,-1,1,6,58
4772,0,3,-7,-2,-3,2,-2,-3
4786,6,4,22,3,-1,1,1,6
4786,4,0,4,-1,1,0,1,8
4787,-21,-8,-10,-3,-4,-5,0,7
4787,-11,-1,-12,-2,3,-1,-8,-75
4809,0,-5,1,-3,-1,0,-5,-25
4809,-3,-4,-3,0,-4,-2,-1,-5
4809,-2,1,2,1,3,1,1,-6
4809,5,1,4,-2,-2,-5,3,33
4832,-4,-4,-1,1,-2,-1,0,-3
4832,14,7,2,6,6,3,2,9
4833,-5,1,10,2,0,3,5,-5
4833,-2,-4,13,-10,-7,-5,4,10
4847,-9,-7,-2,-4,-4,-10,-12,-12
4847,4,-9,-1,-3,2,-3,-3,17
4847,10,12,-12,4,1,7,0,-9
4847,-28,-8,27,7,-2,-5,-3,9
4869,25,17,18,3,4,6,4,-30
4869,16,2,-10,4,1,0,2,4
4870,-9,-16,-13,-7,2,4,-2,-6
4870,-12,-2,-6,-1,2,5,1,-16
4892,-10,-9,-43,-10,0,-7,-2,21
4892,-6,-7,21,7,0,-3,0,6
4893,-14,-11,-22,-25,-7,-2,-1,-29
4893,13,-7,-13,-3,-5,-2,9,24
4906,13,29,58,27,1,0,14,72
4906,2,6,-11,8,3,3,-19,-42
4907,-17,-6,15,6,-6,-3,-16,-32
4907,5,-15,-25,-7,-1,3,-2,3
4929,-2,-8,-21,-16,-4,7,10,9
4929,-3,0,6,-2,-5,-12,18,48
4929,-13,-1,-13,-5,7,5,-25,-82
4929,2,0,2,4,-3,-3,-9,-18
4952,0,-4,-24,-11,2,-2,3,-21
4952,13,4,-4,21,7,7,20,50
4953,-5,-5,-15,-15,-1,-10,2,28
4953,2,25,52,8,3,4,6,0
4966,-12,-7,30,10,-6,-5,-13,6
4966,-27,-47,-50,-34,-12,-4,-15,-61
4973,-1,-3,16,11,-2,-3,11,52
4973,37,65,15,5,-4,-13,-4,9
4988,-9,-3,3,4,5,1,-34,-87
4988,20,27,14,4,8,19,21,96
4996,-8,-11,-7,-3,-5,-1,-5,-69
4996,-6,-23,-14,-14,-6,-6,16,22
5012,-18,-21,-25,-14,-13,-22,-29,48
5012,7,17,10,4,17,15,21,21
5012,6,7,9,19,-12,2,15,6
5012,-8,-17,-23,-10,-11,-9,1,-25
5034,5,2,-2,9,-4,-6,-16,50
5034,-26,-12,9,-28,-23,-12,-52,-111
5035,20,27,30,20,25,17,52,127
5035,-2,-5,-12,-14,-8,-2,-8,-43
5049,9,-13,-14,9,14,13,27,-1
5049,5,-5,-9,-3,0,-5,6,47
5049,-15,0,-5,2,2,-3,-37,-115
5049,-5,2,0,16,7,3,-17,-21
5072,-8,-2,1,-16,-12,-7,10,3
5072,8,4,6,1,1,-3,-3,12
5072,7,-6,-13,16,9,-7,1,10
5072,-17,-14,2,-16,-20,3,-4,-32
5085,-11,7,0,0,0,-6,-15,-113
5085,8,5,-10,6,2,-2,25,82
5094,-1,-4,-26,-16,-2,-2,-7,-16
5094,-1,-4,45,36,26,7,-20,-63
5117,-15,-8,0,-6,-12,-9,2,-50
5117,21,16,16,12,9,15,14,64
5118,-11,-5,-9,-8,-6,-1,15,16
5118,4,-6,-27,-19,-1,-2,-16,5
5139,-21,-13,-14,-4,-4,-8,24,-44
5139,23,9,3,26,11,-7,3,28
5140,1,7,1,-17,-8,6,18,7
5140,8,-2,1,10,9,-5,-3,-5
5145,-9,-13,-85,-36,-8,7,2,-1
5145,-29,-17,17,7,-6,-8,-16,-85
5154,7,15,71,10,-8,-2,-21,-18
5154,-4,0,-4,7,6,-2,-19,-24
5176,6,10,19,5,10,5,-7,-73
5176,-8,-9,-39,-14,-18,-10,-8,-126
5184,-4,-21,-12,-10,1,-2,-3,-7
5184,-18,4,4,16,8,2,-3,-4
5207,-18,-8,8,-16,-12,-12,-15,-81
5207,27,5,6,-21,-11,10,27,54
5207,6,10,4,26,3,-6,-6,15
5207,10,4,-17,-26,-33,-4,3,24
5210,-8,-1,-1,3,14,6,-20,25
5210,-24,-6,1,-6,-4,-7,-6,-79
5213,7,3,-4,12,8,-5,4,45
5213,9,-1,-15,5,13,-3,-4,5
5228,28,7,23,6,-5,11,50,127
5228,10,9,8,6,5,9,8,13
5229,44,5,-20,-20,-6,2,4,25
5229,0,-7,-1,-9,-3,4,18,20
5259,-3,2,27,28,17,4,-4,-6
5259,-16,-11,-2,10,11,-4,-13,-36
5260,-27,-16,5,-9,-40,-4,-8,-31
5260,15,5,-7,-27,-6,-1,11,48
5273,0,6,-12,-2,3,5,-10,22
5273,-35,-38,-16,3,4,-5,-13,-26
5281,8,38,-4,7,8,-6,-5,-23
5281,20,4,-7,6,2,-6,3,48
5288,7,5,12,-3,-12,-3,-4,9
5288,3,-14,-2,0,9,-1,-10,-20
5321,-15,-12,1,0,0,-1,4,-36
5321,-5,1,-2,-11,3,10,19,-2
5323,-2,6,-1,-4,4,-3,-11,-54
5323,2,14,1,40,27,-5,15,59
5323,-13,-12,1,-29,-41,0,-21,-57
5323,-9,3,10,57,21,5,4,-9
5334,11,-3,10,-13,-8,7,7,14
5334,-24,-1,0,-8,-9,-5,-12,-34
5335,3,-2,-12,33,36,-7,-6,-2
5335,-17,-9,12,30,8,-8,-7,-19
5349,10,3,7,9,-14,5,14,38
5349,6,11,-7,-18,-9,6,-6,10
5349,-9,-4,-3,3,13,-2,-8,42
5349,-13,-9,-5,-20,-14,-5,-10,-54
5372,7,11,-17,24,15,-1,2,33
5372,17,2,11,19,-4,2,5,-53
5373,-6,-9,1,-29,-27,-2,2,-14
5373,-28,-12,-19,-17,9,-4,-20,-115
5394,-8,-21,-23,-19,-13,-12,23,95
5394,47,34,28,2,12,15,-10,-56
5395,-30,-10,4,-13,-2,-11,-23,-116
5395,20,-1,-24,22,13,12,19,-30
5409,-37,4,22,-14,-15,-7,-4,-18
5409,-37,-13,-12,-24,-19,-15,-15,-6
5409,79,8,-10,6,10,7,30,75
5409,-3,14,19,-5,-5,9,-12,-97
5432,14,-7,-11,-6,8,4,-20,-65
5432,-24,-6,10,-3,-12,-4,5,16
5433,-10,-5,1,-7,-6,-4,-9,24
5433,3,-3,-8,-13,-5,2,32,127
5454,4,1,11,10,10,0,-5,-25
5454,30,-2,-9,-13,-1,2,13,50
5455,-24,-4,-6,0,7,-1,-1,-12
5455,4,-3,2,-4,-11,-6,-5,41
5484,3,5,8,6,1,7,1,-10
5484,-12,-1,-13,-13,-12,-6,-10,-26
5485,-4,-3,-5,2,-2,1,10,33
5485,-3,-1,10,-8,4,-2,-7,3
5492,4,0,-5,-3,0,0,-4,-26
5492,-6,-1,-4,-6,-6,-9,-6,2
5493,-1,1,-1,-1,0,2,-2,-20
5493,0,-3,15,4,-6,-3,-1,5
5514,1,-3,1,-1,-6,-5,-1,1
5514,2,0,-5,-3,-4,-2,-3,-26
5515,-10,-3,4,0,1,3,-5,-34
5515,-2,-1,-7,-11,-7,-1,-2,-1
5529,4,0,-4,4,3,-1,5,8
5529,-6,0,3,0,-3,-1,-5,-7
5529,-5,-1,-6,-2,5,-2,-3,-2
5529,-4,-3,-2,-3,-4,-8,-8,-6
5552,8,4,0,-2,-2,0,7,42
5552,-8,-2,-6,-5,-3,1,-5,-59
5552,-1,0,-4,-1,7,1,0,17
5552,0,-2,-2,-3,-3,0,0,-14
5574,-3,-1,2,4,1,-3,-3,-34
5574,1,0,-5,-3,1,-2,0,-3
5575,-3,-1,0,2,1,2,-1,-17
5575,-4,-2,1,-3,-3,-1,1,-9
5605,6,1,-2,0,-2,1,-3,-18
5605,-1,0,-2,-1,-3,-1,4,18
5605,-1,-2,-1,1,-4,-2,-2,-9
5605,-2,-4,-4,-5,-4,-1,2,25
5612,-3,-1,-2,-1,0,-1,-5,1
5612,1,0,0,-2,-3,-2,-2,-14
5613,-3,0,0,0,-1,-1,1,26
5613,-1,-1,-1,-4,-2,0,1,6
5635,0,-3,-3,0,4,1,-1,-4
5635,-2,-1,-1,0,-1,-2,-3,-16
5636,2,0,-3,0,-2,-5,-3,-18
5636,2,-1,-1,-2,-1,-4,0,10
5648,-1,-1,0,-1,-1,0,-2,-8
5648,-1,-2,-1,-3,-2,0,6,32
5663,-2,-3,0,-1,-1,-1,-3,-3
5663,1,1,-1,-1,0,1,2,16
5671,0,-2,0,1,-4,-2,-2,-7
5671,6,-1,0,-2,-2,-2,-2,6
5673,-1,-2,-1,0,0,1,-1,-3
5673,0,1,-3,-2,-2,-2,-4,-11
5695,-2,-1,-3,-1,1,1,1,-3
5695,1,1,-1,-1,-2,-1,1,12
5696,3,1,1,-1,-1,-2,0,-2
5696,2,-2,-2,-2,-2,0,0,8
5708,-2,-2,-1,0,0,-2,0,4
5708,1,-1,-2,-1,1,0,-2,6
5718,-1,0,-1,0,-1,-1,-2,-10
5718,-1,-1,1,-3,-1,-3,2,-3
5732,0,0,-1,-1,0,-3,2,4
5732,-1,0,1,-1,-2,0,-1,0
5740,-1,-1,1,0,-1,0,-1,-2
5740,-1,0,-2,0,-1,0,0,3
5748,-4,-2,-3,-2,-1,-1,-2,-4
5748,-1,-1,0,-1,-1,-3,-6,2
5750,2,1,-2,0,0,0,-3,-5
5750,2,0,0,1,-1,0,-1,-3
5761,-2,-3,-3,-1,-1,-2,-3,-6
5761,-4,-1,-1,-2,-2,-2,-2,-2
5767,-2,-2,-4,-1,-4,-2,-3,-3
5767,-2,-2,-2,-2,-4,-2,-4,-5
5783,-1,-2,-3,0,-2,-2,-1,0
5783,-3,-1,-2,-2,-2,-3,0,3
5791,-3,-2,-2,-1,-1,-2,0,0
5791,0,0,-2,1,-1,-1,-1,-2
5806,-2,-1,-3,-2,-2,-2,-1,0
5806,-1,-1,-5,-1,-3,-1,0,-2
5807,-7,-2,-1,-4,0,-1,0,-4
5807,-3,-2,0,-2,-1,-2,0,-1
5820,-2,0,1,0,-2,-3,-2,0
5820,-1,-1,-1,-1,-2,-1,0,0
5827,-1,-2,-2,-3,-2,-1,1,-1
5827,1,-4,-1,0,0,-1,0,0
5843,6,0,0,1,1,0,2,-1
5843,4,1,1,-2,0,-1,1,0
5851,-3,-2,-1,0,-2,-3,0,-2
5851,-1,1,0,-2,1,-2,0,-2
5866,-1,-3,-1,-2,-2,-1,-1,-3
5866,-3,-4,-4,-1,-1,-2,-2,-2
5867,0,1,-1,-1,-3,-2,0,1
5867,-2,-1,-2,-1,-3,0,-2,0
5880,-3,-2,-1,-3,-2,-1,-1,1
5880,-1,-3,0,-1,-2,-2,-1,0
5888,-1,-2,0,0,-3,-2,-2,2
5888,-2,-2,-1,-2,-3,-2,1,0
5903,0,0,-1,-1,-2,-3,0,0
5903,-2,0,0,-1,-2,-1,2,1
5912,0,0,-1,-1,2,2,2,-1
5912,4,0,-1,-1,-3,0,0,-1
5926,-1,-2,-2,-2,-1,1,1,0
5926,-3,-1,-1,0,-1,1,0,-1
5927,-2,-1,-1,0,0,-1,1,-1
5927,-4,-1,-2,-3,-1,-2,0,-2
5940,-1,0,-2,-2,-2,-3,1,-2
5940,0,-1,-1,-2,-2,-2,-5,-1
5948,-1,-1,-2,-2,-4,-2,-4,-3
5948,-1,0,0,-1,-2,-2,-3,-1
5963,0,-1,-1,-2,0,-1,-2,-2
5963,1,-2,0,0,0,-1,-1,-1
5971,0,-1,-1,-1,-1,1,-3,-1
5971,-1,-1,-1,0,-2,1,-3,-2
5986,-4,0,-2,-1,-3,1,0,0
5986,-1,-1,-2,-2,-1,-1,-3,0
5987,-2,-2,-1,-2,0,-4,0,-4
5987,-2,-1,-3,0,0,-1,-2,-2
6001,0,-1,-1,-1,-1,0,-3,-2
6001,-2,-1,-2,-1,-1,-1,0,-1
6008,-3,0,0,-1,-2,-2,-2,2
6008,-2,1,-2,0,1,-1,-1,1
6023,-1,-2,0,-1,0,-1,1,1
6023,0,0,-3,0,-1,-1,0,0
6030,1,0,-2,0,1,1,1,-1
6030,1,-1,0,-1,2,-2,-1,-2
6045,4,1,0,-1,0,0,-2,-2
6045,-1,-2,-1,-1,-2,2,0,0
6047,-1,-2,0,0,-3,1,-2,1
6047,1,-2,0,-1,-3,0,-1,0
6060,-2,-1,-1,0,-2,-2,-2,1
6060,-2,0,1,0,-1,-1,-1,0
6068,-2,-1,-1,-2,-2,-2,-2,-1
6068,-3,-2,-2,-2,1,0,-4,-1
6082,-1,1,-1,-1,0,1,-2,1
6082,-3,1,-1,-2,0,1,-3,-2
6091,-4,-2,-2,-2,1,-1,1,-1
6091,1,-1,-1,-1,0,0,2,-1
6106,-1,-1,0,0,1,0,-1,-1
6106,-1,-2,-1,0,-2,-2,-1,-2
6113,-1,-1,-1,0,-1,1,-3,-1
6113,7,0,-1,1,-2,0,2,3
6122,0,-1,0,1,-1,1,-1,-1
6122,-2,-1,-2,-1,-3,1,0,0
6128,2,1,-1,-1,0,-1,-2,0
6128,-1,-1,0,0,0,0,-2,-2
6142,-1,-2,-2,-2,-1,-1,-2,-1
6142,-2,-3,-1,-2,0,0,0,-3
6151,0,-2,-1,-2,0,-2,1,-4
6151,-4,-2,0,-2,-1,-1,0,1
6166,0,1,-1,-1,0,-3,0,0
6166,-2,0,0,-2,0,-1,-1,1
6167,2,1,-2,-2,-2,1,-1,-1
6167,1,-1,0,0,-1,0,-2,-1
6180,0,-2,-1,-2,0,-2,-1,-1
6180,-1,-3,-1,-3,-2,-1,0,-1
6188,-1,-1,-2,0,0,-1,-2,-1
6188,-4,-1,-2,-2,-2,-3,-2,-1
6202,-2,-1,-2,-2,-2,-3,-1,0
6202,1,-1,-2,0,-1,-2,-2,-3
6211,-1,1,0,-1,-1,-2,-1,0
6211,-2,-1,-2,-2,-1,0,-1,-2
6226,0,-1,0,1,-1,-1,-1,0
6226,0,0,1,1,-2,-1,1,1
6227,-3,-2,-2,-1,-2,0,-3,-1
6227,-2,-3,-3,0,-2,0,-4,2
6241,-4,-2,-2,-1,-1,1,1,-3
6241,-1,0,-3,1,1,-2,-2,-2
6248,0,-2,-1,0,-1,-2,-1,-2
6248,0,-1,-1,-1,-2,-1,0,-2
6263,-3,-2,-1,-1,-1,-3,-3,0
6263,-1,-2,-1,-2,-1,0,-3,-1
6272,-2,-1,-1,-3,-1,-2,-2,-2
6272,-1,-1,-1,-2,-1,-1,0,-4
6285,5,0,-3,-1,-3,1,1,0
6285,-2,0,-1,-2,-1,0,-1,-2
6294,0,0,-1,1,-1,-1,0,0
6294,-1,-1,-1,0,-2,-1,-2,-1
6301,-4,0,-2,-1,0,0,-2,-2
6301,1,-1,-1,-1,-1,-2,-2,1
6316,-1,-2,-1,-1,-1,-3,0,-1
6316,-2,0,0,-2,0,-2,1,-1
6322,0,-2,-2,-1,0,-1,0,-2
6322,-1,-1,-3,0,-1,-3,0,0
6331,2,-2,-1,1,1,-1,1,-2
6331,-2,0,-1,0,-2,-2,-1,-1
6345,-1,-1,-2,-1,0,-1,-1,-1
6345,0,-2,-1,1,-2,-2,-1,1
6354,-3,0,-1,-3,-2,2,1,-2
6354,0,0,-1,-2,-1,-1,1,1
6360,2,-1,-2,-1,-3,-2,0,0
6360,-3,0,-2,-1,-2,-1,0,-3
6368,2,-1,0,0,-1,0,0,1
6368,-1,-2,-3,-1,0,-1,-1,-3
6383,-1,-1,-2,-2,-1,0,0,-1
6383,3,2,1,-2,0,0,1,2
6391,-1,-2,-1,-1,0,-2,-1,-1
6391,-2,-1,-2,0,-2,-1,1,-2
6414,-2,-1,0,1,0,0,-1,-2
6414,0,0,0,-1,-1,-2,2,-2
6415,-2,1,-1,-1,-2,-1,2,-2
6415,2,-2,-1,0,-3,1,-1,0
6420,-2,0,-2,-1,0,-2,-2,-1
6420,-3,-3,-4,-2,0,0,-2,0
6436,-3,-2,0,-1,1,-3,-2,2
6436,2,2,0,0,1,-2,-1,1
6442,-3,0,1,-1,-1,-1,0,3
6442,-2,-1,-2,-1,0,2,-1,1
6450,-4,-1,-2,0,0,1,1,0
6450,0,3,0,1,1,2,-2,-1
6465,3,1,0,0,1,2,1,-2
6465,0,0,1,-1,0,1,2,-2
6481,2,-1,-1,-1,1,-1,0,-1
6481,1,-2,0,-2,0,1,-1,0
6488,-1,-1,0,-2,0,1,-1,-1
6488,-2,-2,-1,0,-1,0,-1,-1
6490,0,0,0,-2,1,2,-2,-1
6490,0,-1,0,-1,-1,-2,-1,1
6503,-2,-1,0,0,-3,-1,-1,-1
6503,-2,-1,-1,0,-3,0,-4,-2
6511,0,-1,-1,-1,-3,-4,1,-1
6511,-2,-1,-2,-2,-2,-3,1,2
6525,-1,-1,-2,-1,-1,-1,2,-1
6525,0,-1,-2,-1,0,0,-2,0
6534,3,-1,-2,-1,-2,2,-1,-2
6534,-3,-2,-2,-3,-1,0,-1,-1
6549,-2,-2,-1,-1,-1,-1,0,-1
6549,2,0,0,0,0,-2,-1,0
6549,-1,-1,-1,-1,-1,-1,0,0
6549,1,-1,-2,-1,-1,-2,-1,1
6572,3,1,-1,-2,1,1,-1,1
6572,-2,0,-1,-2,-2,2,0,-1
6573,-1,-1,-2,-2,1,0,-2,-3
6573,-1,0,-3,1,-1,-2,1,-1
6585,0,1,2,1,-2,-2,0,-1
6585,-2,-2,-2,-1,-3,-2,-2,0
6593,0,1,-1,1,-1,-1,-2,3
6593,2,-1,0,1,0,2,0,-2
6609,1,0,-1,-1,-1,-1,-2,-1
6609,-2,-1,-1,0,-1,0,-1,-2
6609,1,0,0,0,-2,0,-2,0
6609,0,0,-1,2,-2,-1,-1,-1
6631,0,-2,-1,-2,-2,-1,-1,-1
6631,0,-2,0,0,-1,-1,1,0
6640,0,-2,0,-2,-1,-2,-2,0
6640,-2,-1,-1,-3,0,0,-2,-1
6654,-2,-2,-2,-3,-1,-1,0,0
6654,-1,-1,-1,-1,0,-3,2,3
6655,-2,-1,-2,0,0,1,0,-3
6655,-1,-2,-1,1,-1,-1,-2,-2
6677,-2,-2,-3,-1,0,0,-4,-1
6677,0,0,0,0,2,-2,-2,-2
6678,-2,-2,1,-3,-2,-3,-2,0
6678,-2,1,0,-2,0,-2,0,0
6691,2,1,-1,2,-1,-3,-1,1
6691,-2,0,1,-1,1,-1,-1,-2
6700,1,0,-1,0,-1,-1,1,-1
6700,-5,-3,-1,-2,-1,0,-2,1
6715,-2,-1,0,-1,-1,-2,-2,1
6715,1,-1,-2,-1,-1,-2,-3,0
6716,0,-1,-1,-1,-2,-2,-1,-2
6716,1,0,0,-2,-1,-2,0,-2
6744,-2,0,-2,-1,-1,-1,0,-1
6744,-1,-1,-2,-2,-3,0,-1,-1
6746,-2,-2,-2,0,0,1,-3,-2
6746,3,-2,-1,0,-1,1,1,-1
6750,-3,-1,-1,-1,-1,0,0,-1
6750,0,-2,-3,0,-2,-2,0,1
6759,-5,-1,-1,-2,-1,-1,-2,-1
6759,4,1,-1,1,1,-2,0,1
6774,-2,-2,-2,-1,0,-1,-1,-1
6774,-3,-1,-1,-1,-2,0,0,-2
6775,-4,-1,-2,-2,-2,-1,-2,-1
6775,-1,-1,1,-3,-1,-1,-3,-3
6797,-2,-1,-1,-1,-2,0,-1,1
6797,-3,0,-1,0,0,1,1,-2
6798,1,-1,0,1,-3,-3,3,0
6798,-2,-1,-3,-2,-1,-2,0,-2
6811,2,-1,-1,-2,0,-1,-2,-3
6811,1,-1,-3,-2,0,-1,-4,-2
6819,1,0,-1,0,-1,1,-2,-2
6819,-6,-4,-2,0,-2,0,-5,-3
6834,7,0,0,0,0,0,-2,-2
6834,0,-1,-1,0,-2,-1,1,2
6836,-1,1,-2,-1,-3,0,2,0
6836,1,0,0,1,-1,-1,2,-1
6857,-4,-4,-2,0,-1,0,1,0
6857,0,-1,0,1,-1,-1,-3,-1
6858,0,-2,-2,-1,0,0,-2,-1
6858,-4,-1,-1,-2,-1,1,-1,2
6870,-5,-3,-1,-1,1,-1,-2,0
6870,1,0,-1,-2,-1,-1,2,-2
6879,-1,0,0,-2,0,-1,-1,1
6879,0,-2,-1,-2,0,-3,-3,-3
6895,-1,1,0,0,-1,-2,-3,-2
6895,-1,-2,-1,0,-2,-2,-5,1
6896,0,-1,0,-1,-2,-1,-1,0
6896,-3,-2,-3,0,-1,0,1,3
6917,6,-2,-1,-1,-2,-1,1,0
6917,2,-1,-2,-1,-2,2,0,2
6918,-3,0,-2,-3,-1,-2,3,-2
6918,0,-1,-3,-1,-2,-3,-1,-8
6930,0,0,-1,-1,0,0,-2,7
6930,-3,-3,0,1,-1,-1,-10,-7
6940,0,-1,-1,0,-2,0,3,0
6940,0,0,-1,-3,-1,-1,3,2
6955,-3,-1,0,-2,-1,0,0,-2
6955,-2,-2,0,-1,-2,-1,0,-1
6956,-1,-3,-4,0,-1,0,-6,-3
6956,-3,-2,0,0,-3,-1,-4,-4
6992,2,1,-2,1,-2,-2,-2,-2
6992,1,1,0,-1,1,-2,1,0
6994,-4,-1,-1,-1,0,-1,-2,-1
6994,0,1,0,-2,-1,-1,-1,1
6995,-4,-2,-1,-1,-1,-1,-4,-2
6995,0,0,0,-2,-1,0,5,-1
6999,-3,-3,-1,-1,-2,-2,0,-6
6999,2,-2,-1,-2,0,-1,1,8
7013,-6,-2,0,-2,-4,-2,0,-4
7013,-9,-4,-1,-1,-1,0,-4,-2
7021,5,-1,0,-2,0,-1,0,2
7021,2,2,0,2,-1,0,-2,-4
7037,-8,-5,-3,-3,-4,-3,-1,-4
7037,2,1,0,-2,0,0,-16,1
7038,2,0,-1,0,-1,-1,15,2
7038,-3,-2,-1,-1,-2,-1,5,3
7051,-1,-1,-2,0,0,0,2,-2
7051,5,-1,-1,-1,-1,-2,5,0
7059,-2,0,-1,0,0,0,-11,-3
7059,9,2,-2,-1,2,2,-1,0
7074,-1,1,-1,-2,1,-1,-1,2
7074,-5,0,-1,0,2,1,-2,-3
7081,-1,0,-1,0,-2,0,-3,2
7081,-10,-3,-2,1,-2,0,4,-2
7097,5,-1,0,-1,-4,-2,0,-5
7097,-2,-2,-1,0,-2,-2,2,-9
7098,-2,-2,-1,0,-2,-4,-6,-8
7098,-6,-4,-2,-2,-2,-3,1,-6
7110,-4,-1,-1,-1,2,-1,-2,-3
7110,-3,-1,-2,-3,-3,-3,1,1
7119,2,2,-2,-1,-1,0,-5,3
7119,-1,0,-1,-1,-2,-1,-8,4
7133,0,0,-1,0,0,-1,-2,5
7133,0,1,-4,0,0,-3,4,3
7141,-8,-2,-3,2,0,0,1,1
7141,9,0,1,1,0,-3,-5,-2
7157,-3,-2,-1,0,-2,-2,-1,-2
7157,-2,-2,1,1,0,0,4,1
7158,-2,-3,0,-2,-2,-1,-3,-3
7158,-4,-2,0,0,-2,0,0,-2
7179,-8,-3,-2,0,-1,1,0,-2
7179,4,0,-1,-2,-2,0,-3,-1
7181,3,-1,-2,-1,0,-1,3,5
7181,-2,-1,-1,-1,-2,-1,-5,-4
7194,0,0,-1,0,1,0,-3,-2
7194,-2,-2,-1,-3,-4,0,-4,-4
7200,3,1,-1,-2,1,1,-1,-7
7200,-5,1,0,-2,0,0,-2,3
7217,3,1,0,-1,0,1,1,0
7217,4,0,-15,-1,2,0,2,4
7218,-4,-3,8,-1,0,-1,-3,-5
7218,-10,-6,-5,-2,-2,-1,0,-6
7239,1,-1,0,-1,-1,-3,1,8
7239,-2,-1,2,-1,-1,-1,1,-14
7240,-1,-1,-4,-1,-1,0,-1,-2
7240,1,0,-2,-2,0,-2,0,-2
7253,8,-1,-5,-2,1,1,0,4
7253,2,-1,2,-1,2,1,-8,-15
7262,-2,-3,-12,-2,-3,-1,-3,18
7262,1,4,22,3,-2,2,4,-11
7278,-3,0,2,0,-2,-2,-4,-1
7278,-4,-3,2,-1,-3,-2,0,10
7279,0,-1,-2,2,-2,-2,-2,-16
7279,-3,-4,-10,-3,-1,0,-3,-11
7300,-4,-3,-4,-2,-2,-1,2,3
7300,1,1,4,1,-1,0,2,-12
7313,-1,-1,-2,-3,-3,-3,-4,-4
7313,-1,-4,-6,0,-1,-2,0,18
7314,2,1,2,-2,0,1,0,-12
7314,-6,2,0,2,0,-1,-1,26
7321,-1,-3,-3,-1,-3,-2,-4,-24
7321,6,0,0,-4,-2,-2,2,14
7337,-10,-5,-5,-2,-2,-4,-15,-34
7337,3,-2,2,-1,1,3,9,66
7338,-2,0,-2,0,1,2,-1,-2
7338,-1,-1,-1,0,0,-1,16,-2
7360,-3,-1,1,0,-4,-3,1,11
7360,-2,-5,-2,-3,-4,-4,-11,-99
7361,6,2,5,2,3,4,13,78
7361,0,-2,-7,-2,0,-1,-4,7
7373,-5,1,-1,0,-2,-2,2,-6
7373,-3,-3,-3,-2,-2,-4,-8,-15
7382,1,1,-10,-3,-2,-3,0,-1
7382,-16,-1,17,0,-1,1,-20,-31
7397,4,-3,-6,0,2,4,5,4
7397,-2,2,2,0,-2,1,17,37
7399,-1,0,-2,-4,-2,-5,0,18
7399,-3,-1,-18,-3,0,-2,15,21
7427,6,3,18,0,0,-1,-4,-11
7427,1,-5,-2,-2,-2,1,-1,13
7428,-8,-2,5,1,-3,-2,-9,-29
7428,6,-1,-9,1,-3,-5,-13,-45
7433,1,1,-2,-2,1,0,3,46
7433,6,2,-4,0,2,0,-2,-5
7442,-4,-3,6,-3,-1,0,-5,-9
7442,-8,-2,1,-1,2,3,-52,-47
7457,0,-2,-6,-1,-3,-5,32,12
7457,-6,-1,1,1,-1,-2,20,15
7458,3,-2,-4,-3,-3,-7,-2,-54
7458,5,-2,-1,-1,0,1,14,87
7486,-3,-2,-17,-2,1,1,-12,-25
7486,-12,-6,2,-1,-1,-1,-11,-6
7495,-3,-2,0,-1,-3,0,-11,-11
7495,2,1,-4,-1,-2,1,3,-15
7496,6,4,3,3,0,0,-6,9
7496,2,3,-1,-2,-1,-3,-3,-4
7502,-2,-2,20,-4,-5,0,-3,1
7502,0,4,7,-3,-4,-3,4,3
7525,-6,-2,0,3,-2,-2,0,-5
7525,-4,12,16,8,9,-1,-5,-12
7526,1,-12,6,15,3,8,11,9
7526,-3,-13,-11,1,12,-3,2,4
7540,4,10,2,12,-3,-1,-8,-1
7540,-3,-12,29,-38,-38,-3,-3,-2
7541,0,23,8,1,10,0,1,9
7541,-1,11,12,5,-8,-1,5,-4
7553,1,-3,-6,0,10,-3,-7,-8
7553,-2,1,-11,16,10,-1,-2,2
7562,5,1,6,-4,-7,-1,6,2
7562,0,-10,-5,-4,4,0,4,-5
7577,0,4,-4,-3,-3,-3,0,-4
7577,5,4,12,6,4,-1,-2,-5
7578,-3,0,2,-14,-11,-4,-4,-2
7578,-4,-18,-12,-2,0,-1,-1,-6
7599,5,3,26,20,4,5,2,7
7599,6,-34,-36,-15,4,1,7,0
7601,0,53,46,18,0,0,-1,3
7601,3,11,18,-13,-16,-7,-5,-2
7613,-7,-7,-13,-15,-9,-1,-1,-4
7613,-3,-7,3,7,8,1,-8,-14
7629,-2,-20,-16,4,12,1,2,-23
7629,5,6,1,0,-4,-3,-3,-8
7637,10,-10,9,-4,0,1,7,18
7637,0,14,-22,5,0,-3,-5,1
7638,-7,-14,-21,-7,-6,-1,-4,-11
7638,-3,-1,4,0,-3,1,2,-17
7659,1,2,-9,-8,-2,-3,-5,-6
7659,6,2,-2,0,-1,-1,-3,-4
7661,-4,-21,-21,-9,-5,-3,1,14
7661,-5,3,-12,1,2,0,-2,-13
7673,11,0,-4,-1,1,-2,-5,-3
7673,-5,7,1,-1,-4,-1,5,10
7682,-7,-10,-8,-4,0,-4,-2,-5
7682,10,0,2,2,5,2,6,12
7705,-4,-4,-3,-8,-6,-6,-5,-14
7705,-3,-2,0,-3,-3,-3,-3,6
7706,-5,-4,-2,-1,0,-1,-4,3
7706,0,-2,-8,-2,0,2,3,13
7726,-4,-3,-31,-5,-3,0,-1,0
7726,-2,-10,-7,0,-2,-1,-2,-12
7728,11,9,16,3,1,-1,4,13
7728,-5,1,12,0,-4,-4,-3,2
7733,-16,-10,-7,-2,0,0,-1,-6
7733,-1,2,-4,-1,1,2,2,4
7742,-12,-6,-15,-3,-3,-3,-4,-7
7742,1,1,-6,-2,-2,-1,1,7
7757,-2,0,9,-1,0,1,-3,1
7757,-5,3,2,1,-1,1,-5,-4
7759,5,-4,-7,-4,-3,-3,-6,0
7759,4,2,-5,0,-2,1,1,0
7780,-4,3,6,1,-1,-1,1,-2
7780,5,0,-27,-7,-4,-4,-2,3
7781,6,-8,-2,0,0,2,3,3
7781,-6,-5,-4,2,-1,-2,-1,-1
7793,-5,-6,2,-1,-2,0,-1,-4
7793,-8,2,0,1,0,-1,-4,-6
7802,9,11,-4,-2,-1,1,2,3
7802,-6,-6,0,-2,-2,-4,1,-1
7824,6,7,1,2,2,0,2,2
7824,-6,-3,4,-5,-2,-4,1,-1
7826,-11,-18,-12,-1,0,0,-3,-6
7826,5,3,10,3,3,1,2,6
7847,-2,-8,6,1,-6,-1,0,-5
7847,-10,-2,-2,-1,-2,0,-2,-4
7848,-41,-29,-14,-4,-2,-5,-13,-50
7848,35,5,-8,1,0,1,3,46
7853,48,15,29,0,7,6,7,70
7853,18,-1,4,-1,-4,1,-3,3
7870,5,6,6,0,-3,-1,1,9
7870,-32,-17,-4,-1,-3,-3,-3,-46
7877,-9,8,-5,1,-1,-5,1,-25
7877,19,14,-16,-2,4,1,5,14
7879,11,7,10,4,2,2,0,0
7879,-6,-1,-8,-2,1,-3,-6,0
7899,-9,-11,-19,-10,-1,-1,1,-26
7899,6,-4,1,2,-3,1,-6,12
7901,12,16,-2,29,17,-4,-2,3
7901,-7,-11,1,8,0,1,9,-1
7913,-29,-5,-13,-26,-27,-9,-25,-27
7913,-19,-30,-17,-31,-2,-3,-6,-13
7921,11,-14,6,1,-5,4,27,37
7921,14,41,30,25,7,-3,-8,-1
7944,-8,-14,25,52,9,1,1,-5
7944,-27,-7,-33,-57,-8,1,7,-4
7945,5,5,-21,-31,-6,4,-6,9
7945,0,41,45,48,9,4,-6,-11
7959,3,16,19,16,-11,-10,-30,-16
7959,11,-3,3,-1,7,7,-7,6
7961,-17,-29,-18,-7,6,2,9,1
7961,-16,-43,-76,-75,-16,-6,10,-8
7973,16,14,63,47,9,10,-21,5
7973,-2,4,7,15,6,-5,21,4
7982,3,22,5,15,5,8,-45,-13
7982,4,-15,0,10,-1,6,33,-25
7996,-3,-9,-33,-35,-7,-21,-3,45
7996,-30,-13,-1,-3,-3,-12,-63,-47
7999,-3,-30,-33,-45,-18,-16,11,32
7999,31,35,18,7,3,-7,69,18
8019,-14,1,-45,-56,-11,3,38,-16
8019,16,13,46,30,-3,7,-19,23
8021,0,3,12,38,11,1,-47,-24
8021,-11,-27,-45,-53,1,0,-36,1
8033,-4,-11,15,-7,2,18,-38,-27
8033,12,35,32,60,15,0,6,-25
8042,10,13,16,12,-8,-6,25,62
8042,7,47,18,22,-5,-15,-20,0
8072,13,23,-28,-33,-5,-11,15,15
8072,-15,-31,-17,-23,-11,-8,-8,-19
8074,-11,12,-2,1,4,10,-60,-103
8074,13,51,8,-4,-16,-30,42,27
8080,-6,-7,-6,-7,3,9,12,46
8080,29,16,11,19,2,0,16,103
8081,-2,-19,-3,-2,-2,6,19,24
8081,-31,-64,-24,-14,-4,15,-30,-25
8102,5,5,-1,7,4,-6,18,-34
8102,11,59,23,25,15,15,29,-37
8103,-17,-22,-6,-14,-8,0,-1,-14
8103,-22,-17,-26,-24,-4,1,-40,-22
8117,-3,-49,26,31,7,-6,14,-8
8117,5,0,-16,-14,-16,-16,-22,44
8123,13,23,1,-19,-3,0,-2,-5
8123,-12,-19,25,29,7,13,-67,-7
8139,-11,-2,-21,-10,-2,-1,40,19
8139,-3,-38,-13,-35,-8,-4,-4,-45
8140,-22,-26,-29,-26,-5,-12,86,27
8140,23,58,23,11,8,16,17,9
8169,-15,-30,16,15,3,7,-7,-19
8169,-18,-24,2,25,-9,-15,-31,-12
8170,-20,25,20,21,-2,4,-20,-29
8170,-13,-72,-51,-46,-11,-25,-7,-26
8176,9,53,38,17,0,-1,-14,4
8176,-15,21,7,14,12,13,33,-1
8191,32,16,7,-3,9,14,13,-10
8191,-14,-20,33,44,7,4,2,93
8199,-47,-37,-35,-26,-10,-11,8,-60
8199,10,36,-5,-23,-8,5,12,30
8200,27,-28,-12,5,3,-14,10,47
8200,29,13,-4,-4,3,5,-9,-14
8222,16,13,10,5,5,3,-3,22
8222,-22,-10,-4,-31,5,10,-59,-27
8223,-13,-40,-36,-3,-1,-5,33,61
8223,22,-8,17,10,-14,-16,64,119
8237,-31,-14,26,35,3,-21,-73,-101
8237,-12,-26,-27,1,9,13,13,-34
8242,20,6,16,-13,-1,6,-6,1
8242,-50,-18,-11,-6,-5,-8,-24,-73
8260,99,48,-14,-27,-3,6,43,87
8260,-11,-23,-9,1,0,-6,11,-57
8262,3,47,22,22,-2,3,-11,-2
8262,-14,-12,-17,-4,-2,8,2,-31
8281,-10,-42,-5,-6,7,12,-23,-4
8281,9,48,-11,1,-1,-14,-13,13
8283,-3,-7,16,10,3,2,-14,-5
8283,-9,35,-5,-6,-4,8,-9,-19
8296,-23,-12,-17,-10,6,-13,7,-58
8296,29,-39,9,15,-2,10,35,127
8304,-16,5,-3,-17,-19,-18,-5,-40
8304,16,36,3,-13,4,-5,-11,-28
8326,-27,-26,-14,15,1,-2,-3,5
8326,41,49,8,-7,12,-23,5,28
8335,-27,-6,11,11,16,20,8,-11
8335,6,-10,12,-18,2,11,0,-9
8342,22,42,-28,-11,-11,-14,-1,2
8342,-26,-19,13,13,-8,-3,-13,-21
8343,14,25,14,8,-11,0,7,7
8343,-2,-30,-12,-1,-12,8,0,-12
8355,-27,-6,-9,1,-17,-23,-21,-15
8355,-27,-61,-3,4,-2,-10,8,-54
8365,29,25,2,-4,14,18,0,14
8365,42,6,8,5,6,32,10,-4
8380,-19,-9,1,-3,4,-11,12,15
8380,1,-2,-14,-18,-13,20,8,-12
8381,6,11,12,5,-7,-14,-8,7
8381,-12,-17,5,26,-12,-69,-28,-12
8402,-7,-29,7,-4,3,14,-1,14
8402,14,2,-14,-33,-4,18,-6,-6
8403,-58,-27,-9,-3,0,-4,13,-20
8403,36,30,-5,25,9,6,-8,44
8415,-8,12,8,7,1,10,-3,-3
8415,-51,-32,11,8,4,8,12,-18
8425,50,54,-6,-26,-18,-26,-9,26
8425,-37,-18,-5,-19,-5,-3,-7,-108
8439,25,10,8,9,17,52,17,63
8439,2,3,-3,12,13,-12,20,8
8441,-2,-4,-15,-32,-16,-16,-3,-16
8441,-6,-24,-11,15,-25,-62,-28,32
8460,2,11,7,3,-1,-5,-19,-16
8460,23,36,6,-2,11,21,10,8
8469,-5,-31,-11,3,17,31,0,0
8469,-8,13,9,-7,18,28,18,1
8492,-15,4,-3,-6,-26,-11,-2,3
8492,11,-24,-3,-16,-14,-25,-2,5
8493,-22,-14,-8,9,8,-2,-3,-8
8493,-6,-2,11,17,13,32,6,7
8499,19,-17,-8,-2,7,-7,-9,-38
8499,-2,-1,1,8,-7,8,4,40
8515,4,28,8,-11,-22,-48,-24,-64
8515,-2,-13,-5,-20,0,15,14,26
8522,-2,4,-7,0,2,-2,15,-16
8522,-1,-11,0,-8,-9,-7,-5,15
8523,-21,-39,-6,-6,2,16,2,0
8523,18,23,0,14,3,-17,-4,10
8536,-10,-2,-1,-5,0,12,6,18
8536,23,15,-2,0,-1,-9,-1,-28
8545,-21,-6,8,7,-5,-7,-8,-9
8545,5,-13,-2,-22,1,25,3,35
8574,-7,-29,-27,-22,-5,-34,-4,-33
8574,0,22,12,35,4,16,-5,-26
8582,-4,-4,1,8,6,-1,-22,6
8582,-22,-12,-10,1,-6,-17,16,6
8583,25,9,2,-5,0,16,5,5
8583,-26,-8,-2,-4,-27,-12,-12,-21
8584,9,-5,-2,-1,-13,8,0,-8
8584,-26,-18,-7,-10,-5,11,12,-23
8595,15,11,4,-6,-1,-35,-17,38
8595,10,-4,22,16,20,7,-2,4
8605,14,-7,-17,-16,9,-3,7,6
8605,-5,19,7,21,17,11,-1,-12
8634,-14,14,-3,-4,-4,-4,-2,-1
8634,21,-19,-13,-16,-2,-2,0,18
8635,7,13,6,23,11,13,-2,-17
8635,13,-2,2,-7,-3,-12,-14,-46
8642,-8,11,2,3,-2,-2,11,14
8642,-19,5,3,3,1,13,-3,12
8643,-10,-13,-18,-26,-8,-26,8,6
8643,12,-13,11,-1,6,15,9,76
8656,9,12,-17,20,3,11,-4,6
8656,-18,-37,-13,0,-13,-19,-4,-15
8664,-5,-3,4,8,-5,-4,-15,18
8664,-15,19,13,-17,-1,-4,1,-33
8679,23,17,4,-1,6,33,11,-19
8679,1,4,-2,-3,13,-10,10,18
8681,12,6,0,13,8,13,-3,-36
8681,-2,9,-3,-10,-15,-17,-3,-15
8702,-18,-25,2,-12,-11,-13,7,22
8702,15,20,-9,3,-9,-20,-7,-27
8703,19,12,-1,-1,8,8,1,6
8703,-5,1,-5,4,6,9,4,-12
8715,-1,-6,4,1,-3,5,1,1
8715,13,-7,-5,3,0,7,7,16
8732,-34,-9,3,-7,-6,-11,-16,-17
8732,16,-26,-14,-15,-3,1,3,26
8747,10,28,-1,15,-3,-1,-4,-3
8747,-2,-5,2,-6,-5,-6,-10,1
8749,7,-2,-6,7,-2,4,5,24
8749,-12,14,6,-8,6,21,-14,-62
8761,8,-13,6,-9,-2,-23,-2,37
8761,-9,-1,-6,14,2,-4,5,-9
8763,-26,-1,7,11,-4,-9,-16,10
8763,7,-21,-8,-12,1,23,14,-18
8775,-21,-15,-8,4,4,-2,-3,18
8775,12,27,-2,1,-4,-9,-1,2
8790,-15,-17,3,2,3,-6,8,-7
8790,-23,-3,-5,6,2,3,-8,16
8798,32,8,8,-10,4,0,-2,-29
8798,-39,-16,-11,-9,-10,-2,1,7
8813,16,13,4,-1,-11,-10,4,5
8813,12,3,-6,0,1,-4,-17,-5
8822,-11,-11,3,-30,6,45,12,69
8822,-7,3,6,34,2,-31,1,-36
8823,22,-10,13,9,1,18,-3,-10
8823,12,13,-5,-2,-6,-33,-6,27
8835,0,3,-1,-1,-12,-10,-4,-17
8835,10,11,3,-14,1,19,-12,-10
8845,-6,-26,-4,-3,9,8,19,-13
8845,4,25,11,16,-5,-9,3,79
8859,-26,-16,-1,4,3,18,-7,-69
8859,22,-8,-3,-14,4,-6,1,11
8865,-24,7,-3,-7,-23,-32,3,-5
8865,20,-11,0,-1,-10,-26,-13,0
8890,2,-4,-9,21,14,35,0,-6
8890,0,3,13,-1,9,3,3,8
8891,4,-8,-9,-5,7,15,4,17
8891,24,11,-2,-5,-22,-9,11,-1
8896,-19,0,-4,-4,-19,-19,-22,-23
8896,-2,10,0,-3,-3,8,2,-36
8906,15,-19,6,-14,1,-1,5,81
8906,-11,19,-19,16,13,6,1,-11
8918,5,5,8,5,4,-2,5,-10
8918,-31,-2,-3,-9,1,11,-2,8
8926,-3,3,-2,-7,-8,-17,-6,-17
8926,-8,-16,6,-5,0,-1,-3,-14
8942,-21,15,1,-6,-3,-14,3,-1
8942,18,-4,1,8,-1,4,-17,-25
8944,1,8,-5,3,1,-3,6,1
8944,-10,-14,0,1,3,5,16,-10
8955,6,5,0,-13,-2,-11,-10,-6
8955,-9,-4,-2,-10,-6,2,3,-3
8964,2,13,0,11,9,17,-2,-9
8964,-8,-8,-4,-9,1,-5,-15,-4
8979,16,-17,-4,4,-1,-3,9,5
8979,6,12,7,-7,-3,0,1,11
8985,-7,12,-5,1,-1,4,-4,-9
8985,18,-9,-5,-19,4,13,1,4
9002,32,-5,2,19,-4,-19,-5,9
9002,7,4,0,9,-12,-10,3,19
9004,-5,-2,-4,4,1,-19,-4,-15
9004,-3,-5,3,-6,-1,3,0,-11
9024,-8,-14,-3,-5,4,9,-1,6
9024,14,-2,5,-16,-13,-11,-9,-1
9025,4,-4,-14,7,1,9,9,-5
9025,32,27,5,7,8,5,-6,30
9039,-8,2,3,6,14,12,4,-9
9039,-4,-1,-5,-11,-10,-25,-14,4
9045,-3,4,8,-13,-24,6,4,5
9045,-17,-13,-12,-3,-7,-26,-17,-22
9061,-3,-1,1,-11,3,17,5,8
9061,4,-4,2,14,15,18,18,10
9069,42,12,-10,1,8,2,-9,-10
9069,-13,-19,9,10,-9,-25,3,-6
9084,-16,-2,-10,-18,-7,1,-13,-5
9084,-37,-8,-1,4,8,16,1,-8
9092,-2,-3,6,10,12,15,5,-2
9092,0,-7,10,-4,-11,-2,-8,-1
9107,17,22,-12,0,-11,-16,4,7
9107,-23,-4,-5,0,5,4,-11,-14
9108,3,16,3,-2,-1,-15,-7,20
9108,-11,3,-6,2,1,31,10,-8
9129,-17,-21,3,0,-7,-38,-4,-1
9129,-1,-10,4,0,7,6,1,2
9131,-14,1,-4,-3,-17,-6,-4,-10
9131,13,4,1,1,5,-5,-3,-1
9144,12,-8,4,5,-5,5,2,9
9144,-7,-3,-10,-11,-2,6,12,-9
9146,-10,-3,1,-6,10,9,-6,16
9146,-23,-2,1,11,2,7,4,-4
9158,3,-1,-5,-14,-19,-17,6,-5
9158,24,3,-3,13,-5,-14,5,-3
9167,2,10,7,-1,1,7,3,-6
9167,-2,1,0,-3,12,21,10,2
9190,0,6,1,8,4,3,-14,-4
9190,-4,-1,-9,-21,-21,-31,-16,-4
9191,-9,-15,-4,-5,-2,-21,-8,6
9191,-5,-3,2,6,3,6,0,-9
9212,-12,14,2,0,5,3,2,-2
9212,3,7,3,6,12,28,10,6
9213,-6,-10,-1,3,3,0,7,-7
9213,-7,-6,-2,-4,-20,-36,-13,-9
9219,-3,-1,11,-4,-4,1,-9,-6
9219,11,-20,-11,15,18,52,22,17
9226,13,8,3,2,-11,-31,1,-8
9226,23,-2,0,-1,2,5,-2,8
9242,-38,-8,-2,-2,-10,-6,-8,-18
9242,13,2,6,-13,-2,-5,-1,10
9244,-9,-24,-8,1,6,1,-15,-11
9244,14,29,5,2,4,8,9,-1
9264,4,2,-6,-1,1,7,-6,9
9264,-7,-7,2,0,-13,-22,-2,-4
9265,1,-9,-2,6,5,15,-5,-8
9265,-11,-2,-4,-10,-7,-31,-2,3
9279,5,-5,0,5,4,16,11,0
9279,-5,6,-1,-2,13,18,9,2
9285,0,-18,-7,-14,-19,-29,-8,-2
9285,-17,5,-3,3,0,35,-5,-9
9302,-6,-8,0,-3,13,-9,5,-1
9302,-3,-2,-3,8,0,7,-17,2
9304,-6,4,1,-1,-6,-1,9,-3
9304,-12,-22,-10,-5,-4,-20,-13,-3
9324,7,7,-7,-6,-12,-5,-5,-6
9324,15,2,7,-8,-5,-13,-1,-1
9326,-12,-14,-6,2,23,31,-4,1
9326,3,30,5,2,-13,-16,12,-4
9339,3,24,-1,-2,-7,-33,2,14
9339,-15,-8,1,-6,-4,-9,-5,-7
9346,7,14,2,16,11,21,7,0
9346,-8,-15,-2,4,1,15,-6,-5
9361,9,7,3,11,7,-6,-6,-1
9361,-6,-5,-12,-21,-28,-34,-10,-7
9367,-4,11,0,-15,-5,-14,-5,-1
9367,-6,-8,-1,5,0,5,-5,-3
9386,1,-20,3,0,7,19,12,10
9386,-4,1,0,-1,3,3,5,3
9390,5,8,1,-6,-3,9,-10,-7
9390,-15,-8,-2,3,5,-17,27,4
9399,9,-10,1,-1,0,19,-9,-3
9399,1,1,-3,-6,-7,-41,-9,-2
9406,-11,-11,3,11,-1,11,4,1
9406,-2,1,3,-9,14,7,1,-2
9421,-19,1,-2,16,-7,-21,-4,-3
9421,-12,-22,-6,0,-20,-4,-2,-6
9424,21,28,6,-2,15,11,3,1
9424,3,-5,-2,-10,-7,2,-2,-5
9444,16,8,-4,-9,2,20,9,12
9444,-8,2,4,14,16,-6,-13,-9
9446,-8,-10,-3,-6,-21,-15,6,2
9446,1,-3,-2,-16,-7,0,-6,-5
9459,-9,-3,-8,15,5,-7,3,1
9459,7,18,3,2,4,27,5,2
9465,-2,-6,-2,-7,-3,-21,-24,-8
9465,4,-5,-4,2,-4,-7,-7,9
9481,2,6,4,-3,3,3,-2,-5
9481,1,4,1,-2,9,20,13,-8
9484,4,2,-5,0,-9,-13,-5,13
9484,-6,-5,3,-2,-3,-16,-5,-4
9504,0,-8,-6,-5,0,9,10,3
9504,1,-6,-4,0,-10,-16,-9,-3
9506,-3,5,2,-26,0,11,0,-5
9506,-4,-4,-7,28,5,11,9,4
9518,-6,-11,-1,5,4,-1,-3,-2
9518,3,11,1,-6,2,2,-8,3
9525,-8,-12,3,6,-4,1,2,-2
9525,-3,16,-4,-6,-1,-1,4,4
9557,-5,-15,0,6,13,5,-1,-9
9557,-9,1,-3,1,-8,8,10,12
9559,7,5,1,-5,-20,-30,-20,-6
9559,2,-1,-2,-6,0,-4,-20,-8
9580,2,-1,0,-2,4,14,17,7
9580,8,7,2,-9,3,-2,-4,-2
9582,1,-10,3,12,13,16,23,-3
9582,-11,9,-7,7,-9,-16,-13,-7
9582,-6,10,1,-9,-9,9,-3,-7
9582,7,-6,0,4,1,-18,-10,1
9595,-8,-3,-2,-7,-1,32,1,3
9595,-3,-21,-2,-4,5,-19,-5,2
9601,-1,-2,0,3,-12,-6,8,0
9601,0,7,-1,1,4,4,-3,-5
9604,-8,-9,-7,-19,-4,-14,-5,-6
9604,-1,-4,8,8,6,20,4,1
9625,5,11,-7,9,11,6,2,3
9625,-7,6,8,4,-16,-10,10,-4
9626,4,-7,-1,4,-2,-7,-7,1
9626,1,7,-3,-15,-2,3,5,2
9638,6,1,3,-7,-8,-6,-23,-15
9638,6,-1,-5,7,13,20,20,21
9646,-10,-5,-1,11,6,-19,5,1
9646,10,1,2,-2,-11,1,9,0
9662,-3,3,3,-10,-16,-25,-18,-2
9662,-8,-7,-8,-3,16,43,-4,-9
9663,-3,-2,3,8,4,-18,11,-1
9663,-9,-17,-8,-10,0,-8,-16,-3
9684,-1,7,0,-6,-19,-19,-5,-4
9684,10,18,-2,3,-10,-14,3,-2
9686,-30,0,-3,7,15,21,1,-1
9686,33,2,4,7,9,26,7,8
9707,-1,-23,-7,-11,3,-8,3,2
9707,1,5,5,-8,-4,-11,-8,-6
9709,7,-1,-8,3,-5,-1,0,1
9709,-5,10,-2,-6,0,4,-2,-7
9729,-14,-4,5,-8,-1,6,3,2
9729,10,5,-7,1,6,-3,-1,0
9731,4,8,0,-1,-2,12,0,3
9731,11,-6,2,8,1,-2,8,-1
9760,1,-8,-3,0,-4,-10,-9,2
9760,-16,-9,2,-3,2,15,-12,-9
9762,11,11,3,2,-22,-61,-3,0
9762,-10,1,-3,-2,5,3,-6,6
9763,4,6,1,1,7,17,-1,-6
9763,-8,-20,-5,-22,-11,-17,-7,5
9767,3,0,-2,10,16,34,7,-6
9767,-7,-2,4,7,6,11,6,-2
9782,6,10,5,5,1,-11,4,-4
9782,-19,-10,-13,-16,-19,-19,-8,-2
9783,-4,-6,0,-8,-5,-5,-3,1
9783,-14,5,-1,2,4,-1,7,-2
9804,-2,-1,-2,-1,-3,-1,-9,-5
9804,4,3,5,9,7,1,-3,-7
9806,8,-3,1,-8,3,26,-1,0
9806,25,4,-8,2,-10,-21,6,9
9818,-9,4,-3,-8,4,4,-10,-3
9818,8,4,0,5,-10,-10,1,2
9834,-10,-20,-5,-1,-1,-11,-7,-3
9834,3,7,2,-8,-4,3,3,-4
9841,6,-2,2,-1,6,20,-2,5
9841,5,-6,-1,11,-5,-26,8,-2
9844,-11,-1,3,0,3,7,-11,6
9844,-12,-6,-4,-6,-6,6,-1,-8
9864,7,3,-1,6,1,-8,1,8
9864,-8,3,0,2,7,18,3,-10
9865,12,2,2,-14,-9,-1,11,0
9865,-5,6,-4,3,-6,-22,-18,-3
9878,-7,-6,-3,10,-3,-1,-13,-5
9878,5,-24,3,12,14,20,7,10
9895,17,7,2,-3,-3,-22,-5,0
9895,-1,0,-2,-5,-14,0,9,4
9902,-17,-7,-5,-7,3,4,-16,-9
9902,-12,1,2,1,0,-6,12,3
9903,5,4,-5,7,3,21,7,0
9903,0,-14,0,-4,0,-28,-11,0
9925,3,3,0,-3,-5,-13,-5,-5
9925,0,-2,-2,-3,-1,9,7,-1
9926,-10,-8,-6,-5,1,8,-7,-4
9926,-8,24,6,-6,4,19,10,1
9938,4,-6,1,0,-3,12,-4,-5
9938,8,12,-2,-7,-13,-57,-13,11
9947,-7,-8,-13,6,1,7,-4,-8
9947,4,2,2,-1,8,13,-1,-2
9962,-4,-6,-5,-1,7,-21,7,5
9962,13,7,3,-10,-12,13,-1,-6
9964,-8,-3,-3,-6,-14,-26,-1,2
9964,1,-9,-3,1,5,7,-14,-6
9985,-14,1,-1,-3,1,18,25,-2
9985,10,2,1,2,16,24,-16,0
9986,-14,-10,-7,7,-2,-14,-8,-7
9986,-5,-7,0,-6,-23,-4,-1,1
9998,-4,-4,-4,2,-2,-6,9,-3
9998,6,-6,-1,-5,4,-9,-15,-2
23,2,7,4,-11,-5,-1,-1,4
23,-1,3,-1,6,13,13,12,-2
24,-2,-11,-1,12,0,7,13,4
24,-1,28,-2,-1,-1,6,-4,1
28,18,7,4,4,6,6,2,-2
28,-1,-5,1,-11,-12,-12,-1,-2
44,11,0,-1,-2,-8,-20,-6,0
44,-16,-10,-1,7,7,17,4,-6
51,-4,10,1,-13,-1,-17,0,-4
51,-12,-6,-5,12,-1,-13,-9,0
69,6,-1,0,-1,-1,8,-10,0
69,-9,-9,3,0,7,-10,4,-1
70,1,4,-2,-4,-11,-5,0,-5
70,5,-2,-2,5,12,34,0,-3
90,1,-3,4,-1,-2,-20,-1,13
90,0,4,-5,-4,-14,-10,-5,1
91,-7,-7,0,-1,-2,3,-7,-2
91,-1,-1,-4,-1,12,6,2,1
104,-3,0,-1,4,1,18,-4,-10
104,-12,2,2,-5,-13,-18,1,-2
106,-3,-4,-1,6,2,7,8,5
106,1,-6,7,-8,7,4,-5,-1
127,-11,-1,-10,-2,0,11,6,-1
127,0,-18,-4,-2,-12,-19,-8,-2
129,4,12,1,6,3,1,0,0
129,1,-15,-1,-2,8,33,-15,-2
142,4,11,6,-7,5,-28,11,-1
142,-17,-10,-6,-8,-9,21,10,-2
143,-7,-15,-5,11,4,-30,-15,-5
143,4,-2,-1,-3,-16,-27,-2,10
164,-1,-4,1,0,-3,13,-5,0
164,-1,-2,-2,-2,13,10,4,-3
166,11,4,3,1,3,19,12,-3
166,-5,-2,0,-7,-10,-12,-4,-7
187,5,2,-4,4,10,38,-6,6
187,1,-2,-5,2,-7,-61,9,-3
188,-10,2,5,-2,-14,-7,-17,-2
188,-11,-4,-12,-6,-4,-14,-10,-13
201,3,11,-3,-15,-7,2,11,4
201,1,-5,1,6,14,40,-3,0
208,16,9,5,8,10,5,17,8
208,-4,2,-5,-9,-17,-37,-6,0
224,-2,-16,-2,-1,-3,-5,-7,-4
224,9,21,3,8,25,38,12,3
226,-11,-10,1,-13,-20,-13,-8,-2
226,2,3,0,5,-6,11,8,-2
247,-7,-8,-1,-4,-5,-48,-40,-10
247,12,-12,-6,0,-6,-2,13,12
249,7,14,2,-3,9,20,6,-2
249,-2,11,2,13,9,23,14,-4
261,-3,-8,-1,-1,-7,-10,6,-3
261,-1,0,-1,2,-2,-5,-20,-9
268,-4,-5,-3,-2,6,1,7,7
268,0,-6,2,-2,-6,-6,-3,-1
284,4,6,0,-3,5,6,6,0
284,-3,1,4,-8,6,-27,-13,-6
286,-1,-14,-8,5,-22,-16,9,3
286,-8,-19,-1,1,-6,-13,-29,-5
307,2,9,-3,-2,3,-16,7,1
307,-6,-5,1,5,12,46,4,9
309,4,4,4,0,4,10,8,-4
309,-1,-2,-2,-2,-5,-28,-6,4
329,-7,-6,-3,-2,-5,16,9,-4
329,23,-8,-4,-4,-12,-19,-18,0
330,8,-2,-3,-12,1,10,-7,4
330,1,18,1,9,9,10,12,-2
344,4,5,4,-5,5,-5,8,6
344,-6,-10,-7,-6,-21,-15,-2,-8
346,0,4,-2,2,-4,-11,-15,-5
346,-4,-5,-1,-3,15,27,12,-9
367,4,14,4,6,10,21,-5,1
367,-6,5,-5,0,2,17,15,12
368,-2,-8,-6,2,-5,-4,-5,-4
368,-8,-17,-4,-19,-21,-33,-4,4
381,-2,17,-1,10,-9,-33,-25,-11
381,-7,-7,0,-6,2,18,4,1
388,-8,4,1,3,18,24,5,3
388,6,2,0,6,17,22,14,4
405,-4,-12,0,-7,-23,-23,3,-1
405,12,-1,4,4,-11,-22,-18,-2
406,-2,3,-4,-5,9,30,-1,0
406,-1,-10,5,-7,1,-37,-1,1
427,2,-5,-4,6,2,27,12,3
427,-8,-1,1,1,-4,-4,-6,-5
428,-8,-3,-4,-10,-13,-35,-6,-8
428,13,-6,-6,8,1,8,-4,0
441,6,1,-2,-7,1,7,0,7
441,0,-2,0,0,-1,-16,-1,1
448,-2,1,2,-2,7,18,3,-3
448,-4,-8,-5,0,-1,-6,5,0
464,8,1,0,5,2,5,1,-6
464,-6,1,1,1,10,38,3,-8
466,-5,-10,-6,-15,-31,-58,-23,-4
466,-11,2,-1,7,1,6,-17,-8
487,0,2,2,2,6,11,12,4
487,-1,-4,-1,3,7,2,-7,-4
488,-13,0,3,7,21,48,17,4
488,-4,11,-3,-7,-24,-43,11,6
501,-4,-25,-11,-8,-12,-11,-13,-7
501,-7,9,5,6,2,-6,-2,-7
508,15,-12,-3,1,3,3,-3,-1
508,2,7,-1,-3,5,28,7,4
525,7,1,-2,-8,5,5,6,7
525,-26,-13,-3,-8,-19,-29,-6,0
526,-11,8,-1,2,-6,-16,-21,-8
526,2,-7,-2,0,6,5,-6,4
547,-10,16,5,-1,4,8,12,-2
547,2,0,-8,3,9,-6,-5,-1
550,-5,5,0,-1,-4,1,2,2
550,5,2,2,2,3,11,10,-2
560,-8,0,-3,-2,-13,-21,-13,-6
560,-14,5,-2,-8,-1,-11,-18,-12
569,9,-8,0,-2,3,2,8,6
569,-7,0,0,0,1,12,3,-2
584,22,-1,1,-2,-3,2,-3,0
584,22,15,3,-3,-5,-3,12,10
586,-15,-10,-1,11,-1,-1,-15,-6
586,5,5,2,4,12,2,17,-1
614,-3,-4,-7,0,-6,-12,-6,1
614,6,0,-1,-7,-13,-17,-14,-5
615,2,6,-3,-5,-2,-1,11,-2
615,5,-2,1,-3,2,14,-9,1
620,-9,-1,2,8,7,2,7,-1
620,5,-3,-1,3,-3,-7,-1,2
629,1,-7,-1,-4,13,36,7,-2
629,-6,10,1,6,-1,-2,-5,-3
644,-3,-3,-3,-8,-23,-57,0,-4
644,-13,-21,-3,-12,2,13,-9,-1
646,-5,8,-2,10,4,9,10,2
646,-11,-1,1,-2,4,8,-19,-3
675,-6,-1,1,-1,1,27,6,0
675,5,-4,-3,4,-4,-16,25,4
676,-14,9,2,-19,-27,-45,-21,-5
676,-3,-6,-1,7,4,5,6,-2
680,2,-3,-4,1,3,-5,-20,-6
680,-1,5,4,5,5,35,8,0
689,1,-12,-4,1,10,-7,4,-8
689,5,18,3,-11,-14,-9,2,2
704,-2,-2,-1,-1,2,6,1,4
704,0,0,-4,10,9,14,8,-2
706,14,4,3,5,8,10,-5,6
706,-1,-13,-1,0,-14,-24,-17,-8
727,-5,4,5,-3,-3,-13,-10,-4
727,-9,-9,-5,-6,-6,2,13,5
733,25,9,-4,-5,-4,-9,9,10
733,1,3,-2,4,8,30,1,-2
749,-3,-5,-5,-5,0,-17,0,-1
749,8,5,4,5,0,-3,-17,-3
757,-2,-9,1,-3,2,0,-9,-7
757,0,-6,-7,-13,-6,8,5,6
764,2,-10,-5,9,1,4,-1,-3
764,-3,17,1,-2,-1,-15,-12,-3
766,-3,-12,0,2,-2,-4,-9,-1
766,6,16,6,-2,5,-16,13,10
787,-6,-6,-3,-3,-7,15,8,-2
787,0,-9,-1,-4,-4,-11,-2,0
788,-8,-1,-2,-10,-1,-1,-2,-7
788,-5,-11,-7,2,0,-1,0,-9
800,5,9,0,4,5,9,1,2
800,-12,-2,1,1,1,-12,-2,0
809,3,3,0,0,-2,14,4,1
809,-12,-5,-6,-7,-6,-25,-13,-6
825,-7,-4,-1,-5,-4,-4,-7,-1
825,4,-5,-5,-6,-3,7,5,-5
826,-3,8,1,10,5,0,2,1
826,-1,-11,-4,5,1,-7,-7,-7
847,-2,1,0,-2,-3,12,-3,-4
847,0,2,1,-5,-3,2,5,4
848,-6,-8,-2,-2,0,6,2,0
848,12,4,2,-5,-3,-19,-1,3
860,1,3,-2,5,9,5,-8,-3
860,3,-5,0,-4,-9,-5,1,-5
870,2,-4,-1,5,-7,-21,-4,4
870,-4,7,-2,-1,3,11,-4,-3
884,2,-1,-1,0,9,17,7,0
884,3,3,1,0,2,-10,5,1
886,-6,-7,0,0,-4,-1,5,-2
886,-2,7,-1,-2,-3,-1,1,1
907,-2,-4,0,-8,-7,4,-10,-5
907,1,1,-2,-1,-3,-17,1,2
909,-4,-2,-5,-2,-1,-10,-1,-3
909,19,-5,-2,-3,-5,4,-6,6
920,-3,-7,-11,-1,7,9,9,1
920,-6,-2,1,2,10,16,-8,-5
937,2,19,2,0,-7,-6,0,-1
937,-9,-6,1,-3,-5,-15,-7,-4
945,5,3,-2,2,6,8,-7,3
945,5,1,-2,3,11,28,10,10
946,-4,-2,1,-2,-13,-25,-8,-4
946,-5,-2,-2,-4,-9,-8,-1,5
967,-6,-1,0,-6,-5,-18,-7,-2
967,-4,-1,-3,-2,4,29,-4,-5
969,5,-4,0,2,10,14,6,3
969,-1,-7,2,3,3,0,-3,-2
989,2,0,1,-2,-8,-18,3,1
989,0,-4,-2,-2,-3,-3,-3,0
991,-3,0,-1,-2,2,5,3,-2
991,-4,-5,-3,0,4,9,2,-1
1003,1,4,1,-10,6,4,15,0
1003,1,4,1,10,-11,-30,-10,-4
1010,-4,-5,-1,3,-10,-16,-14,2
1010,-7,-3,-5,-6,-9,-9,-6,-8
1027,-1,-2,-1,2,11,14,4,-1
1027,-17,3,0,-3,5,18,3,0
1029,-7,0,-1,-4,-1,-11,1,3
1029,1,-5,-3,-1,-1,2,3,0
1049,0,1,-2,3,-1,4,0,-1
1049,5,-4,-2,-1,2,-7,-3,-3
1052,5,0,1,-1,-1,16,3,0
1052,-2,-1,-1,2,1,-1,3,-4
1072,7,-15,0,-1,-5,-5,2,2
1072,9,20,0,2,-4,-15,-6,-5
1074,4,-3,-3,-2,4,13,6,4
1074,-1,-1,-3,-4,-7,-25,-2,-4
1087,1,3,0,0,-4,-5,-7,0
1087,-3,-7,-2,-2,-2,5,3,0
1088,4,1,0,-4,-3,6,-6,-4
1088,3,-2,-2,2,10,23,4,1
1109,1,0,0,1,-8,-13,-2,1
1109,7,-4,-1,-2,-3,3,-3,-1
1110,4,1,-1,-4,-1,-28,0,4
1110,-2,-2,-1,3,-5,-5,-7,-1
1123,-6,1,1,4,16,48,5,-3
1123,-2,-3,-2,1,-7,-36,3,-4
1132,-4,-3,-1,-2,-9,7,-9,-11
1132,-3,1,-1,-7,3,2,3,7
1147,-7,1,0,-4,-13,-13,-6,-4
1147,-3,-7,-2,-5,-2,-1,-6,0
1154,-5,-3,-3,2,1,4,-2,-1
1154,0,3,3,4,3,1,2,0
1169,-1,5,0,-6,1,3,0,0
1169,-6,-3,-2,5,5,10,5,1
1171,-7,-3,0,1,-1,-35,-2,-1
1171,-4,-2,-2,0,-1,11,-2,-1
1183,1,-4,-5,-1,0,-9,0,1
1183,7,-3,0,-2,2,9,-2,-1
1198,1,1,0,1,0,2,0,-4
1198,-5,-2,-2,-4,-10,5,7,-5
1207,-13,-10,-3,0,-4,-27,-20,-10
1207,-3,16,-1,-9,-15,-23,1,9
1208,0,-3,-2,3,13,29,7,-3
1208,-2,0,-1,1,10,39,7,4
1229,2,-1,0,1,-5,-48,-4,-1
1229,-3,-6,-3,-2,0,17,-13,-2
1231,4,-1,0,2,8,22,2,-1
1231,7,0,0,-11,-9,-25,-2,0
1243,33,0,-23,-2,-6,13,3,0
1243,19,-3,12,-2,5,-4,0,0
1252,7,3,4,0,-6,-13,7,3
1252,-12,-3,-1,4,1,10,-11,-4
1267,-27,-1,-6,3,-4,-27,6,2
1267,-28,-7,-7,-6,0,27,-2,-4
1268,-13,-2,-2,-5,1,-22,0,-1
1268,-6,4,0,9,13,6,0,-1
1290,-8,2,4,-10,-17,4,-1,2
1290,2,-3,-6,-2,-5,-4,-3,-5
1291,0,1,2,-5,-6,-13,-2,2
1291,0,-2,-5,0,-5,-16,-9,-3
1303,-3,1,5,2,12,18,3,3
1303,-14,-2,0,5,17,17,8,-1
1312,0,1,-2,2,-2,10,-4,-1
1312,6,2,1,-7,-21,-62,-7,4
1327,-3,-5,1,12,-12,-6,-16,-8
1327,7,-3,-7,-13,-4,-8,3,1
1329,6,-1,-1,-1,8,27,7,1
1329,3,2,1,-1,6,20,6,-7
1349,6,3,8,2,5,8,3,1
1349,1,-10,0,8,-3,-7,-6,-4
1351,-5,11,0,6,4,17,4,5
1351,8,-1,0,-5,1,-30,0,4
1363,2,1,14,10,-5,-5,-3,-4
1363,9,-5,-3,-15,5,56,1,-7
1372,12,-5,3,-2,-6,-32,1,0
1372,0,-2,-4,-7,-16,-29,-17,-2
1387,-4,3,4,1,6,10,-4,1
1387,-9,0,1,4,-8,-28,-2,-6
1388,-5,-5,-7,-4,1,28,3,-2
1388,2,2,5,5,10,29,11,2
1410,4,-3,-7,-3,0,-4,6,2
1410,3,1,-1,0,-4,-11,-9,0
1411,-1,-5,-6,0,-9,-9,1,1
1411,-5,-4,-1,1,3,6,-7,-11
1423,8,1,-4,-7,2,21,-4,-1
1423,7,-4,5,10,16,2,24,17
1431,3,17,8,15,-8,-51,-15,-7
1431,-2,-15,-8,-7,-16,-2,-16,2
1447,-3,-4,-5,-8,-3,-12,-11,-2
1447,0,-2,-2,-5,-3,6,1,-4
1448,0,-4,-1,1,8,22,4,-2
1448,2,2,-2,-2,8,10,8,-2
1470,-4,-1,-20,-5,-2,5,3,-3
1470,0,5,21,6,-3,-18,-5,3
1471,-8,-6,-5,-10,-3,20,2,-1
1471,-4,3,-2,-1,-9,-25,0,-2
1500,-4,-4,-1,-4,1,2,0,-4
1500,-3,2,-7,2,3,5,-3,-3
1500,-1,-6,-10,-21,0,12,2,3
1500,3,-1,13,9,0,5,5,7
1506,-3,1,6,8,-6,-25,-13,1
1506,-11,-3,-8,-3,-7,-11,-8,-6
1506,-2,-3,3,-5,5,7,-5,-3
1506,3,3,-10,-2,9,31,10,1
1529,3,0,3,-3,3,-15,9,2
1529,0,-2,-6,-4,-6,-5,-6,-4
1529,-1,-6,-4,0,4,3,-3,-3
1529,-2,2,0,2,-3,-23,-1,1
1551,1,3,7,1,1,13,1,-2
1551,3,2,-5,-5,-2,-4,-2,7
1552,3,-5,13,-14,-5,-18,-2,4
1552,-12,-6,-8,1,2,19,-4,-8
1567,-7,2,8,-9,4,4,6,-2
1567,1,-1,1,-4,-7,-18,-2,-2
1568,-5,-4,-8,2,-3,-2,-3,-3
1568,-1,-7,4,3,6,9,-4,0
1590,2,1,-9,0,4,3,2,7
1590,-2,-2,-3,7,-8,-9,-5,-3
1590,-2,0,-1,-1,0,-3,-3,-2
1590,-3,3,1,-5,0,3,0,-5
1611,-2,1,-6,1,-1,2,3,-1
1611,0,3,-2,0,-4,1,0,1
1612,-6,-3,-5,1,-4,-5,-4,0
1612,1,6,-5,-8,1,14,1,2
1626,-15,-9,3,5,-1,-24,0,-3
1626,-1,-10,-3,2,-2,-5,4,4
1626,9,17,2,1,-3,-3,-1,2
1626,3,3,1,3,-3,-7,-3,-3
1656,-5,-5,1,-5,2,17,-1,-6
1656,-13,1,-11,6,3,-1,1,-6
1657,0,-4,4,-17,-3,-12,-1,-5
1657,1,-10,-2,12,2,9,2,5
1671,7,0,-16,2,-1,3,1,6
1671,-4,-2,25,1,0,-6,-3,0
1672,-5,-5,-1,5,0,6,-2,-4
1672,-2,5,-5,-13,-6,-5,-6,-5
1686,7,4,11,-7,-1,-1,-4,-4
1686,2,-2,-7,6,-1,-6,-3,-2
1687,-8,-5,-3,5,2,1,-3,-2
1687,0,3,12,1,-1,-4,0,-3
1709,-1,-1,-6,-2,-1,-3,2,-3
1709,9,-6,-7,-13,-4,3,3,3
1709,-1,-5,1,-4,-1,-2,1,3
1709,0,-4,-2,4,-1,-4,-2,-1
1731,-9,-7,-16,-14,-2,5,-5,-8
1731,7,-3,-6,-15,-4,-4,-3,-5
1732,-1,-1,4,25,4,-2,5,7
1732,16,29,0,7,6,0,1,8
1746,4,4,10,6,0,6,-3,5
1746,-8,1,6,-8,-2,-2,-5,-6
1746,-18,-12,-21,-19,-10,-8,-9,-15
1746,10,-2,-22,-6,-3,1,5,6
1768,-3,-7,4,-3,-5,1,1,3
1768,-6,-11,-9,4,-1,-3,-7,-5
1770,11,23,16,9,4,3,2,7
1770,-9,-9,-7,-4,-3,-3,-4,-5
1791,-2,-2,3,-2,-3,-1,0,0
1791,-4,-5,-8,3,-1,-1,2,-1
1792,0,-3,-3,-3,-3,-3,-3,-5
1792,-7,-7,5,2,3,-1,-1,-5
1806,2,6,-4,3,4,2,2,3
1806,-1,8,19,3,2,0,-1,-5
1807,-7,-3,7,1,-3,0,-1,-6
1807,-3,-6,-15,-9,-5,-3,-1,-1
1828,3,-4,4,2,-1,1,1,0
1828,-10,6,-9,-3,-4,-2,-4,-4
1829,2,1,-5,-7,-1,2,1,-1
1829,-8,-15,6,6,-3,-3,-1,-1
1851,-1,1,-2,11,1,-2,-2,0
1851,3,6,5,-6,-4,-3,-2,-2
1852,-6,-7,12,0,-4,-4,-8,-4
1852,-4,-8,3,-6,-3,1,1,4
1865,4,1,1,-1,-3,-2,0,4
1865,3,-2,-1,1,-1,1,2,8
1873,3,1,-5,0,0,-1,-1,-4
1873,5,0,13,9,0,-1,0,0
1888,-7,-6,-8,-15,-2,-1,-1,-7
1888,4,1,-5,1,-2,-1,2,3
1890,5,-5,-11,-3,0,1,4,5
1890,-6,1,1,1,-1,-2,-6,-11
1910,-3,2,8,6,1,-4,-1,-4
1910,5,4,-11,-5,3,1,0,2
1912,6,0,3,2,1,0,0,5
1912,4,5,-12,-4,-2,-1,-1,-1
1934,-9,0,21,9,0,0,-4,-6
1934,1,-4,-2,-5,-2,1,1,1
1935,2,-1,-7,-3,-3,0,-2,-3
1935,-5,-5,-10,-5,-3,-2,-1,1
1948,-2,0,0,5,2,2,-2,-4
1948,-3,-2,-20,-1,0,0,-4,-2
1950,0,1,1,1,1,-1,1,5
1950,-1,2,2,-7,1,-2,-2,-1
1971,-11,-5,-12,-6,-1,-3,-3,-6
1971,7,3,12,5,1,-2,0,0
1972,-11,-5,-5,2,-3,-2,-1,-5
1972,-1,-2,0,-5,-5,-1,2,-1
1986,4,-2,0,-1,-1,0,0,0
1986,-4,8,3,-4,-6,-5,-10,-13
1986,1,-9,-12,1,-1,-3,-3,-6
1986,5,-3,-1,-1,0,5,6,8
2008,-4,-6,-17,-2,-2,-1,0,1
2008,-10,-2,24,3,-1,0,2,0
2009,3,3,3,-1,-3,-2,-2,-2
2009,-6,1,2,1,-2,-4,-3,-6
2030,12,4,-10,-5,-2,-1,1,5
2030,0,-2,-6,0,0,-1,2,5
2032,-4,2,1,1,1,-2,-3,-2
2032,3,1,2,-2,1,0,0,0
2046,4,-1,1,-2,-2,-2,0,3
2046,-4,-4,-1,3,-3,-2,0,-3
2047,-6,1,-16,-23,-8,-3,2,-2
2047,15,-4,8,8,3,1,4,4
2069,3,11,22,21,8,4,0,2
2069,0,-4,-7,0,-1,0,-4,2
2070,-6,-4,-3,-2,-1,-1,-4,-1
2070,-12,0,-8,-13,-8,-8,-8,-11
2091,-4,-3,-3,-9,-4,-3,1,-5
2091,3,-2,2,2,1,2,2,3
2092,3,-1,-16,-1,3,5,3,5
2092,-11,-6,3,3,-1,2,-4,-7
2114,-5,-3,-2,-3,-2,-2,-2,-2
2114,-3,3,-5,-5,-4,-1,-1,-6
2115,8,3,3,-4,-2,-2,0,-2
2115,2,-2,6,21,9,7,10,9
2129,0,-1,-11,-9,-2,-1,-4,0
2129,2,-5,3,1,2,1,1,0
2129,-2,15,15,11,2,-4,-4,-3
2129,0,3,-2,-5,-3,-5,-7,-3
2159,0,-2,-2,-2,-1,-2,0,0
2159,-2,-9,-18,-14,-7,-4,1,-1
2159,7,6,15,6,-2,0,5,0
2159,-2,-5,-1,3,0,-3,-2,-1
2166,-2,-7,-4,-7,-2,-2,0,-3
2166,0,-2,-4,-1,2,1,1,-2
2167,1,0,20,1,2,0,2,-6
2167,3,5,1,-3,1,0,0,1
2204,-5,-5,-5,-1,2,2,-1,1
2204,-10,7,-8,-4,-1,0,1,-1
2205,-4,-9,13,5,2,1,0,-2
2205,-8,-10,-23,-10,-5,-3,-1,-5
2211,2,29,24,5,1,1,-1,-20
2211,-2,-6,19,20,17,-4,-12,2
2212,16,6,-7,-11,-10,11,23,84
2212,-13,-15,-11,-18,-5,-5,-13,-44
2226,18,8,-20,29,20,4,16,69
2226,-4,1,4,-67,-56,-8,-6,2
2226,0,3,-54,-29,-29,-7,-10,-12
2226,-4,-6,3,-30,-13,-8,-17,-47
2249,2,-4,6,-10,2,-6,2,46
2249,6,-4,5,26,20,3,18,65
2249,11,-3,3,11,11,0,1,4
2249,2,3,-16,5,-1,1,10,11
2272,-13,-12,13,-1,-1,-4,-10,-43
2272,-3,-5,-5,10,6,-5,-5,4
2272,-6,-2,-3,0,4,0,7,-21
2272,0,9,10,19,11,3,-17,-45
2286,9,1,5,-1,-3,0,-1,-29
2286,3,6,-9,-1,-6,0,2,-7
2287,-10,-8,9,2,4,-7,-6,-6
2287,4,4,8,3,-1,-1,3,17
2308,-21,-9,-17,-13,-13,-2,-7,-36
2308,-1,-6,-1,-3,3,1,-14,-99
2309,17,3,2,10,9,4,8,46
2309,-3,4,7,6,2,8,22,29
2331,-2,-1,-5,-4,-7,1,-1,-3
2331,-14,-3,-5,6,1,-3,-10,-19
2332,-16,-8,8,4,2,-4,-19,-39
2332,3,1,1,-1,-4,-1,-2,9
2354,-4,-4,1,-5,-3,-2,-6,9
2354,11,2,1,3,3,1,7,-12
2355,-7,-5,-6,0,-1,0,-4,-19
2355,2,1,4,0,-1,-3,8,25
2368,0,-5,-5,-2,-3,-4,-8,-18
2368,2,4,1,6,7,5,-31,0
2370,-13,-1,-1,0,-1,0,12,-18
2370,1,-3,-6,-2,-4,-10,24,12
2391,3,-7,-5,-1,0,3,11,-8
2391,0,-4,-1,0,0,0,3,10
2392,0,-4,2,1,0,0,-18,-20
2392,10,23,10,6,3,3,-12,-5
2407,-2,-5,-2,-2,-5,-3,0,-2
2407,6,0,0,-1,-1,1,6,12
2407,-2,-2,-1,1,-2,-4,-6,-11
2407,-7,-7,-1,-1,-2,-1,1,6
2429,2,0,-3,-4,-4,0,0,7
2429,-4,0,0,2,1,0,4,0
2429,-1,-3,0,-1,-1,-3,-3,-1
2429,-4,-4,-3,-1,0,-3,-4,6
2451,-3,0,-2,-2,-1,-1,-1,3
2451,1,0,-1,0,1,-2,2,4
2452,-1,-2,-4,-1,1,-3,-1,2
2452,-1,-3,-1,-1,0,1,-7,0
2466,-3,-1,-1,-2,-2,-2,0,-5
2466,2,3,-1,0,0,-1,11,7
2466,1,0,-1,-1,-1,-3,3,-2
2466,-2,-3,-1,0,1,0,-2,-5
2488,2,-1,0,1,0,-2,2,-1
2488,-3,-2,-3,-2,-1,-1,3,3
2489,-3,-1,1,-2,0,0,-3,-1
2489,-6,-4,0,0,-3,-2,-6,-4
2511,1,1,0,-1,-1,0,-2,0
2511,-8,-3,-2,0,-2,-1,-6,-3
2511,14,2,-1,0,-1,-1,-1,-3
2511,-3,0,-1,-1,-1,-2,-3,1
2526,-2,0,-2,-3,-3,0,-2,0
2526,-3,1,0,0,1,-1,3,-3
2533,-6,-3,-1,-1,0,-1,-3,-4
2533,-1,1,-1,-2,-2,-2,-1,4
2548,2,1,-1,-2,0,1,-1,3
2548,1,-1,0,-2,0,-2,2,-1
2549,-4,-3,-1,-1,0,-4,-1,-3
2549,3,1,2,-1,-1,-1,-3,0
2571,8,1,-1,0,0,-4,-2,0
2571,1,-4,-1,-1,-2,0,-1,-3
2572,-2,-2,-3,2,0,1,-1,-4
2572,-4,-3,-1,-1,-1,0,-3,-3
2585,-4,0,-1,-2,-1,-2,-2,1
2585,0,1,-1,-1,-2,-2,8,5
2593,-2,1,0,-2,-2,-3,-2,-2
2593,-1,-4,-1,0,-1,-1,1,-2
2608,-2,-4,-1,0,-1,0,-1,-2
2608,2,-2,0,-1,0,0,-2,-2
2624,-4,-1,-1,-2,1,0,-3,-3
2624,-2,-2,-2,-2,-1,-1,-3,-4
2631,-2,-1,0,-1,-4,1,-2,-1
2631,-2,-2,-1,1,-3,2,0,-3
2632,0,-2,-2,-1,-3,-1,-3,-1
2632,2,0,-1,0,-2,0,-2,0
2654,2,-1,-3,-1,1,-3,-1,2
2654,1,0,-2,-1,-2,-1,0,1
2655,-3,-1,-1,-1,-3,0,2,0
2655,2,2,-1,1,-1,-1,2,-1
2669,-1,0,0,1,-3,0,1,-3
2669,0,1,0,-1,1,-1,1,-1
2670,0,0,-2,-2,0,1,-1,-2
2670,-1,0,0,-2,0,-2,-3,-2
2691,-5,-1,-1,-3,-1,-2,-1,-3
2691,0,-2,-1,-2,-2,-2,0,0
2699,-2,-1,0,-1,-3,-2,0,0
2699,-1,-1,-1,-1,-1,-2,2,0
2715,2,1,1,-1,-1,-2,-4,0
2715,-3,0,-2,-1,1,-1,-5,-3
2715,-5,-1,-1,-1,1,-1,-1,0
2715,-6,-3,-3,0,-2,0,-1,0
2729,-3,-2,-1,1,0,-1,0,1
2729,-3,-1,-1,1,-1,-3,-1,-1
2729,-5,-4,-2,0,0,0,0,-2
2729,0,-1,0,-1,-2,-1,0,-1
2751,6,-1,0,-1,-1,1,3,0
2751,5,-1,-1,-2,-1,0,-1,-1
2752,12,2,-1,-2,2,2,-3,0
2752,0,-1,-3,-1,1,0,-2,-2
2765,-4,-2,0,-1,0,-1,6,4
2765,-5,1,-1,-2,0,-1,0,1
2774,-5,-2,-1,0,0,-3,0,0
2774,1,1,1,-1,-2,-1,-1,-2
2789,-2,0,-2,-1,0,-2,0,-2
2789,1,-1,0,-2,-2,0,-1,0
2790,0,0,-2,-1,-4,1,-3,-4
2790,2,-2,-1,-2,1,-2,-9,-4
2811,-2,-2,0,0,-1,0,4,-3
2811,-2,-1,-1,-1,-1,-3,-3,-1
2812,-3,-1,-1,-1,-2,-2,3,-2
2812,-4,-1,-2,0,-1,-3,1,-1
2834,1,0,-2,-1,0,-3,-7,-3
2834,2,0,-2,0,-3,-1,-1,-1
2835,0,-1,-1,0,-1,-2,0,-2
2835,-5,-2,-1,0,1,-1,0,-2
2849,3,0,-2,1,0,-1,2,0
2849,-2,-2,-3,0,0,0,-5,-2
2850,-2,0,-1,-1,-3,-1,-1,-2
2850,0,0,0,-2,-2,-1,1,1
2871,-5,-3,-2,-2,0,2,-4,-4
2871,-2,-2,0,0,0,1,-1,-1
2878,0,-2,-1,-3,-2,0,-5,-1
2878,1,0,0,0,-3,-1,-2,0
2895,-1,-1,0,0,-3,-2,0,-1
2895,-1,-3,-1,-3,-2,-2,-2,-1
2898,6,0,1,0,-2,-1,-1,0
2898,4,-1,-1,1,-2,0,1,0
2901,-1,-1,-2,-1,-1,-3,-3,-3
2901,-2,-2,-1,1,0,0,-2,-1
2910,-5,-2,-2,-2,-3,0,1,0
2910,-1,-2,-1,-2,-1,-1,3,1
2923,-1,0,0,-1,-2,0,-2,-3
2923,2,0,0,0,-1,-1,3,-4
2931,-1,-1,-1,-1,-1,-4,-1,2
2931,-2,-2,-1,-1,-1,-2,-6,-1
2939,-3,-3,-1,0,-2,-2,-3,-1
2939,-2,0,-2,1,-1,-1,-1,-2
2946,-2,0,-3,-2,-1,-2,-2,-1
2946,-1,1,-1,-4,-1,-1,2,-1
2961,0,1,-3,-3,-1,-1,-1,1
2961,-1,0,-2,-4,-3,0,2,1
2968,2,0,-1,1,-3,-1,0,-1
2968,-2,-2,-4,-1,-2,-4,1,-1
2983,-3,-2,-1,0,-1,-3,-2,1
2983,1,-1,-3,-1,0,-3,-1,-1
2989,-5,-1,-3,0,-1,0,-3,0
2989,0,-1,0,1,-2,0,-3,-1
2999,1,1,0,0,-3,-2,-4,-2
2999,3,1,0,0,-2,-3,1,-4
3005,-4,-1,-1,-1,-1,-2,1,-5
3005,-1,-1,-1,0,-1,-2,2,-5
3019,0,-1,0,1,0,-2,2,-3
3019,-3,-1,-2,-2,0,-1,1,0
3028,-2,-1,0,0,2,-3,-2,2
3028,-5,-3,-2,-1,-2,-1,-1,2
3042,5,1,0,-1,-2,-2,-1,5
3042,0,0,0,-2,-1,-1,2,2
3051,-2,-1,-1,-1,-2,-1,4,4
3051,-2,-1,-2,-2,0,4,7,5
3059,-4,-1,0,-1,1,4,-1,-1
3059,0,3,0,1,0,-1,-1,-2
3065,2,1,1,1,3,-3,-2,-4
3065,3,1,0,-2,0,-2,-3,0
3081,-1,-2,-1,-3,1,0,1,0
3081,-4,-3,0,-2,-3,-1,-2,-1
3088,-2,1,0,-2,-1,1,2,0
3088,-2,0,1,-1,-2,-2,-2,-6
3103,-4,-2,0,-2,-2,-3,2,-1
3103,-1,-3,-1,-1,-2,-1,-3,-3
3110,-1,-4,-1,-1,-1,-1,-1,0
3110,0,-2,-1,0,1,-1,0,-2
3126,-1,1,-3,1,0,2,-3,-2
3126,1,0,-3,0,1,0,0,0
3126,1,1,-2,0,0,0,0,-1
3126,0,-1,0,-2,-2,-2,0,0
3141,-3,-1,0,-1,-1,-2,-7,-4
3141,-1,0,-1,0,0,0,-2,1
3148,0,0,-1,-1,-3,1,-2,1
3148,0,0,-1,-2,-1,-2,-4,0
3163,1,-1,-2,-1,-2,-3,0,0
3163,-4,0,-1,-2,-1,0,-2,-1
3171,-1,1,-1,-2,0,1,-3,-2
3171,-2,-2,0,-1,-1,0,1,0
3186,-1,0,-1,-1,-2,-3,1,0
3186,1,0,1,-1,-1,0,0,1
3187,-2,-3,-2,0,1,-1,-2,-1
3187,-2,-1,-1,1,0,-1,-2,-3
3201,1,-1,1,0,2,-1,2,-3
3201,-4,-2,1,-1,-1,-2,0,-1
3208,0,-3,-1,-2,-1,-3,-2,-2
3208,2,2,0,0,-2,-1,-2,2
3224,0,1,0,0,-2,-4,1,0
3224,1,-1,-2,0,0,0,-1,-2
3230,-2,-2,-1,-1,-1,2,-3,-3
3230,-1,-3,-2,0,0,1,-4,-2
3246,0,-2,-2,-1,-4,1,-1,-2
3246,0,0,0,-2,-2,0,-2,-2
3254,1,1,0,0,0,-1,-2,-2
3254,2,1,1,1,1,-1,0,0
3260,-6,-1,0,-1,0,-2,2,1
3260,-1,-2,0,0,-1,0,-1,1
3268,0,0,-1,-1,-2,-2,0,0
3268,2,-1,-1,-4,-2,-1,0,-2
3283,-3,-3,-4,-4,-1,0,-3,-1
3283,-1,1,-2,-3,0,0,-3,1
3290,1,-1,-2,-2,-2,-1,-1,-1
3290,-1,-2,-2,0,-1,-2,-3,-2
3314,-1,-2,-2,-3,-1,-3,-4,0
3314,-3,-2,-2,0,-3,-2,3,1
3315,-4,-3,-1,-1,-1,-1,1,2
3315,3,-1,-1,0,0,1,-3,0
3320,-2,-3,-1,0,0,2,-3,2
3320,-3,-3,-1,1,-1,0,-2,-2
3336,-1,-1,-1,-1,0,-2,-1,-2
3336,-3,-2,-3,0,-2,-2,1,-1
3351,-2,1,0,-1,-1,-1,-2,-1
3351,4,1,-2,-3,-1,-3,-2,1
3351,-1,0,0,0,-2,-2,-2,0
3351,-5,-3,0,-1,-2,0,-3,-1
3366,1,0,-1,0,-1,-1,-2,-2
3366,-3,-1,-2,0,-1,-3,-2,-5
3367,-2,-3,-1,-1,-3,-1,4,-2
3367,-2,-1,-2,0,2,-1,-2,-2
3380,-3,-4,-1,1,0,-1,-3,-2
3380,-9,-3,-2,-1,-1,1,1,1
3388,6,3,1,-2,-1,-2,-1,3
3388,-2,2,-1,-2,-3,-2,4,0
3403,-1,-1,-1,-3,-2,-1,4,-1
3403,1,0,-2,-1,1,-3,2,-4
3410,-4,-3,0,-1,0,-3,-2,-2
3410,-3,-2,2,0,-2,-1,-4,-1
3434,0,0,-3,2,-1,-2,-6,0
3434,1,0,-2,-1,-2,-2,-2,-4
3434,-1,0,-4,-1,-2,0,0,-8
3434,-1,2,0,0,0,-3,-1,-3
3440,-2,-1,-1,1,0,1,0,-3
3440,-1,0,2,0,0,2,-3,-2
3448,-1,-2,-1,-2,-3,1,-3,0
3448,7,1,-3,-1,-1,-1,1,2
3463,1,-1,-1,-1,-1,-2,1,2
3463,-2,-5,0,-1,0,-3,-3,1
3471,-1,-1,0,0,-1,-1,-4,2
3471,-3,-3,-3,-1,-2,-1,-3,2
3486,1,1,-1,-2,-1,1,-2,4
3486,2,0,-2,-3,-1,0,-1,3
3486,-3,0,-1,-2,0,1,-1,-1
3486,-2,-2,0,-1,1,1,1,-1
3500,-3,0,-1,-2,-2,1,0,-1
3500,1,1,0,-1,-2,-1,0,1
3508,1,0,-2,0,0,-2,2,-2
3508,-1,0,-3,0,1,-3,2,-2
3531,-2,-2,0,-2,1,-2,2,-3
3531,-3,-2,-2,1,-4,0,3,-1
3532,0,0,0,1,-1,-2,1,1
3532,-2,-2,-1,-1,-2,-1,-2,0
3546,-2,-3,-2,-2,0,-1,-3,-5
3546,-1,-2,-1,-2,0,-1,0,-3
3547,-2,-3,0,-2,-1,-2,2,-4
3547,-3,0,-1,-2,-3,-2,-1,-1
3560,0,-1,-2,0,-4,0,-1,0
3560,5,2,-2,0,-2,-2,-4,-1
3568,-2,0,-1,0,-1,-1,-4,-2
3568,0,0,0,1,0,1,-3,-2
3591,1,0,-1,-1,1,-2,-1,0
3591,-2,-4,-2,0,-2,-1,3,3
3592,-1,-1,0,-2,0,0,2,0
3592,-2,-2,1,-1,0,1,2,1
3606,-2,1,2,0,3,2,3,0
3606,3,-1,1,2,3,1,1,0
3607,1,0,-1,-1,-1,-2,-2,-1
3607,-3,1,0,-3,0,-3,0,-1
3620,0,-1,-2,-1,-1,0,-1,0
3620,-3,-1,-2,-1,0,1,0,-3
3628,-3,0,-1,-2,-2,-2,-2,-1
3628,4,2,-1,-1,0,0,-3,0
3653,1,0,-1,-1,-2,-2,-2,0
3653,0,0,-1,-2,-1,-2,-3,1
3653,-1,-2,-1,-1,-1,0,0,0
3653,0,-2,-2,0,-1,-1,-7,-2
3666,-1,-2,-1,-2,-1,-4,-9,-2
3666,-4,-2,0,-2,-3,-4,-4,-5
3666,2,-2,-1,-2,1,-1,-2,1
3666,-1,-1,-2,-1,0,2,4,-4
3681,1,1,-1,0,0,2,6,-1
3681,-4,-2,0,0,-1,1,3,0
3688,-5,0,-1,-1,-1,-1,2,2
3688,-1,-3,-2,0,-1,0,1,2
3703,0,-2,-1,0,-1,-1,1,-1
3703,-1,0,-1,-2,0,0,-3,-2
3710,0,-1,-1,0,-2,0,-1,-1
3710,0,-1,-1,1,-2,-1,-1,-3
3726,1,2,0,0,-3,-1,-2,0
3726,4,0,0,0,-3,-3,-1,1
3727,3,0,-1,-1,-2,-1,0,-2
3727,-3,-2,-2,-3,-2,-3,-2,-3
3742,-2,-2,-3,-1,0,0,0,-1
3742,-1,-2,0,-2,1,-1,-1,0
3748,0,-2,-1,-1,0,0,-2,-1
3748,-3,-1,0,-2,0,-1,0,-1
3763,-1,-2,-1,-1,-1,-2,-1,-3
3763,5,-1,0,0,0,1,-1,0
3770,-3,0,0,1,-3,1,-1,-2
3770,-5,-2,-2,-1,-3,-1,-1,-2
3809,-3,0,-2,-1,0,0,-1,0
3809,-4,-1,-2,-1,0,0,-1,-1
3810,-2,-1,-2,-2,1,-1,-2,-1
3810,-2,-1,1,1,0,0,-2,-1
3816,2,0,3,-1,-2,0,-1,0
3816,-2,0,-1,-1,-1,-1,-3,-3
3818,0,-2,-2,-1,-1,0,-3,-2
3818,6,-1,0,-2,0,-2,4,3
3832,3,-2,-2,1,-2,-3,2,1
3832,0,-1,-1,0,-3,0,4,2
3832,0,0,0,-1,-2,0,-2,2
3832,-2,-2,0,-2,-3,-2,1,1
3854,1,-2,2,0,1,-3,-5,-2
3854,-4,-1,-3,-2,-1,0,-4,-4
3854,-10,-5,-6,-2,-2,-3,-2,-2
3854,0,1,-2,-1,-1,0,1,-5
3877,-1,-1,-1,-3,-4,-1,11,0
3877,-1,-2,-1,-1,-2,-2,3,-1
3877,-6,-2,0,-2,-2,0,-6,-5
3877,-1,-2,1,-1,0,1,-10,-2
3891,-5,-1,-1,0,-2,-3,7,1
3891,-3,-1,-2,-1,-3,-4,3,3
3892,0,0,-1,1,0,1,3,1
3892,-3,0,-4,1,-1,1,-2,-2
3915,1,0,0,-3,1,3,-9,-5
3915,6,1,0,0,0,-1,-4,0
3915,5,0,2,2,0,-3,3,1
3915,0,-1,0,0,0,-1,-4,-2
3937,0,-4,-1,0,0,-2,0,1
3937,-4,-3,-1,0,-1,-2,2,-2
3939,5,2,0,-1,1,-1,-1,0
3939,2,-1,0,-1,-2,-1,2,1
3951,-4,0,-2,-1,-1,-1,-3,-4
3951,-2,1,-1,-2,-1,2,-3,-2
3951,2,1,0,1,-1,0,-18,-7
3951,-3,-1,-1,-1,-1,0,22,3
3975,-3,-2,-2,-1,-1,-2,6,3
3975,-10,-2,-1,-2,1,-1,-1,-2
3975,2,0,-1,-2,-1,-2,3,0
3975,-7,-1,-1,-1,-1,0,-15,-4
4004,1,-1,0,-1,0,0,-8,0
4004,-1,-2,-1,-1,0,-2,-1,-2
4005,-6,-3,-3,-3,-3,-2,0,-3
4005,11,2,-1,-1,0,-1,0,1
4011,-5,-1,-2,0,-1,0,-4,-3
4011,7,3,1,-1,-3,1,-17,-2
4012,-1,1,0,-2,0,0,16,6
4012,-1,-3,-3,-2,-3,-3,-1,2
4034,0,-1,-3,-1,-1,0,0,0
4034,1,-3,2,0,0,-1,-3,-1
4035,-4,-2,-2,-2,-1,-4,0,-1
4035,-5,-3,0,-2,-1,-2,-5,-3
4056,1,-2,-1,-2,-1,-3,-12,-8
4056,1,-1,-1,0,0,0,17,5
4057,-7,-3,-3,0,-1,0,-1,0
4057,6,1,-1,0,-2,-1,0,6
4072,-3,0,-1,-1,0,-2,-3,-8
4072,-2,-1,-1,-1,-1,0,-4,-3
4072,-4,-1,-3,-1,-3,-3,2,-2
4072,-3,-1,-1,0,0,3,2,-4
4094,3,0,0,1,-1,0,-4,3
4094,0,-3,-3,-3,-2,-1,1,-1
4095,2,0,2,1,0,-1,2,-5
4095,-1,-1,0,-1,-2,-1,0,2
4117,-2,0,0,0,0,3,5,1
4117,1,-1,-1,-3,-3,-2,1,1
4118,-3,-1,0,1,-1,0,-22,-1
4118,-1,1,0,0,-1,-1,0,-1
4130,-5,-1,0,-1,0,-2,4,-1
4130,-6,0,-2,-1,0,0,3,1
4132,10,3,1,-1,-1,1,10,4
4132,-2,0,-3,-1,0,-2,-6,-3
4154,-8,-1,0,-2,-2,-4,-6,-2
4154,2,2,0,0,0,-3,-9,-4
4154,1,-1,-2,-1,0,0,4,-2
4154,-3,-2,-1,-1,-1,-5,-6,-6
4177,2,0,0,-1,0,1,3,1
4177,-3,-3,-2,-1,-2,-2,-7,-5
4178,-3,-2,-2,-1,-1,-1,3,-1
4178,5,0,0,-3,-3,-2,2,1
4191,-6,-2,-3,-2,-2,-2,-2,0
4191,0,0,-1,0,-1,0,5,0
4191,-8,-4,-1,-2,-1,1,-5,0
4191,-4,-4,-3,0,0,-2,-23,-3
4214,1,-1,-2,1,-1,0,23,1
4214,6,1,0,-2,0,1,-3,6
4214,-7,-3,-4,-4,0,-1,0,-2
4214,4,2,0,0,0,3,19,-3
4237,-1,0,-1,-2,0,-4,-12,-6
4237,-5,-2,-1,0,1,-2,-4,-3
4238,-4,-2,-1,-1,-2,-2,-1,-1
4238,3,0,0,0,-1,0,-12,-6
4251,4,0,0,1,0,0,3,9
4251,-9,-2,-3,-2,-2,-1,1,-2
4252,5,3,1,0,-1,-1,-5,-1
4252,-2,-2,-2,-2,-2,-1,3,-2
4274,1,-2,-1,-2,0,-1,-2,-2
4274,0,-4,-2,0,-1,0,1,0
4275,3,-2,1,0,-2,-2,-2,2
4275,-6,-3,0,1,0,0,0,1
4297,3,1,-2,-1,0,0,-3,-1
4297,5,0,2,0,1,-2,-3,-1
4298,11,1,-1,0,-1,0,0,-2
4298,-1,0,-1,0,-3,-1,1,1
4311,6,2,1,-2,-3,-3,-6,0
4311,-3,-2,-1,-1,-3,-1,-1,-3
4319,-1,0,0,-1,-1,0,-1,0
4319,-4,-3,-2,-1,-2,-4,0,-1
4335,-1,-1,0,0,-2,-1,-2,-2
4335,-4,0,-2,-1,1,-2,-1,-1
4340,13,2,-1,0,1,0,3,4
4340,-5,-2,-1,-2,1,1,0,1
4365,-1,-3,-18,-4,0,1,-1,0
4365,1,-1,8,4,0,3,2,1
4366,-12,-4,-1,-1,-2,-4,2,-5
4366,3,0,-1,-2,0,-1,0,-2
4371,-5,-2,-4,0,-3,-1,-4,-3
4371,-4,-1,-6,-3,-1,0,-3,-1
4379,-7,-3,-2,-2,0,0,-3,-3
4379,2,0,2,-2,0,0,-1,2
4394,-3,-4,1,-1,-1,-1,-2,-1
4394,-8,-3,-3,-2,-3,0,0,-5
4396,16,5,1,-1,1,1,1,2
4396,0,0,-1,-1,1,-2,-2,-1
4417,2,-1,-1,0,0,-1,-2,-1
4417,4,4,25,2,-1,-2,-1,0
4419,-3,-3,-1,-1,-3,-3,-5,-3
4419,-1,-1,-2,1,-2,-1,1,-2
4430,2,0,3,0,0,1,-1,0
4430,-3,-3,-3,-1,-1,-1,-2,-3
4445,-9,-1,1,-2,-1,-2,-2,-1
4445,4,-2,-2,-2,-1,1,1,1
4454,-8,-4,-3,0,0,-1,-2,-3
4454,0,2,-8,-1,0,-1,0,0
4460,-4,-2,0,-1,-2,-2,-3,-2
4460,-4,-3,-1,-1,-3,-1,0,1
4477,2,-1,3,-2,-1,-2,-1,2
4477,-2,-2,-4,0,-1,-1,-1,0
4479,-4,-1,-1,-1,-2,1,-2,-2
4479,-7,0,-1,-1,-1,-1,-4,-3
4490,1,-1,3,-3,-3,-1,5,-2
4490,-1,-1,-5,-1,-1,0,1,0
4499,1,0,-4,-1,-3,-2,0,-2
4499,-2,-2,-2,0,1,-2,-1,-4
4512,-2,-1,0,0,0,1,-2,-2
4512,1,-2,-5,-2,-1,-2,-3,-1
4522,-1,-4,-18,-2,-1,-2,-1,-1
4522,-10,-5,3,-1,1,1,1,1
4536,15,4,1,0,1,-1,1,3
4536,3,1,1,-3,-2,1,1,0
4539,-1,-3,-3,0,-2,1,-2,1
4539,-8,-2,0,0,-2,-1,-2,-3
4550,-3,-1,0,-1,-1,-1,-2,-3
4550,1,0,-5,-3,-1,-2,-2,-2
4559,-2,0,1,-1,0,-1,0,-1
4559,0,-2,-4,-2,-1,-1,-2,-4
4574,0,-2,1,0,-1,1,-3,-2
4574,-3,1,-3,0,-2,-1,4,2
4581,-10,-4,1,-2,-2,-4,1,-3
4581,-1,1,1,-1,-2,-1,1,1
4597,0,1,-1,-1,0,-1,0,4
4597,1,-2,1,-1,1,0,0,3
4598,-2,1,2,0,1,1,0,2
4598,-3,-3,-3,-1,-2,-2,-3,-2
4610,-3,-3,-14,-3,-1,-1,-5,-5
4610,2,-3,-1,0,-1,0,1,-2
4620,-7,-2,6,0,0,-1,-4,-2
4620,15,4,0,0,1,2,0,8
4633,-4,-1,-2,-1,-2,-1,-2,0
4633,0,-3,-7,-3,0,-2,-2,-8
4642,4,-2,-1,0,-1,0,-4,-7
4642,0,-1,-1,0,-2,-2,-2,1
4657,-12,-5,1,-3,-1,-2,6,-10
4657,1,0,-2,-1,-1,-2,-3,1
4658,-3,-2,1,-1,-2,-3,-2,-19
4658,2,2,1,-2,0,1,-3,18
4671,-1,-2,-1,2,0,0,6,-7
4671,-1,-1,1,1,0,0,-1,-10
4679,2,2,0,-1,0,0,4,14
4679,1,-3,-6,-4,-1,-2,0,0
4693,-2,-1,-4,-2,-2,-4,-4,2
4693,6,4,14,-1,0,-2,-1,-6
4708,-1,-1,0,-1,-2,-1,-10,-2
4708,3,3,0,-1,-1,2,5,4
4717,-2,-1,-3,-1,-1,-1,-8,-12
4717,-3,0,-6,0,-3,-2,1,8
4719,6,2,-1,0,-1,-1,1,0
4719,-4,-2,2,0,-1,1,-4,-5
4730,-6,-2,0,-1,-2,0,6,3
4730,11,0,-1,-1,-2,1,2,15
4739,-3,-3,-1,-1,-3,-1,0,3
4739,-6,-2,-1,0,2,3,1,-8
4753,5,1,-3,-2,-1,-2,-8,-6
4753,-4,-5,-19,-3,-2,-3,-2,-7
4760,-2,-2,10,-3,2,1,3,0
4760,6,1,-4,3,0,-2,0,-4
4785,-1,2,8,-4,-1,-1,-2,-1
4785,-7,-2,-9,-1,-1,-2,-10,-22
4786,-2,-2,-5,0,0,-1,5,38
4786,-3,-5,0,1,-3,-5,-4,-28
4807,-2,0,-2,1,1,1,-1,27
4807,11,5,11,0,0,4,8,13
4808,13,2,2,-1,0,-1,-4,-13
4808,3,4,-13,-5,0,-1,0,-2
4813,1,-15,0,-1,-3,-2,9,5
4813,-21,-9,-6,-4,-1,-3,-6,-12
4820,0,7,-2,2,0,-1,0,-11
4820,-8,-1,2,0,1,4,6,14
4837,0,3,-3,-1,-1,-4,-4,-13
4837,-4,-1,3,1,1,2,7,21
4838,1,0,-2,-1,-2,-3,-3,-7
4838,-12,-5,-3,1,-2,-2,-5,-8
4860,-11,-3,-5,0,-2,0,-6,-17
4860,6,0,6,2,0,0,1,-14
4861,-11,-3,-3,-1,0,1,-1,28
4861,7,0,0,-1,-3,-5,-2,-1
4873,11,7,22,3,2,0,2,-1
4873,-15,-6,-5,-4,-3,0,-4,-24
4880,-10,-8,-9,-4,-3,-3,-9,-14
4880,-10,-6,-2,-3,-2,-2,3,26
4897,2,1,-5,-6,-7,-6,-11,-6
4897,2,1,-4,-1,-2,2,-1,18
4899,-5,-3,1,0,0,-1,-2,-49
4899,-3,-3,2,4,1,0,-3,7
4919,0,3,17,4,4,5,8,5
4919,4,0,-30,12,15,-1,-3,-5
4922,-7,6,23,-9,-14,-4,-9,-54
4922,-4,-11,33,33,5,2,8,1
4933,1,-5,-48,-39,17,15,-9,-17
4933,-11,-11,-10,-16,-52,-33,-1,26
4942,-2,1,-10,0,3,-19,-6,-30
4942,8,8,-4,0,1,11,-5,-15
4956,8,3,11,12,-6,-4,11,35
4956,-21,-4,13,2,11,-1,-28,-76
4958,4,0,-3,2,4,1,-2,-12
4958,11,3,2,-4,3,2,12,19
4987,-14,-5,-2,9,6,12,-2,-54
4987,13,5,-8,20,5,2,15,75
4993,7,-2,-1,-8,-4,-5,11,28
4993,4,7,-3,-14,9,37,-6,-7
4994,-22,-19,-32,-22,-35,-68,-24,-76
4994,26,6,10,6,-4,24,19,70
5002,-5,-2,-3,-2,-12,-28,-13,-26
5002,14,5,-3,9,10,11,19,46
5017,-1,4,7,-20,12,43,10,0
5017,-4,-2,4,-2,14,-16,-8,-35
5019,8,-1,1,19,0,17,14,63
5019,-2,-1,-11,-30,-41,-58,-30,-26
5039,-2,1,13,17,-24,-33,-17,13
5039,0,2,10,0,14,14,1,-16
5040,6,2,8,13,33,40,18,40
5040,-14,0,-31,22,18,8,-4,-40
5062,11,8,33,-26,-11,16,14,-13
5062,-11,0,43,70,30,4,5,29
5063,9,-7,-70,-101,-38,5,16,24
5063,-8,-19,-10,1,-11,-31,-35,-100
5076,18,11,-5,20,26,14,2,112
5076,6,5,1,11,35,47,21,-6
5085,-16,-6,36,59,12,-35,1,-24
5085,23,8,-24,-39,-25,2,22,18
5100,-6,-2,-13,-21,-39,-49,-29,-20
5100,-14,-15,-4,-26,-31,-16,-26,-45
5101,-10,8,-13,23,18,16,4,37
5101,-12,-10,5,-19,-8,-9,-8,-9
5122,-9,-5,21,34,12,17,17,-70
5122,12,12,-20,-11,20,32,15,27
5124,-2,-1,-3,0,17,37,-8,-70
5124,-15,-3,19,23,-2,-53,4,-24
5136,-8,-4,-10,-22,0,4,-15,-45
5136,-8,-6,-7,47,-11,-21,-1,61
5144,29,20,10,-69,-5,17,0,29
5144,1,-7,4,15,34,57,14,30
5159,8,3,16,57,-8,-30,6,29
5159,-26,-14,-29,-78,-59,-49,-33,-70
5161,1,-4,-5,21,7,-56,-28,22
5161,8,11,0,-13,-7,25,5,9
5173,12,10,4,28,34,31,21,67
5173,-2,-10,-6,-7,33,44,12,-28
5182,0,-10,-18,-55,-26,-4,7,-33
5182,2,0,5,-20,-33,-21,-6,32
5197,-19,-3,-5,-1,-7,-7,-11,-75
5197,18,7,-4,-10,1,17,2,75
5198,-14,0,57,43,26,-1,5,-5
5198,15,1,-18,19,13,-2,16,-2
5219,-11,0,-14,-26,-10,-25,-14,-11
5219,15,1,18,5,-6,-37,-16,0
5221,-16,-8,-6,5,-34,2,-14,-3
5221,-10,3,6,-7,-21,3,-12,-13
5233,9,0,8,3,-12,22,25,28
5233,-5,-4,12,45,14,0,0,-50
5241,-9,2,-27,-46,2,15,3,-5
5241,11,13,15,-16,2,5,-1,-2
5257,-9,0,15,27,22,0,-16,-20
5257,19,6,-10,-1,11,-2,12,-1
5258,-2,4,3,-43,-39,-14,-7,-7
5258,-11,-5,17,49,16,-7,-7,0
5287,-9,-7,-20,-42,8,2,-7,-18
5287,-8,-3,21,-10,-17,-11,1,11
5288,9,-3,-18,37,5,0,3,-46
5288,0,-8,-12,-14,5,-2,1,9
5293,3,-3,0,3,-4,0,3,72
5293,-14,-1,2,-12,-10,-11,-10,-48
5302,-11,-28,-1,19,3,-3,-4,-14
5302,-8,-23,-60,-58,-4,1,-5,-2
5317,34,24,9,25,13,14,14,16
5317,1,-2,18,-41,-21,-9,-2,-8
5318,12,24,14,52,8,4,4,21
5318,-2,14,-17,19,16,3,4,-15
5340,-14,-31,-41,-25,-9,-1,-2,-6
5340,-4,-4,-23,-9,-4,-3,2,9
5341,-17,-22,-1,0,-4,-4,-11,-24
5341,19,5,5,-27,-9,-4,1,-20
5352,5,14,-2,24,2,3,6,-15
5352,-8,5,29,29,-1,0,-14,-121
5361,26,21,5,11,9,5,9,22
5361,-12,-4,5,13,0,0,3,78
5377,-4,-5,1,-26,-11,-2,-6,-22
5377,4,-5,-13,-17,-5,-4,-3,-19
5379,-9,-29,-12,7,-3,-7,-6,-14
5379,12,17,27,3,3,1,5,-10
5399,-8,-24,1,-7,0,1,6,5
5399,-5,20,-21,6,2,-2,-2,33
5401,8,11,-1,-17,8,-1,-2,-4
5401,-5,7,14,1,-6,-5,-4,-19
5422,-6,-2,7,8,-6,1,-3,6
5422,4,-13,-20,-2,-16,-1,3,-7
5424,-3,-6,-4,-7,-20,-2,-3,7
5424,-21,-2,10,-3,-14,-4,-13,-42
5437,9,8,11,-1,-5,-2,0,-24
5437,-24,-8,-5,-19,3,0,-2,14
5439,-13,2,-1,2,12,-7,-5,-7
5439,17,-3,11,11,24,4,11,20
5475,-2,-3,-11,-3,15,-1,-2,-16
5475,-10,-4,-1,2,9,-2,1,-3
5476,3,-3,-1,4,6,-1,-8,-81
5476,7,-1,0,13,6,3,11,29
5477,11,1,0,-2,-1,3,0,-8
5477,-7,-2,2,-5,-8,-4,-11,-81
5482,20,9,9,13,7,34,20,89
5482,-18,-7,-3,1,-14,-51,-6,-64
5497,-3,3,1,-1,-6,9,-13,-18
5497,-11,-2,3,-4,-6,-7,-10,-68
5499,13,2,-3,-1,-2,9,5,49
5499,-1,-5,-2,-2,-2,13,7,-15
5519,-10,-3,-4,-7,-7,-9,7,93
5519,-5,-1,-3,-3,-4,0,4,-35
5521,-14,-3,-7,-1,-3,-7,4,4
5521,19,4,4,2,-3,3,-12,-3
5533,1,1,2,-1,-1,-6,-1,-39
5533,13,2,-9,-4,2,8,-1,51
5542,-8,-2,3,-1,-3,-13,-8,-42
5542,-5,-4,-2,0,1,2,7,53
5556,-1,0,0,-2,-3,5,-11,-39
5556,13,8,-1,-4,5,2,2,16
5563,1,-1,3,5,-6,-6,0,-15
5563,-9,-7,-1,-4,-6,8,-19,-33
5579,-21,-12,-7,1,2,-14,2,-12
5579,27,18,20,20,19,-11,12,46
5581,-21,1,-14,-1,-21,-11,-14,-99
5581,29,-11,28,-4,-10,1,19,82
5602,1,3,-7,-5,-1,7,6,-49
5602,-7,-11,-1,-11,-6,-2,-9,-30
5603,5,5,4,19,14,-3,6,26
5603,-54,-10,-6,-13,4,7,-36,-128
5615,37,6,2,55,28,-2,-2,31
5615,16,-22,-16,-21,-28,0,1,32
5624,0,18,-13,-43,-13,-2,-1,-17
5624,-16,-4,-4,-2,-3,-3,-7,-18
5639,-2,10,5,-3,0,-3,-4,16
5639,-16,-2,31,17,18,2,-9,-35
5641,34,0,14,19,3,2,16,42
5641,26,13,-7,-14,-7,-8,4,12
5662,-14,-9,-2,0,0,-1,3,2
5662,-8,4,-4,4,-3,3,11,30
5663,-41,-21,-3,-10,-8,-7,-22,-39
5663,1,8,6,13,9,6,5,0
5676,4,-10,-11,-13,-11,2,11,41
5676,-23,-3,-22,-14,-8,-4,-8,-38
5684,-17,-6,7,2,7,-2,0,36
5684,35,1,-1,9,-6,-8,-22,2
5698,55,16,-13,-8,-3,8,26,73
5698,-5,-11,-18,-18,-6,0,4,10
5706,17,-3,-4,23,4,-6,-5,28
5706,-32,-8,-23,-45,-4,-1,-3,-47
5722,-56,-6,1,-9,-6,-5,-27,-101
5722,6,-13,8,7,-3,-9,2,63
5730,5,13,-5,5,6,5,14,50
5730,15,6,4,11,2,3,7,47
5752,-1,8,19,-12,-1,7,0,-54
5752,-12,-13,-15,2,-3,-4,2,-48
5753,-12,-1,-5,-6,-3,-3,-13,-22
5753,21,-7,-11,6,-1,-1,26,63
5759,15,-4,-3,-10,-4,-10,-12,45
5759,13,19,17,15,13,24,-30,-11
5761,1,2,2,-8,-2,-1,-21,-11
5761,-10,12,14,14,2,-8,14,45
5798,-32,-16,-13,-4,-8,-10,19,18
5798,20,8,-2,-6,-6,-4,21,-54
5799,-1,-5,2,-10,0,5,21,-25
5799,-55,-21,-14,1,-1,-5,-23,-85
5801,30,22,16,50,66,4,-2,-9
5801,1,21,38,6,-35,2,7,43
5804,-15,-25,-70,-91,2,-3,-19,-38
5804,-7,-12,20,14,13,5,2,21
5820,-27,-12,-13,-21,-20,-17,-17,-32
5820,-20,15,28,34,31,2,-12,1
5821,-6,-23,-53,8,-5,0,-11,-33
5821,19,20,39,8,7,11,22,-38
5842,-33,-8,13,82,104,19,-26,-59
5842,40,19,59,-1,-23,18,47,94
5844,14,4,-47,-19,-45,-16,10,39
5844,-61,-64,-30,18,-11,-17,-28,-39
5855,-33,-7,-52,63,-43,-9,-24,-102
5855,37,10,39,-24,-28,-7,18,35
5872,-16,-7,-30,-35,46,21,15,24
5872,21,18,30,51,-59,27,11,42
5879,40,2,7,-69,5,-21,0,77
5879,-44,-31,-82,39,76,-5,-42,-123
5880,38,-14,-17,-80,-104,-34,16,34
5880,-16,26,49,17,43,16,-22,-104
5902,0,10,24,52,13,75,26,56
5902,21,-6,-2,76,36,-58,-7,59
5904,-26,41,45,-9,-59,-34,-16,-102
5904,59,-8,-7,-69,24,-45,-3,85
5915,34,36,49,85,68,35,13,-5
5915,-22,22,81,35,19,49,2,-86
5925,-41,-53,-45,-26,-54,11,13,-108
5925,17,24,11,-11,-25,-54,-13,73
5939,13,3,-1,-84,-68,-56,-20,15
5939,53,45,25,51,101,72,-7,-63
5942,4,7,-14,50,127,89,36,71
5942,35,40,12,71,-8,0,51,38
5961,-37,-54,-71,-115,-22,-34,-31,16
5961,-73,-24,-85,-48,-128,-128,-65,-36
5963,-5,-44,21,123,86,-10,-24,-12
5963,64,78,42,91,124,96,56,14
5984,-17,-28,4,30,-93,51,28,-24
5984,-51,-30,-78,-128,-85,16,0,-8
5986,-26,34,85,59,34,12,-30,-62
5986,28,-23,-65,-74,-24,-85,14,73
5999,38,90,69,107,13,-77,-30,69
5999,-30,-19,-87,-119,13,31,3,-13
6000,54,3,123,78,-66,-30,-6,67
6000,-47,-44,-38,-124,14,40,-17,-56
6029,42,41,19,-25,27,80,58,-19
6029,39,13,58,79,80,30,16,11
6031,24,-3,7,-18,70,66,-4,-29
6031,42,41,-13,-39,-51,-79,1,-12
6035,-46,-77,33,47,-48,-67,-10,-95
6035,-41,26,-22,7,-61,-30,-31,7
6044,-29,19,62,53,65,72,45,20
6044,39,21,-2,32,30,60,-15,8
6073,-62,-65,-48,-128,4,-80,-50,-57
6073,10,1,-55,78,-38,-83,-2,28
6092,-70,-86,-60,-57,-35,-40,-40,-27
6092,-11,-2,-41,-81,-12,69,27,51
6092,-76,50,79,60,8,45,11,-37
6092,69,-25,61,21,26,31,23,36
6096,-39,-45,-37,11,20,-25,-1,17
6096,-77,-52,-47,22,-27,-29,-44,-91
6096,76,35,13,-52,-12,26,30,46
6096,30,-59,-17,-23,31,31,28,-42
6105,-17,49,-15,64,23,-3,-13,66
6105,-38,5,22,-54,-11,-6,-39,-45
6119,127,-19,-30,-45,-47,-3,46,125
6119,-57,-32,73,70,49,-4,-5,-28
6122,108,58,21,-46,-46,-27,-8,-6
6122,-27,-58,10,34,4,0,18,4
6142,-7,-50,1,62,10,9,-17,-17
6142,-21,-38,-8,-31,16,18,31,69
6143,-47,-25,-27,56,-25,-17,-5,-35
6143,-42,98,70,86,-41,-37,-46,-41
6155,-70,-50,-17,23,28,12,-7,-33
6155,-70,-41,-56,-27,11,18,-27,-47
6164,98,80,66,14,-42,-45,-12,25
6164,29,-63,-58,-87,-16,0,45,6
6187,-26,-51,-6,93,39,14,14,-27
6187,53,112,42,72,36,12,3,55
6188,-37,-13,-32,-114,-69,-14,-9,-17
6188,31,49,12,98,27,-13,-6,-16
6202,-9,-9,-41,-84,-52,31,1,-9
6202,35,-5,-10,-59,-32,-43,-19,0
6203,-13,74,35,31,14,-21,1,-14
6203,7,-7,-10,-76,-33,-18,-13,-44
6216,0,-34,1,65,48,14,20,39
6216,-20,64,51,55,-6,19,11,9
6225,-6,-57,-84,-59,8,12,-2,-13
6225,-62,-26,-20,5,31,41,-22,-40
6240,-30,63,-2,39,29,-62,-36,-30
6240,40,57,24,-72,-92,-37,4,5
6241,-23,-88,47,71,72,9,13,2
6241,29,19,94,74,-23,22,7,17
6262,81,80,77,45,43,110,37,66
6262,-11,-70,-15,10,32,-47,13,28
6264,-40,-90,-31,-83,-80,-27,-27,-31
6264,21,-49,-38,-5,48,-42,-22,31
6275,7,65,-25,-65,-73,18,-18,-31
6275,-7,-26,-1,-6,32,53,30,38
6285,46,14,40,16,69,-18,48,6
6285,-7,8,-43,-9,-71,-102,-24,3
6299,-29,-2,-34,10,-20,-74,-50,-48
6299,-25,-40,-70,-78,-47,17,-35,-1
6306,-29,10,54,48,64,109,26,3
6306,-40,-5,26,-27,-35,78,40,-22
6321,-26,-27,-74,-71,15,-72,-22,-85
6321,5,0,55,104,13,-10,0,36
6323,-61,38,-105,-53,-32,-37,13,-16
6323,-54,-38,30,127,42,60,4,48
6345,30,-13,95,-13,-5,-33,10,13
6345,67,-6,-84,-93,-18,99,-26,-128
6346,68,29,-16,10,23,-70,-1,85
6346,122,58,63,118,97,39,40,-35
6367,-25,-106,-128,-128,-119,-2,-12,52
6367,-55,33,-30,-26,-55,-116,-39,-78
6369,3,16,58,64,27,-24,-53,69
6369,-38,-31,-128,-128,-117,11,-30,86
6382,27,14,127,127,127,104,48,52
6382,18,28,40,74,-6,62,46,-23
6383,-30,-23,-108,-93,-49,-73,-18,-34
6383,-127,-28,39,78,73,-53,-46,-128
6396,57,51,-77,-116,36,112,43,53
6396,-4,-10,-88,-91,22,-107,43,66
6404,1,12,71,-24,-126,-7,6,-47
6404,-20,16,53,35,8,-22,-103,-75
6419,42,5,72,98,68,-64,16,38
6419,-24,-14,76,127,46,41,48,3
6425,62,-4,37,112,114,10,56,26
6425,20,22,-56,-10,-122,20,127,-9
6441,-62,-63,-89,-70,-50,-111,-128,-43
6441,-42,-43,20,56,87,58,-41,-20
6443,40,35,114,126,61,124,102,-15
6443,34,-34,-124,-26,45,126,55,38
6448,-65,14,64,80,-92,-128,-62,-56
6448,21,11,11,-80,-35,6,-36,24
6465,-32,-17,-85,-76,-11,88,-49,-32
6465,20,-4,63,46,114,34,34,15
6470,-40,6,-7,-73,-47,6,29,-36
6470,30,1,33,-14,-69,-17,28,37
6479,-3,-8,21,-35,-77,-115,-118,-14
6479,-23,-24,20,33,45,-24,-27,-20
6493,33,-11,-42,-91,-61,87,95,55
6493,-19,-3,18,49,127,86,62,11
6519,22,51,-44,-102,-95,-43,-29,-5
6519,-2,-13,-24,-20,-36,-100,-77,-9
6520,-27,5,23,62,3,30,-41,-32
6520,28,-8,62,73,16,61,21,21
6523,-7,-13,-55,-4,82,-5,49,8
6523,26,12,84,66,67,50,-11,19
6531,18,43,74,81,127,-57,77,-19
6531,4,-8,8,-4,-128,-112,-57,3
6540,5,4,51,127,110,-51,-87,-10
6540,-2,-11,-47,-127,-103,38,3,10
6552,26,21,-45,-61,13,96,32,9
6552,-21,-5,-26,0,-29,-46,-39,-9
6562,-26,-31,-45,31,-30,13,-3,-21
6562,-19,6,27,29,28,-92,0,-12
6584,-35,-19,-29,14,-5,10,-13,-11
6584,24,0,1,54,0,22,22,13
6585,-2,3,-14,-8,43,43,15,22
6585,-24,-8,15,-3,-17,110,21,-4
6599,23,23,10,7,52,44,39,26
6599,12,-51,-58,-93,-57,-79,-41,9
6605,30,8,-13,16,24,19,-44,-13
6605,-14,-3,22,-26,-87,-128,-36,-14
6622,4,30,-44,10,32,64,-24,12
6622,-15,14,41,69,122,127,75,-17
6623,22,15,34,27,10,-2,24,8
6623,35,-4,-16,-24,-66,-121,-41,9
6636,-5,-27,-9,7,-26,-43,-56,-20
6636,5,16,-10,-21,70,80,41,-4
6676,-22,-4,21,19,49,-59,4,-12
6676,23,12,-25,-66,-23,59,23,17
6676,-6,-6,29,-34,11,15,-23,1
6676,-22,-2,-52,10,70,86,23,-22
6682,14,-4,-62,-128,-104,-60,16,7
6682,2,-11,-24,-36,-4,9,-32,9
6683,8,20,35,-36,13,-18,16,0
6683,-8,-40,-39,-45,-35,-4,-20,22
6684,-34,13,-1,17,-27,48,24,-20
6684,11,18,38,40,64,28,7,11
6704,24,-13,-23,-6,0,-92,-8,25
6704,9,32,61,93,-27,-22,8,-9
6706,-16,-18,-22,-32,8,87,-20,-9
6706,-37,-19,-5,-6,-23,-40,-3,-55
6718,-27,-28,-32,-19,-105,-1,-82,-19
6718,21,-12,-12,-24,-7,-53,-35,0
6726,-26,-10,46,72,50,117,33,-19
6726,68,35,15,-2,17,94,72,78
6742,23,2,51,116,88,110,67,16
6742,-17,-8,-22,-128,-11,-126,-17,-30
6743,6,-18,-66,-102,-75,-33,-15,25
6743,-22,-1,-26,39,81,-14,-6,-14
6764,-29,-19,40,-4,-60,-66,-22,-22
6764,-6,10,13,41,25,89,-9,19
6766,-4,2,14,-45,-26,-46,8,-23
6766,8,12,68,79,20,-44,17,13
6787,-17,-38,-91,-128,-128,-62,-27,2
6787,-11,0,-11,-32,40,-49,-48,-11
6788,12,18,55,70,66,59,29,9
6788,-11,-9,-26,-16,-5,71,19,-8
6801,-1,-1,21,54,27,-26,25,7
6801,-17,-1,-12,59,41,-1,-25,-4
6803,8,35,51,12,-49,4,1,4
6803,-8,-27,-25,-34,24,40,27,7
6824,-3,15,41,121,115,-27,-12,-3
6824,11,6,-22,-117,-50,54,9,3
6830,-5,-4,-35,-1,-35,-107,-48,-15
6830,-10,-17,-77,-45,-7,31,-7,-6
6838,-3,-2,4,-17,-6,100,24,6
6838,8,12,20,50,22,11,31,15
6847,-13,-14,12,36,18,53,18,-10
6847,-14,-3,25,30,-3,-117,-72,-27
6863,-1,15,4,-4,-26,7,-14,-5
6863,-15,-9,-53,-8,8,-96,-13,-11
6865,9,18,25,24,24,76,35,7
6865,22,-13,3,-30,-33,-33,19,33
6884,-10,20,-24,38,89,14,21,-12
6884,-10,5,33,-29,-125,-41,-46,-20
6885,-12,-44,-8,-23,16,-2,-1,4
6885,-5,54,22,-8,6,38,-18,-20
6898,12,-4,-5,-16,-34,-46,7,-10
6898,17,12,34,60,68,92,23,20
6907,15,-2,-26,-48,2,-30,17,10
6907,-21,-22,-15,-15,-49,25,9,-12
6922,-7,3,82,80,-25,-83,-71,-10
6922,1,15,-38,-13,-10,69,-4,1
6924,6,-4,8,46,16,9,-8,5
6924,2,-13,16,36,43,-61,13,19
6952,6,6,-2,17,14,30,32,3
6952,3,-6,-6,-54,-48,-36,-16,-5
6954,-7,-5,20,39,5,-1,-22,-5
6954,-18,-7,-47,-94,7,8,8,-15
6966,-13,-12,-34,-36,39,104,9,-2
6966,38,12,31,41,18,-68,44,41
6975,-2,2,-60,-70,-85,-22,14,0
6975,-20,-29,7,59,58,-50,-56,-26
6989,18,-22,-25,-6,-67,58,4,27
6989,-54,-18,21,-35,80,-60,-27,-49
6991,34,14,-8,-35,-80,57,44,40
6991,10,8,21,-1,48,28,8,6
7011,-4,4,-31,-9,-17,-35,7,-8
7011,-21,-15,10,45,-8,-58,-30,-24
7014,-1,7,-20,-12,-16,-21,-14,-5
7014,7,-1,-3,32,48,122,30,14
7018,7,-2,1,-9,77,-66,31,1
7018,3,5,-3,-2,-60,27,-5,-9
7027,-4,5,16,10,-39,-128,-54,-14
7027,6,4,6,7,-3,28,-2,8
7050,-29,-5,-6,2,-39,-46,-23,-10
7050,26,14,15,-10,-23,95,28,30
7051,4,-22,0,25,44,-19,3,-2
7051,18,1,8,27,-4,38,4,-9
7065,6,-2,-1,-10,15,-23,2,1
7065,6,7,15,58,53,4,-3,3
7066,-16,8,-9,-73,-66,18,-2,-4
7066,-5,-13,0,-63,-30,-79,1,3
7094,-17,-10,-8,-4,2,40,-6,-5
7094,-19,-18,-22,46,82,91,11,6
7096,24,25,60,37,83,-34,36,7
7096,18,22,25,-17,-120,-58,-16,4
7100,1,-5,-52,-36,-38,-58,-49,-11
7100,-5,-9,-34,-91,-5,31,-19,-6
7116,-8,-13,52,127,64,49,9,-3
7116,-6,0,-9,7,25,35,32,1
7124,0,9,-10,10,36,39,20,-14
7124,36,2,31,51,-77,-65,10,35
7140,-19,-24,-51,-105,-15,6,-21,-14
7140,15,14,-3,10,16,31,-13,-3
7141,9,1,4,-27,-10,-65,6,11
7141,-26,-11,-11,-64,-12,-13,-18,-28
7147,8,17,29,22,-21,127,8,11
7147,-28,-27,-76,-81,-16,-107,-14,-15
7161,0,9,33,10,29,117,30,9
7161,9,-5,-32,11,7,-21,4,5
7163,-15,-6,24,4,-15,-91,-11,-7
7163,-16,3,40,46,-23,13,-34,-23
7184,-5,-27,-71,-94,-57,16,21,7
7184,15,42,13,75,-11,-84,-13,-2
7186,2,-6,43,50,47,111,-24,-3
7186,-6,5,-36,22,25,14,-6,-5
7197,-20,-20,32,-29,-14,-38,1,-9
7197,7,11,22,39,-9,-45,4,4
7213,-3,-6,-19,-46,-45,-20,-12,-17
7213,-1,-11,3,1,8,62,20,2
7237,-16,-1,0,15,15,-7,-22,-17
7237,31,6,-7,5,1,23,28,15
7238,1,7,5,-44,23,-71,-12,3
7238,-15,-24,-14,17,-31,-6,-18,-6
7245,2,21,14,30,25,36,3,9
7245,3,-12,15,5,23,-9,-5,-6
7246,4,7,21,49,39,106,19,7
7246,-3,3,59,50,49,-98,9,2
7258,-1,-23,-40,-97,-79,32,-2,9
7258,-19,27,0,-14,-22,-47,-38,-21
7267,8,-1,-19,9,-18,-17,-14,-1
7267,-6,2,2,15,65,104,9,-9
7282,20,1,16,56,58,2,31,15
7282,-7,-13,7,-31,-12,-21,20,-2
7284,-16,6,-16,2,-69,-54,-22,-15
7284,-25,6,-18,-1,20,11,-22,-23
7305,10,-7,17,28,16,-42,-7,1
7305,-8,-1,6,26,-2,62,16,1
7306,-11,-9,-30,-54,-5,-81,-14,-2
7306,6,-10,-15,-52,-69,39,4,5
7318,10,29,47,22,-12,-59,-1,5
7318,-21,-26,-9,3,19,41,-8,-8
7327,-1,-5,1,34,60,15,12,0
7327,5,4,15,51,34,34,-3,1
7341,9,13,-33,-12,13,53,20,6
7341,10,-4,30,31,-16,-21,6,4
7343,21,-2,-17,-21,-51,-12,0,20
7343,14,10,-28,-100,-45,-42,-20,6
7364,-1,-10,-14,27,-2,-32,-15,-9
7364,-7,26,45,17,6,-36,-28,-12
7366,-10,-19,-44,4,50,95,27,-2
7366,5,-3,34,48,6,-22,10,2
7387,21,18,19,19,27,75,23,13
7387,-8,-17,-43,-61,-42,-55,-10,5
7388,5,9,-2,-18,6,4,-6,-2
7388,6,-7,-22,-20,-46,-55,-4,6
7401,-10,-12,10,15,-4,71,-6,-3
7401,-5,-11,-18,-18,11,-41,5,-1
7415,-1,3,-7,35,33,34,11,-6
7415,-18,-7,65,51,66,-24,-1,-21
7424,31,13,-21,-54,-123,-42,-3,7
7424,1,-11,-41,-4,10,14,-21,-2
7425,-12,-4,28,44,23,22,2,-15
7425,10,16,-7,39,13,32,35,31
7438,-11,-17,-9,5,-27,-34,-36,-7
7438,-13,23,-6,-36,-6,49,-1,-4
7447,7,6,16,29,16,-75,5,6
7447,-3,1,-25,-1,-34,8,-21,-8
7461,-9,-7,-36,-43,40,5,8,-6
7461,-7,-16,-5,25,14,45,19,2
7468,-3,4,8,0,10,18,13,1
7468,7,9,24,36,56,-8,-7,-1
7484,20,4,-10,-17,-56,61,20,13
7484,-1,-21,-6,-34,-51,-76,-41,0
7485,-17,-3,-13,-25,-10,72,-13,-14
7485,28,14,4,14,-6,-96,9,20
7497,-5,-1,33,36,92,96,14,-5
7497,-1,-9,-22,-30,-7,50,48,4
7507,9,-7,-20,-2,-52,-104,-14,9
7507,-17,-3,-17,-33,-45,-26,-51,-26
7520,-22,-6,26,24,32,-21,-12,-7
7520,8,-1,-34,-34,32,18,24,4
7529,-7,-14,-64,-20,1,-12,-3,0
7529,-5,4,26,4,-30,27,1,4
7545,-4,39,21,62,76,39,-8,-11
7545,4,-1,13,2,-1,38,7,-5
7546,-4,-1,-3,-31,-44,-89,-16,-6
7546,20,-19,-34,-13,5,70,12,12
7558,-10,-9,0,-8,27,-85,-12,-10
7558,-13,9,2,-27,-80,0,-5,-10
7573,-16,-29,15,19,46,57,19,4
7573,-5,1,-76,-114,-63,-25,4,9
7582,-10,-5,29,13,5,-7,-25,-3
7582,4,9,30,98,84,-7,5,1
7588,1,12,54,14,-34,23,0,-3
7588,6,-16,-20,-6,14,8,19,5
7604,-11,-12,-28,-58,-60,-24,-13,-12
7604,-2,5,2,1,-13,-28,-25,-4
7606,19,4,13,21,53,20,22,19
7606,-6,3,19,22,-26,32,26,-5
7626,-3,12,-7,-4,-18,-65,-28,-20
7626,0,-40,13,47,38,-17,-6,3
7628,-22,-8,2,-38,-21,79,2,-18
7628,-1,1,-23,-57,30,-42,15,6
7641,6,-4,22,24,-119,-68,-18,3
7641,-17,-18,-74,-111,17,0,-25,-7
7656,21,43,54,51,70,57,14,12
7656,-13,-8,40,28,29,46,22,-2
7664,1,6,-1,21,23,-18,-3,7
7664,10,0,0,-40,26,59,1,0
7671,13,4,6,65,-26,-34,31,17
7671,7,4,12,16,-2,66,-38,-11
7686,-9,-29,-57,-53,-38,-100,-26,-9
7686,-9,4,-32,-16,-42,35,3,-9
7694,-3,23,1,8,53,39,-3,-2
7694,5,-8,-7,49,28,27,24,7
7701,-26,-20,3,7,19,127,23,-7
7701,35,1,6,41,49,-110,-2,38
7707,-1,-4,-18,-44,-82,-35,-32,-15
7707,11,-3,-44,-79,-109,-65,-51,-1
7733,-9,-6,-8,12,67,111,40,1
7733,-2,6,32,59,29,-111,27,-1
7734,4,0,9,4,13,-2,-5,2
7734,-11,-10,18,12,26,-23,-27,-12
7747,11,11,-6,-17,13,69,12,9
7747,7,7,-2,-10,-20,-33,2,-1
7749,-7,-18,-8,10,-5,-12,-6,-6
7749,-21,15,54,9,0,18,1,-20
7760,21,-18,0,33,41,-8,-3,16
7760,3,31,-10,-61,-104,19,-1,2
7770,-4,-7,-37,-46,-29,19,-13,-3
7770,-8,-19,27,45,66,-112,-15,-3
7784,21,34,32,33,34,34,33,12
7784,4,-6,33,35,-10,127,13,10
7785,-6,-13,-25,-68,-25,-99,-11,-8
7785,-14,-6,-23,21,-43,-24,-25,-14
7807,-5,-4,30,39,28,-23,-21,-9
7807,5,-6,26,11,3,-30,7,2
7807,12,-5,-10,-26,12,82,19,9
7807,-20,0,-3,10,7,-46,-7,-14
7830,12,2,-9,-32,-29,-28,1,13
7830,-5,6,-5,52,41,50,6,1
7831,-25,-4,37,51,-20,23,11,-20
7831,15,16,-6,-68,-75,-68,4,16
7845,-6,-11,-3,5,-21,-55,-15,0
7845,-15,8,-32,-5,25,105,-19,-14
7846,-14,-22,56,53,62,-52,30,-3
7846,7,8,-9,36,13,39,-16,-10
7867,-6,-2,14,21,-10,-37,3,-2
7867,-2,-12,-20,-21,-44,33,2,9
7868,-5,5,-31,5,14,-8,-18,4
7868,-16,3,12,65,58,-14,30,-7
7881,8,-8,9,46,4,27,2,-1
7881,29,9,15,-19,21,-54,-29,-2
7897,-3,-7,-32,-82,-60,68,4,1
7897,-40,-15,-4,-33,-20,-35,-12,-34
7904,35,-8,-26,-51,-34,-27,0,37
7904,-13,-1,-9,-30,35,-30,14,-7
7906,-10,-21,-10,-31,-39,22,-11,-6
7906,4,-23,4,-17,47,42,35,20
7927,-20,16,1,-15,-46,-59,-14,-25
7927,-15,-31,0,-13,-65,-64,-68,-24
7929,7,12,9,9,46,-6,-1,9
7929,20,19,-25,-1,74,127,48,19
7949,4,17,11,-5,4,104,30,14
7949,4,-30,-68,-42,-35,-81,8,8
7950,-5,-3,9,2,-36,-69,-32,-16
7950,-1,35,4,9,-55,-5,-51,-3
7971,-18,-6,-18,-31,64,93,24,-11
7971,6,41,23,29,30,-41,30,-6
7974,13,1,-24,-16,-19,11,0,14
7974,6,-18,3,25,20,-87,-18,10
7987,-3,3,16,-33,-38,31,8,-4
7987,10,18,30,27,-18,62,4,8
7988,-6,11,9,6,14,-121,-41,-20
7988,33,7,-17,21,63,125,18,23
8001,-18,-15,-7,-47,-73,-5,11,4
8001,-23,-17,-25,28,22,-35,29,-17
8007,16,-7,54,127,21,-26,-32,6
8007,-26,-42,-69,-106,-85,20,-9,-17
8024,5,11,5,40,95,49,23,7
8024,22,34,27,-3,-6,-10,8,11
8026,-10,-18,-38,13,-47,-32,-25,-16
8026,14,-4,39,-32,-18,-38,-4,9
8047,-11,-8,-6,13,35,-31,-7,-11
8047,21,29,32,-56,-8,85,17,12
8049,-2,-14,-12,-8,2,-62,27,6
8049,-19,-3,16,78,42,65,-13,-13
8060,54,12,-2,-90,-44,-5,-4,26
8060,-13,-30,-27,6,-1,-76,-11,1
8070,-2,11,-13,-61,-27,121,1,-7
8070,24,24,8,-3,-19,-128,1,11
8085,-29,7,-1,39,13,0,-37,-30
8085,-17,-26,38,74,103,127,19,-9
8086,31,16,-52,-79,-51,-74,-8,-19
8086,27,31,11,23,-10,26,15,29
8107,-21,-9,-30,24,25,-15,-1,-12
8107,19,-2,14,-48,-70,-22,-4,5
8109,-16,7,-4,55,17,63,17,1
8109,-14,-28,-29,-47,23,-69,-22,-16
8120,8,6,14,-4,-35,-112,-12,-3
8120,-19,-9,-8,95,13,107,-16,-12
8129,-8,1,-41,-84,-46,-93,-2,4
8129,19,20,-9,31,-64,20,-11,15
8158,2,-6,2,30,63,42,13,7
8158,-2,-13,3,42,67,79,37,2
8176,6,20,18,-17,6,28,22,13
8176,-4,-13,-4,-21,-21,4,-12,-7
8177,-33,-36,55,20,0,-64,-38,-23
8177,-22,-26,15,20,-62,-18,-31,-23
8182,2,-4,-28,-41,9,127,24,12
8182,2,-10,12,16,-1,-92,10,5
8183,-4,5,-3,39,30,24,-8,-10
8183,-7,-26,-15,30,55,53,22,0
8207,-1,19,49,21,-8,-79,-20,3
8207,2,23,5,60,60,52,-4,-12
8207,-8,-35,-26,-45,-112,-33,-4,-10
8207,-10,13,-48,-125,-63,-103,-23,15
8210,-16,-33,-19,-9,30,60,8,-8
8210,9,-4,-3,7,22,53,24,4
8227,20,19,11,71,51,-34,-12,10
8227,-5,15,-7,-41,-23,14,-4,-6
8228,35,9,21,60,73,66,25,28
8228,-5,-1,0,-72,-71,-69,1,1
8250,3,-21,-18,-12,-53,-8,-30,2
8250,5,-9,19,39,-33,-65,-17,-3
8251,-6,9,-29,-9,78,89,25,4
8251,4,-15,11,21,41,84,24,5
8272,0,10,-9,-18,-17,-35,22,9
8272,-3,25,11,-11,-33,-3,-29,-19
8273,3,-3,11,67,74,-8,-8,-1
8273,-35,-30,1,-8,-19,-38,-2,-33
8295,13,42,-30,-43,-68,-31,-2,20
8295,-12,-17,12,-1,33,-3,-17,-6
8296,-6,-14,3,-4,-1,-26,1,-9
8296,-8,-6,28,82,57,125,16,2
8300,-23,-6,-20,-53,-32,-112,-16,-22
8300,19,-1,-2,9,26,67,16,15
8325,-26,15,12,81,-13,-90,-31,-31
8325,27,-11,3,-40,-49,31,18,30
8325,-1,3,6,0,14,-3,5,3
8325,-16,-9,-32,4,54,57,-4,-2
8328,-11,-27,21,22,4,41,21,-5
8328,6,16,13,50,6,-94,-15,-1
8354,-4,-8,-6,-12,2,54,-7,-9
8354,-15,14,-4,-28,-28,-48,-3,-3
8355,30,-7,-5,-49,-38,-33,5,24
8355,-8,2,-12,-11,-9,60,-5,-7
8369,6,15,11,4,33,7,18,2
8369,-15,-32,32,96,7,-30,1,-11
8377,10,51,2,-26,11,8,-28,1
8377,5,13,-15,-43,40,15,38,10
8384,-6,-28,5,2,-76,-36,-44,-8
8384,-5,2,28,34,4,-36,-17,-9
8386,1,-15,20,31,30,87,21,7
8386,4,34,2,-49,-40,-74,-4,-8
8414,1,6,-40,-75,-10,23,4,0
8414,7,17,6,5,12,-15,10,7
8415,12,-19,-14,-54,2,-25,7,11
8415,-17,31,-3,28,-12,12,-27,-10
8421,-1,-4,25,44,55,107,33,-10
8421,0,5,-102,-117,-94,-128,-45,-2
8437,-14,-16,34,38,-17,25,7,-1
8437,-5,-22,18,20,34,28,6,-3
8444,9,18,-9,6,0,41,7,10
8444,-2,-6,-6,7,83,113,23,-4
8452,-8,8,-14,5,-64,-128,-37,-17
8452,0,-27,-27,-34,-91,25,-26,-3
8467,5,-29,-19,-38,30,60,13,20
8467,22,24,14,0,50,-20,24,7
8481,-8,3,9,13,-20,61,12,1
8481,20,29,13,15,47,60,16,14
8482,-25,-23,-25,-22,-35,-126,-29,-23
8482,6,-10,54,11,-80,-24,-25,8
8490,4,-9,-33,-35,20,1,12,-1
8490,-13,9,-10,-16,25,-51,-15,-8
8504,-2,-7,6,43,58,71,21,2
8504,7,8,-58,-85,-101,-14,14,3
8505,-6,7,59,48,-11,-22,-27,-11
8505,-5,-20,6,73,45,41,-2,0
8527,6,7,13,9,12,-16,7,1
8527,-19,-25,14,31,19,-30,-3,-12
8528,2,0,-23,-9,4,42,-1,7
8528,2,-31,-5,-1,-20,-47,22,13
8540,-22,16,13,39,-66,-7,-15,-18
8540,11,-2,-16,-30,-2,-18,-25,0
8549,-3,-15,-36,-26,27,50,13,4
8549,-12,-19,20,27,10,-1,4,-8
8564,7,38,3,1,42,-55,-22,-4
8564,-3,-2,1,-12,-17,17,13,8
8566,3,-9,-3,-7,-15,9,-6,-5
8566,16,20,8,-22,-24,-9,16,1
8594,-4,8,22,42,26,-10,-23,-9
8594,7,9,11,3,36,33,9,6
8596,2,-10,-27,-3,-18,26,16,8
8596,-20,-14,6,-73,5,-6,4,-13
8609,17,-2,13,-6,-27,-34,1,8
8609,-12,-12,-10,-6,-27,-10,-29,-9
8611,-2,5,-9,-23,-19,-4,-12,-2
8611,-1,18,-21,-20,21,81,13,-9
8632,-4,-18,12,40,98,40,30,-1
8632,16,-3,15,-10,-103,-69,-6,12
8634,-12,13,6,-1,4,-36,-23,-9
8634,4,4,-16,-10,2,20,-2,7
8671,-16,-4,14,54,59,-3,5,-14
8671,16,-17,-23,-11,-21,31,28,12
8672,-12,-6,-13,-47,-33,-45,-17,-12
8672,7,23,3,5,-4,-29,-19,4
8673,-11,-17,11,17,-12,34,4,1
8673,-4,5,21,28,61,59,3,-5
8676,6,7,35,65,8,6,15,4
8676,0,-30,-6,67,4,-80,-8,4
8684,-14,-4,-54,-128,-128,-37,-14,-14
8684,-1,34,34,70,49,4,4,0
8686,-1,-7,-33,-118,-41,12,-7,4
8686,-12,-15,-1,26,16,7,-15,-14
8707,3,28,7,38,13,24,10,1
8707,8,-19,-35,16,52,79,19,8
8708,-4,-4,37,59,52,32,24,4
8708,4,-4,-34,-29,-11,-67,-18,1
8730,9,5,-9,-74,-113,-52,-34,-3
8730,-11,10,-27,-8,18,7,-19,-18
8731,7,-13,5,57,114,113,48,12
8731,-12,15,-58,-94,-58,-101,-7,-15
8744,8,-14,21,51,-39,18,-27,7
8744,-14,-15,25,-4,10,26,-25,-12
8751,-6,-5,1,-6,1,4,2,-15
8751,-4,3,38,27,52,71,23,14
8767,-4,-34,-30,-46,-4,41,23,9
8767,-7,4,15,-11,-10,-33,11,-6
8768,15,12,16,55,23,-101,-19,7
8768,-9,-18,-18,-57,-85,55,5,-4
8789,-20,15,32,29,10,-97,-45,-28
8789,4,-8,-14,57,34,47,26,18
8791,19,31,-11,-1,-3,52,11,12
8791,6,-3,26,48,17,-52,3,2
8803,-14,-15,-31,-34,15,102,4,-8
8803,2,2,-1,-25,19,-128,-9,-1
8828,14,3,8,6,-46,-7,-4,0
8828,-2,4,3,-35,-65,-11,-43,-7
8829,7,-7,-21,21,56,47,17,5
8829,8,11,14,44,38,-48,16,3
8830,-20,-57,-14,-40,-88,-16,-9,-4
8830,7,55,11,10,46,39,2,5
8850,0,-11,13,-10,43,31,13,3
8850,-28,-1,-3,-13,-11,35,5,-20
8851,3,-5,11,45,20,0,9,9
8851,-5,-9,-18,-69,-86,-69,-45,-13
8864,3,-5,-3,15,10,-33,-8,0
8864,-14,-2,2,-41,17,114,7,-4
8870,-6,3,-25,6,15,-128,6,-8
8870,-8,-15,1,-10,-37,3,1,-5
8887,12,27,1,-2,4,59,22,16
8887,-6,-15,5,-4,-14,-90,-15,-9
8888,-7,11,-2,-6,5,26,-10,-6
8888,-8,-15,25,79,57,72,-6,-2
8909,27,14,-24,-12,-24,-128,8,12
8909,15,-7,-35,-5,-31,96,26,14
8911,-12,-3,36,64,59,-17,-12,-4
8911,14,23,-17,-59,-37,1,13,6
8924,1,1,20,22,13,61,-1,1
8924,6,-10,-7,-11,36,-34,-3,-3
8931,10,5,13,-4,-30,-40,-5,1
8931,-26,-27,-26,-24,-14,29,-25,-22
8947,1,24,-19,-35,-32,-57,-13,-1
8947,8,-1,-1,-45,-21,47,7,7
8948,3,6,6,-6,31,25,12,11
8948,5,-3,15,63,108,72,34,6
8969,12,25,13,-57,-68,-29,16,2
8969,-15,-19,1,10,-59,-81,-49,-12
8971,-2,-4,-13,-71,-4,-17,-8,-8
8971,-6,-44,10,23,60,6,6,4
8992,0,6,19,48,-33,-9,-7,-1
8992,7,48,18,-44,-2,6,8,0
8994,9,18,2,30,-4,53,13,1
8994,2,-14,-11,29,57,17,-1,4
9007,-19,-13,44,-2,16,8,-9,-16
9007,14,0,-8,-7,-57,-33,-11,13
9009,-3,-6,-18,-80,-23,-47,-2,-6
9009,-2,-1,12,57,26,-6,2,-1
9036,7,-33,-24,-14,7,9,0,3
9036,-12,14,8,4,-24,70,-3,-3
9038,-1,2,3,3,60,51,3,1
9038,20,9,40,13,-39,-88,19,13
9044,-27,-25,-40,2,7,-27,-26,-27
9044,20,0,10,19,6,-1,15,24
9058,4,36,21,63,32,71,12,-1
9058,-15,-10,-30,-37,-92,-45,-9,-18
9074,7,-4,-29,9,61,11,-9,7
9074,-21,-6,-19,-13,-9,-16,-16,-21
9081,-11,-8,11,25,-27,-29,-33,-7
9081,11,41,16,43,8,77,33,10
9090,13,5,-13,-57,-58,-103,7,8
9090,-17,-27,6,34,40,-5,-9,-7
9091,7,-10,-10,12,25,35,-7,9
9091,17,48,20,-42,6,71,16,10
9103,-3,-19,-35,-50,-21,17,15,12
9103,-11,-22,0,-2,-29,-56,-7,-14
9112,-12,17,16,-1,-57,-84,-24,-21
9112,-6,6,-35,1,10,-5,-24,-5
9126,-5,-7,35,67,92,127,26,-2
9126,10,18,-10,-96,39,5,14,8
9135,-3,-21,-42,-42,-20,74,27,2
9135,-6,-1,25,-5,-23,-100,-23,-2
9149,8,3,7,40,-40,9,-9,2
9149,-4,-15,4,49,14,-71,-34,-10
9151,-9,-31,-16,-27,-19,-10,0,-7
9151,9,0,11,-16,44,39,9,5
9163,12,37,14,31,67,86,34,17
9163,0,-1,19,26,-26,-83,10,0
9179,9,-11,-11,3,-9,6,4,15
9179,-23,-27,-14,-8,-26,55,-29,-16
9187,-2,1,15,23,7,-102,-8,-8
9187,24,17,0,30,16,99,9,15
9188,-14,13,-27,-95,-30,-15,7,-5
9188,-12,-37,21,12,26,30,3,-11
9209,1,-17,-36,-41,31,-24,6,3
9209,-9,17,-19,-53,-69,-59,-29,-13
9211,1,-1,-7,1,-17,-1,-23,3
9211,-13,-10,13,8,25,-31,17,-2
9223,-2,-2,23,59,16,59,5,7
9223,-1,21,-4,4,65,52,22,-6
9239,3,-8,-5,-20,-61,-43,-9,-3
9239,-7,-14,-6,-32,-7,35,-17,-7
9246,10,12,2,15,-11,-57,-5,7
9246,3,0,51,30,-1,114,6,11
9248,-8,-4,-10,5,-20,-104,-23,-11
9248,-1,-19,17,-1,-16,48,9,3
9269,-5,-9,-7,44,65,89,13,-10
9269,-1,-1,-23,-34,-40,-47,12,-3
9270,13,9,28,35,-3,-6,-21,3
9270,9,7,-25,-11,-27,-122,-11,5
9299,-7,2,18,-10,-28,54,-8,-1
9299,7,-11,-24,59,73,-39,8,8
9301,-9,-1,27,-6,-11,13,25,-1
9301,-4,12,-52,-47,-12,13,-9,-1
9307,-2,-4,20,19,18,46,2,2
9307,7,2,-2,18,11,28,23,0
9321,-3,-7,15,33,-45,-120,-43,-8
9321,2,-8,-20,-14,-37,17,-10,-4
9337,-30,-21,-22,-33,-6,-51,-12,-21
9337,13,6,22,42,71,32,3,-3
9344,-3,14,7,3,12,66,34,-2
9344,18,-9,6,-74,-39,-8,11,20
9345,-19,-3,-15,-9,21,14,-14,-7
9345,20,-4,26,49,33,-47,-1,11
9352,-4,-8,-57,-78,-50,20,-17,-3
9352,14,47,15,68,2,-7,-1,-14
9367,4,-32,-2,-5,6,-50,2,8
9367,-13,31,10,-48,-23,59,7,-7
9368,-9,-20,-13,-5,35,7,4,3
9368,-16,-6,-9,11,3,-104,-15,-3
9390,16,19,18,36,1,11,-9,3
9390,-34,-1,-39,-36,-8,96,12,-14
9391,4,17,19,27,26,-67,-2,9
9391,-1,-12,-8,13,48,22,1,3
9403,18,14,-29,-56,-91,-53,13,20
9403,-21,-36,-21,58,28,59,-12,-8
9419,11,34,16,43,74,59,17,1
9419,31,-4,-26,63,73,-16,21,20
9450,-6,-13,24,-35,-57,-14,-22,-9
9450,-15,5,-14,-49,-58,-81,-21,-9
9453,5,-32,-10,-24,-4,3,-11,3
9453,10,32,27,10,-9,21,3,4
9453,1,-17,-6,32,66,56,14,4
9453,-3,13,-17,-93,-96,-11,4,-7
9457,-7,-35,4,23,39,-20,1,-8
9457,0,14,41,74,36,-14,-22,-17
9463,0,-2,-12,-73,-58,-26,1,4
9463,2,8,2,42,11,35,13,7
9472,-15,-23,58,70,7,-47,-7,-15
9472,-1,-24,-29,-71,-123,-43,-1,7
9487,-11,3,-2,44,32,12,-29,-4
9487,8,13,8,22,43,-52,-16,-3
9488,5,42,-2,-5,49,127,45,10
9488,-5,-3,10,0,30,-90,17,0
9510,5,9,17,8,-59,-52,-6,-9
9510,0,-11,14,25,-19,-11,-35,-4
9511,7,-1,-52,-78,14,-3,5,12
9511,-9,4,-7,-36,-37,33,1,-2
9531,-5,-2,7,17,30,12,3,-3
9531,-5,-26,-29,-20,8,61,15,1
9534,-2,5,-5,3,-17,-64,-24,-14
9534,22,7,-4,21,-21,-9,3,20
9546,-5,7,39,11,34,35,2,-13
9546,3,-5,20,68,-28,-40,-1,3
9549,-10,-11,-5,-14,-24,-14,-9,-6
9549,4,6,-23,-42,4,21,-3,8
9569,-11,12,5,34,57,57,3,-9
9569,-6,13,-10,-71,-40,-104,-24,-17
9571,6,12,4,17,11,29,31,2
9571,-15,-17,2,11,-9,-31,-25,-15
9592,2,-2,-23,-11,32,50,22,6
9592,-20,-25,-36,-13,-11,1,-14,-10
9593,5,10,10,-32,-44,-69,-7,5
9593,-15,13,25,23,38,70,2,-11
9607,30,-15,0,17,-7,-19,20,20
9607,3,20,74,19,12,83,19,13
9613,-16,-12,-26,-18,-34,-97,-35,-8
9613,9,-4,-3,10,35,43,0,9
9637,5,2,9,-5,14,-42,-4,4
9637,12,3,16,9,-50,16,9,3
9638,-9,-15,-14,-4,22,127,-1,2
9638,11,-3,8,28,59,-86,12,-2
9652,-3,-9,1,-10,-79,-18,-23,-4
9652,-3,-27,-21,-27,-28,-9,-18,1
9653,7,23,11,4,35,113,27,5
9653,-4,-6,-3,35,53,74,17,-4
9674,15,37,3,-94,-38,-104,5,-5
9674,-1,-39,-43,-19,-34,-73,-2,5
9676,-11,7,25,19,-1,-15,-37,-15
9676,-9,-12,-6,19,15,33,12,-2
9690,-12,2,9,33,18,19,-5,-3
9690,12,4,14,18,24,29,28,13
9691,3,-17,-39,-53,-10,-42,10,5
9691,4,13,8,-10,-53,-13,-7,-2
9711,-9,9,-3,63,-22,-20,-34,-11
9711,-15,-9,15,45,61,-15,-4,-13
9713,12,1,9,-16,25,89,21,11
9713,2,7,3,-31,-47,-93,-14,4
9735,-17,-8,0,0,-17,33,-12,-15
9735,-23,-4,-16,-2,50,50,-15,-23
9736,1,-3,19,-36,-25,20,15,9
9736,-3,-19,-10,-10,27,33,11,-1
9757,8,-4,18,0,-13,-17,0,2
9757,12,42,10,39,34,-23,-2,-3
9758,4,0,-8,-8,-4,-80,5,0
9758,-18,-11,-17,-50,-61,22,-25,-12
9772,-16,-12,3,9,-4,-23,4,-1
9772,-4,-8,-1,42,31,41,0,-6
9774,13,18,-6,6,22,-15,-1,7
9774,-2,13,-2,11,-13,-39,-3,6
9786,8,-5,-5,24,-15,20,9,8
9786,-18,-11,-7,-64,-23,2,-10,-10
9800,7,0,-7,32,17,48,1,6
9800,8,1,-4,23,2,-52,18,4
9810,3,5,-5,7,46,21,1,0
9810,3,1,7,10,-14,-56,-6,-5
9811,-9,-13,13,-30,-106,-98,-50,-14
9811,4,10,-23,22,22,60,-3,-1
9839,1,-8,-15,-33,8,35,27,10
9839,12,9,15,24,35,15,11,13
9841,-6,-6,5,39,10,27,1,-13
9841,-4,-20,7,33,19,14,8,3
9847,-4,3,-10,-20,34,-41,-1,-7
9847,19,15,-27,-84,-44,-1,-2,15
9860,-14,-20,-13,31,-62,-74,-24,-9
9860,-8,15,12,17,4,38,-12,-7
9869,-20,-4,-6,1,74,46,6,-2
9869,23,7,-2,-5,-15,22,43,16
9870,-5,-18,-14,-12,-22,-22,-20,-3
9870,10,-14,-4,-9,-28,-20,-16,-3
9892,10,-22,5,12,-20,-29,-8,-2
9892,-5,20,13,2,36,7,-4,-8
9893,10,10,-11,21,55,52,25,4
9893,-3,-14,7,-8,-23,-10,6,-5
9914,-1,8,-13,12,-5,-44,-22,-5
9914,1,-11,23,-18,-69,-4,-12,4
9916,-15,-5,-22,-15,-2,16,15,-3
9916,-7,5,22,10,33,36,6,-2
9929,0,2,-9,-1,-4,-8,5,2
9929,14,-14,13,55,32,45,5,3
9931,-8,7,3,-5,-21,-93,-22,-4
9931,-5,-8,5,-2,28,34,1,-5
9952,-6,-13,-8,-42,-5,28,7,-7
9952,-19,-21,-28,-78,-98,-69,-28,-15
9954,14,-1,5,16,39,69,17,19
9954,0,15,-10,-21,-10,-53,5,3
9966,-8,-7,-1,24,-3,-10,-10,-3
9966,-8,23,5,0,-12,-19,-29,-11
9973,-7,-11,-8,4,23,-10,6,-7
9973,8,9,7,34,53,70,15,9
9990,-2,2,-15,-82,-18,26,7,6
9990,0,-14,3,32,-19,-24,12,-3
9991,14,28,-5,8,-16,-17,-15,-1
9991,-11,-26,-24,-46,-33,-19,-20,-5
12,-1,-12,27,-5,-34,-8,-1,-5
12,-2,-4,-11,27,48,-63,-1,5
14,4,-1,17,40,53,56,0,-1
14,-4,5,15,23,18,50,10,-6
25,14,17,-44,-76,-65,19,10,10
25,-3,-27,-5,-17,-26,-68,-7,2
35,-7,-9,7,21,3,-44,-20,-11
35,-21,3,-5,-40,-1,29,-4,-6
49,-5,-3,4,51,33,11,26,6
49,0,2,12,28,48,35,8,3
51,5,-8,6,-11,20,26,-2,-6
51,13,19,-12,-7,-51,-49,4,0
71,-7,-3,2,16,-37,-9,-17,-3
71,0,-10,-15,-21,4,-33,-14,4
74,2,18,14,-7,-22,-13,-2,-3
74,1,-26,-23,-18,18,30,5,-3
101,-1,-42,19,50,75,99,24,4
101,24,55,-1,-16,-1,-36,18,7
111,-9,2,24,35,36,110,-10,-5
111,0,1,-11,-22,-21,-80,1,-2
112,8,6,-3,-35,-114,-128,-36,0
112,-19,-12,-14,3,0,-40,-63,-20
113,-10,-12,7,1,36,-6,15,-3
113,-14,-6,15,29,53,124,26,-3
132,19,25,23,48,64,-22,24,19
132,5,-3,6,6,-3,45,25,13
134,-2,8,-6,-1,-12,-13,-1,-2
134,-1,-5,1,-8,-59,-37,-6,-8
153,-17,-15,-13,-14,-24,-63,-40,-15
153,3,37,-18,-30,18,78,22,1
155,15,3,29,43,65,-78,-9,12
155,2,-1,25,42,-27,47,18,4
169,17,14,-25,23,-8,13,5,3
169,-8,-24,-51,-63,-40,-11,-1,-4
171,-14,-8,6,23,28,29,-10,-11
171,13,25,22,25,54,-49,-3,8
191,9,-1,-11,-67,-56,77,20,13
191,-6,-20,2,5,-16,-36,-6,1
192,3,16,-6,-15,-43,-29,1,-1
192,-21,-16,-2,14,-3,-31,-29,-26
214,6,9,39,57,70,-12,-1,0
214,-4,-4,-45,-81,-31,39,-1,-3
214,0,9,-19,-41,-58,24,6,4
214,-17,-18,14,68,58,-49,-16,-14
229,4,26,-1,-79,-35,-12,-5,-6
229,-4,3,-5,-2,-44,-4,-4,-7
229,15,-2,0,11,13,61,15,14
229,-4,-5,-26,-62,-36,2,18,4
251,8,7,6,46,17,-34,-25,2
251,5,17,7,30,18,-26,-14,-2
259,-9,-14,-4,27,65,44,13,-6
259,-1,1,-33,-84,-65,-1,10,7
274,-23,0,-8,23,-52,-68,-6,-28
274,17,-9,15,-4,7,-2,-8,26
274,-10,0,7,48,59,-23,-10,-15
274,17,-15,29,-14,-33,60,21,10
288,-16,-8,-32,-31,-3,-2,-24,-2
288,-2,-9,21,29,10,-8,-1,-8
289,0,6,-17,20,18,-6,12,7
289,-6,-26,-12,-32,-12,-4,-10,-5
311,-6,20,11,8,11,42,10,0
311,0,-13,30,58,77,107,33,8
312,3,-7,-22,-57,-61,-115,-4,8
312,-5,14,-7,-39,-23,-30,-14,-6
335,-18,-14,-21,31,-13,-13,-45,-20
335,-11,-4,6,20,-9,-16,-11,-13
336,2,0,-26,-123,-12,27,18,4
336,12,7,-1,29,46,69,28,20
364,-2,-7,32,36,23,8,11,-6
364,4,-2,-20,-4,8,-24,-3,-1
364,1,12,13,3,-56,-46,-26,1
364,-19,-12,15,25,47,73,-12,-16
372,24,4,24,53,101,-57,35,26
372,-17,-8,-33,-73,-81,38,7,-13
379,18,2,-7,-14,-90,-88,-23,5
379,-1,10,-15,-26,-27,-54,-17,-11
394,-22,-13,2,7,2,20,-21,-20
394,0,-2,-5,-24,26,40,20,9
401,-3,-13,-9,3,-5,46,13,-2
401,14,8,-6,26,-9,-34,-18,13
408,5,1,5,20,-21,-44,-4,1
408,2,11,36,2,34,-6,4,3
410,-9,-6,-26,28,10,63,8,-7
410,3,4,2,-34,4,24,-7,-6
431,11,8,3,51,85,60,28,6
431,-9,-13,-32,-66,-89,-99,-16,-2
432,-7,1,14,-2,-12,-31,-24,-13
432,-3,0,-11,18,11,-19,-9,-1
471,-9,-15,4,-2,18,50,-6,-4
471,3,-6,1,34,9,-49,-20,-12
472,-9,-4,-6,-40,-46,5,14,-2
472,18,7,-9,-11,4,7,20,15
473,10,12,-10,-37,23,36,11,4
473,0,0,23,38,16,43,-5,-5
477,-8,-8,14,50,10,29,3,-7
477,17,10,33,-62,14,-68,12,16
491,2,4,-16,-82,-66,-37,-13,-4
491,7,-1,0,54,-8,-34,-11,-5
492,-10,-21,-11,-18,3,-61,-40,-13
492,-12,-7,-16,81,40,69,4,0
513,-6,-4,0,-7,34,58,24,6
513,12,14,22,41,54,91,40,22
514,-11,-1,17,32,-9,-14,12,-14
514,8,30,-22,-42,-81,-96,-21,5
528,-6,-16,-6,-20,-37,44,-21,-1
528,-11,-2,-6,10,66,-43,4,-5
530,-3,1,26,21,55,65,42,-3
530,9,8,75,87,-48,-47,-30,2
551,-13,-14,-94,-83,-77,-91,-16,-12
551,-11,1,26,61,28,33,-32,-10
552,1,-10,-16,-11,19,42,17,10
552,21,-5,-4,-38,32,20,25,11
573,8,14,17,14,16,-49,-11,11
573,-4,2,6,-26,-36,26,4,-17
581,5,7,1,51,23,-32,13,13
581,-1,-16,-28,-28,5,71,4,9
599,-10,4,8,-56,-62,22,29,-13
599,-11,-15,2,74,-5,-40,-5,-3
599,-1,6,9,-54,-15,-29,-44,4
599,-11,-10,12,3,69,106,9,0
619,12,8,3,32,20,-110,8,1
619,-17,-8,6,-20,-88,-35,-22,-11
620,5,-1,-1,6,7,13,-11,-2
620,-24,-19,-32,-57,21,52,5,-15
634,-7,1,1,-6,48,113,26,-4
634,49,26,17,-29,9,-35,28,35
634,7,3,-22,23,-23,-51,-38,4
634,-23,-26,-50,-83,-33,-99,-34,-23
651,6,-7,4,72,22,37,18,17
651,5,7,-5,-18,25,125,32,6
651,8,7,11,5,45,-73,16,3
651,3,10,26,52,-43,-4,-15,-10
679,9,1,-1,-28,-44,-15,-7,6
679,-13,-16,-15,23,72,36,-1,-11
680,7,7,-12,-72,-32,2,-2,13
680,-15,5,-2,18,33,21,-16,-16
702,8,4,12,8,0,-67,34,8
702,-13,1,-28,-50,-56,-43,-32,-4
702,3,-2,9,9,39,42,10,-7
702,-2,8,-10,-1,-2,11,32,1
716,-6,-7,13,-42,-31,2,-44,-16
716,0,8,39,29,27,-64,-21,-1
732,-1,1,-28,-16,-48,14,31,-2
732,6,-1,8,62,3,46,8,10
734,8,7,14,5,45,15,6,6
734,-7,-2,0,12,8,-30,5,-14
734,-32,-16,-5,-7,-62,-12,-47,-27
734,24,6,25,100,42,-28,6,28
770,-7,-8,-11,43,33,82,6,5
770,9,-5,-35,-19,56,11,18,6
772,5,4,-14,-100,-81,8,18,11
772,-13,-5,8,35,-28,-77,-19,-27
773,-14,-9,-31,-33,-40,-86,-51,-10
773,2,-15,2,14,28,92,11,7
776,9,6,11,81,48,-8,15,-1
776,-9,-5,-11,-33,-20,-3,-12,-11
791,-4,2,23,9,-7,-72,-45,-23
791,9,0,3,-17,-78,57,15,26
792,-5,-9,-1,23,116,90,16,-2
792,0,11,-16,-75,-117,-17,29,7
814,-38,-17,-31,4,-25,-55,-52,-43
814,45,16,15,15,44,-4,27,51
814,-8,3,34,36,-15,32,14,-5
814,50,16,-3,11,60,-35,14,46
829,-10,-7,5,-22,-39,72,21,-1
829,-43,-12,-16,-4,-34,-124,-57,-46
830,38,8,10,44,-7,47,12,31
830,-11,23,47,100,103,18,1,-14
860,25,12,-4,-37,-41,-42,38,13
860,0,-18,-38,-61,-47,11,-28,0
860,-20,-6,-4,15,96,-42,-26,-18
860,-17,-1,15,6,-33,44,13,-30
882,6,-3,-1,-5,-6,41,13,13
882,-6,-2,10,25,64,42,0,-2
883,22,2,3,-8,-22,-82,17,-6
883,-14,-5,-15,-36,-86,-66,-37,-5
888,-32,-1,8,47,78,98,-12,-23
888,40,-3,-17,-75,-3,-104,63,42
896,-23,-8,-5,28,13,14,-31,-24
896,-5,-12,-15,-80,-74,-12,-45,-4
911,16,1,-13,-23,68,30,30,27
911,2,10,33,69,-15,44,3,-15
912,-3,-12,-14,-32,-26,0,7,-1
912,1,7,-1,17,8,-65,-16,-9
934,-3,1,12,37,10,63,-11,3
934,-23,-7,3,34,86,83,33,-17
934,34,10,-9,-41,-46,-27,76,48
934,-9,-16,-27,-45,-88,-54,-58,-8
957,4,-3,-9,3,-4,-81,-46,-8
957,-23,-2,-12,-50,-75,-23,-30,-25
958,-25,0,6,2,9,50,-24,-13
958,5,3,12,95,127,96,58,5
971,2,-5,-29,-95,-84,-84,49,2
971,-31,-15,23,84,-8,-91,-100,-51
972,-21,-18,-49,-76,-5,-26,-29,-9
972,1,-10,-20,-30,-12,114,53,19
1002,16,17,39,44,59,92,33,26
1002,-24,0,-9,-33,6,-51,4,-29
1002,9,-2,17,47,-62,-50,-21,1
1002,-14,-12,3,8,-18,-73,-68,-22
1008,10,-3,-7,9,8,26,3,8
1008,-5,-2,-16,-32,-5,47,18,-5
1023,14,4,13,0,-19,24,6,17
1023,20,5,5,6,46,12,25,7
1039,-2,1,0,-3,-44,-18,3,2
1039,-18,-11,6,-7,10,17,-3,-14
1040,41,15,0,-2,-15,-16,1,21
1040,-8,-7,-8,-12,-2,8,-4,1
1054,-16,-3,17,66,86,82,-3,-21
1054,21,14,8,-2,-18,-75,42,21
1054,-22,-9,-15,-23,-111,-75,-66,-26
1054,-25,-13,-11,-23,-22,-43,-47,-17
1077,38,9,13,66,103,44,10,27
1077,9,7,-17,-79,-22,103,57,10
1077,-24,-7,-2,3,33,7,17,-6
1077,9,-2,-8,-31,-22,-5,-15,4
1092,-21,-5,-3,-3,-44,-101,-31,-26
1092,14,5,-5,2,-13,-13,-15,15
1106,-29,-10,3,13,20,-5,-24,-28
1106,-46,-11,-1,9,80,59,5,-44
1113,28,14,10,4,9,34,53,24
1113,20,-1,0,65,42,80,60,31
1114,-6,-4,-14,2,-14,-63,-41,-23
1114,-12,-17,-11,-24,-70,-81,-75,1
1128,-46,-20,-18,3,-6,-35,-52,-44
1128,18,4,0,-3,1,42,10,10
1136,-4,-2,8,16,80,44,31,23
1136,21,8,18,11,-4,14,46,26
1151,2,0,-9,-47,-70,-8,-19,-10
1151,2,-6,-13,-25,15,13,-5,-41
1152,5,-4,1,-16,-25,7,6,63
1152,8,22,12,3,11,-12,21,102
1173,-3,0,-1,-14,-13,8,17,13
1173,-38,-15,-9,-7,-17,-34,-15,-26
1174,-7,2,5,-10,-13,-14,-22,37
1174,3,-1,-5,7,8,-10,6,-41
1188,-3,-7,-8,-13,-16,-12,-2,-15
1188,11,9,5,9,-7,-3,0,56
1196,-1,2,5,11,21,35,20,-5
1196,32,9,4,2,19,15,22,33
1211,-5,1,-19,-4,-10,-3,1,-25
1211,4,-1,8,0,-15,-26,-30,-5
1212,17,3,0,3,20,25,7,-4
1212,4,-1,-1,4,13,-9,13,-20
1234,19,1,3,2,-5,-7,-4,8
1234,-4,3,36,78,10,-25,-31,-3
1235,-7,-12,-46,-63,-62,0,5,-1
1235,4,0,-30,19,31,22,15,-19
1248,-1,1,28,15,9,-45,-9,-22
1248,-1,5,13,19,26,14,-15,8
1257,-4,5,19,27,24,26,6,-35
1257,2,9,4,-67,-12,-12,9,-14
1272,-15,-14,-16,-2,-23,-11,-9,9
1272,-6,-14,0,-13,62,-32,-24,-30
1272,-1,2,-2,-41,-40,23,7,-28
1272,-9,-7,0,-16,-14,7,4,20
1319,-23,7,28,44,7,12,2,-22
1319,42,14,20,-66,-114,-1,13,29
1319,20,-1,16,93,16,8,10,10
1319,-13,4,-24,-20,-51,-19,-8,-5
1320,-9,-7,12,-10,31,3,-9,23
1320,-53,1,25,83,13,1,-14,-16
1324,-5,-10,-23,-22,22,3,2,-16
1324,18,5,-33,61,61,10,13,-1
1341,-4,-24,-14,-78,-87,-7,-6,-5
1341,-4,6,-12,17,40,0,1,9
1342,-11,2,14,0,12,-9,-9,-33
1342,-3,-5,8,23,20,4,16,-17
1354,-25,-5,-60,-35,29,18,9,-58
1354,51,9,21,12,-2,-10,-8,-93
1355,-82,-16,11,23,5,-7,-3,27
1355,91,34,31,16,16,54,-8,12
1376,-1,1,-4,-4,-13,-44,19,-7
1376,-2,0,-22,-42,-35,-20,2,22
1377,10,2,2,-3,11,-4,-9,-2
1377,-43,-18,5,13,2,-10,-17,14
1399,-20,3,14,13,15,26,11,57
1399,11,-5,-33,-20,2,6,6,7
1400,-5,4,-5,-1,4,-8,-5,-10
1400,-3,-3,13,-8,-10,-10,2,5
1413,23,3,-4,6,2,1,-1,18
1413,-15,-7,-23,-18,-5,-4,-2,4
1414,29,9,16,9,6,12,6,3
1414,-19,-8,7,-8,-10,-4,4,-16
1437,32,8,8,13,-5,-10,-11,5
1437,3,5,-9,18,0,-1,-5,13
1438,18,5,-29,-61,-5,9,7,-3
1438,-14,-16,-16,0,-6,-6,-1,-14
1451,13,6,5,11,-1,-3,-7,2
1451,-14,-6,-6,-19,-3,5,-4,5
1451,9,7,16,17,17,3,3,-7
1451,-13,-7,-5,-7,-16,-13,-4,-18
1473,4,6,35,3,17,2,-10,3
1473,-6,-4,43,0,-10,0,-2,-2
1473,-3,-3,-9,-25,-32,-14,-2,-2
1473,1,-3,-11,2,3,-5,2,-4
1496,5,-5,0,-5,-6,1,2,1
1496,-9,-5,-14,8,12,1,0,-1
1498,-3,0,11,14,10,5,0,-6
1498,-8,-4,2,-5,-2,-3,-1,-4
1511,1,1,-10,17,3,1,-4,5
1511,-7,-3,-13,-11,-1,-2,-3,6
1511,11,1,-7,7,2,2,0,2
1511,7,0,0,-2,-6,-6,1,0
1534,-3,-2,-8,3,1,-2,-5,2
1534,-1,-2,-6,-9,-6,0,2,-1
1534,4,1,5,-3,-4,-1,1,-3
1534,-10,-4,6,6,5,-1,-1,-2
1557,3,0,0,-4,-6,-3,-5,3
1557,-8,-3,-13,-12,-5,-3,-4,-51
1557,3,2,2,14,8,8,5,25
1557,1,-2,4,-4,-1,-2,2,-3
1580,1,-2,-28,-8,-2,-1,-3,-2
1580,2,0,3,-10,-2,-1,-6,1
1580,-11,-4,-4,7,5,-1,-3,-9
1580,-8,0,2,-4,-4,-3,-6,2
1595,1,2,-1,8,-7,0,-2,-7
1595,1,-3,-13,-9,0,0,4,41
1596,-2,-2,7,3,1,0,-7,-27
1596,-2,0,10,8,3,6,11,4
1616,3,-2,-12,-4,-7,-1,1,-5
1616,1,-3,4,-1,-5,2,0,8
1618,6,0,-1,-4,-4,-2,-1,9
1618,-2,-4,-3,-3,0,-4,-8,-15
1631,-3,-1,3,-3,0,-2,-1,2
1631,3,-2,-2,0,0,-1,1,12
1631,1,-2,-6,-2,1,-1,2,-6
1631,4,2,1,2,2,-4,-2,-2
1654,2,-1,4,-4,-1,-4,0,1
1654,-2,-2,-9,-4,-1,-1,0,2
1654,-1,-2,3,5,1,1,1,-9
1654,-6,0,-5,-5,-3,-3,-3,0
1676,-1,0,3,-2,-2,-1,-2,7
1676,-8,0,1,2,-2,0,-3,-8
1678,9,0,0,0,-1,-2,-1,7
1678,5,-2,1,-3,-2,0,1,9
1691,-3,1,-2,-2,-2,0,-6,-1
1691,-10,0,0,0,-1,-3,-5,-3
