0,-1,-1,2,0,-2,-2,-1,0,0.966309,-0.0380859,0.166992,-3.5,1.8125,1.125,-0.225414,-1.39269,0.0429584
0,1,-2,-3,-1,-4,-2,1,0,0.966309,-0.0380859,0.166992,-3.5,1.8125,1.125,-0.225414,-1.39269,0.0429584
4,2,0,-3,-5,0,4,0,1,0.966309,-0.0380859,0.166992,-3.5,1.8125,1.125,-0.225414,-1.39269,0.0429584
4,3,-3,-3,-3,1,3,-2,-3,0.966309,-0.0380859,0.166992,-3.5,1.8125,1.125,-0.225414,-1.39269,0.0429584
6,1,-1,4,-4,-2,-3,0,-3,0.966309,-0.0380859,0.166992,-3.5,1.8125,1.125,-0.225414,-1.39269,0.0429584
6,-1,-1,4,-5,-5,-4,-2,-2,0.966309,-0.0380859,0.166992,-3.5,1.8125,1.125,-0.225414,-1.39269,0.0429584
8,0,-3,-3,-3,-4,-4,-2,-2,0.966309,-0.0380859,0.166992,-3.5,1.8125,1.125,-0.225414,-1.39269,0.0429584
8,-4,-1,-3,1,-2,-3,-1,0,0.966309,-0.0380859,0.166992,-3.5,1.8125,1.125,-0.225414,-1.39269,0.0429584
11,-2,-2,-8,0,4,-1,3,2,0.943359,-0.0473633,0.178223,0.9375,0.5625,1.625,-0.228551,-1.39169,0.0464886
11,-3,-1,-9,2,7,-2,2,0,0.943359,-0.0473633,0.178223,0.9375,0.5625,1.625,-0.228551,-1.39169,0.0464886
24,-4,-4,-2,-1,3,1,1,-2,0.943359,-0.0473633,0.178223,0.9375,0.5625,1.625,-0.228551,-1.39169,0.0464886
24,-1,-4,1,0,-4,2,-2,1,0.943359,-0.0473633,0.178223,0.9375,0.5625,1.625,-0.228551,-1.39169,0.0464886
36,-1,0,3,-1,-6,0,-4,1,0.949219,-0.0424805,0.175781,5.9375,-1,1.25,-0.22952,-1.39166,0.0495711
36,-2,0,4,-1,-5,-3,-7,2,0.949219,-0.0424805,0.175781,5.9375,-1,1.25,-0.22952,-1.39166,0.0495711
39,-1,1,1,1,-2,-5,-3,2,0.949219,-0.0424805,0.175781,5.9375,-1,1.25,-0.22952,-1.39166,0.0495711
39,1,-2,3,-5,-3,-3,-2,-4,0.949219,-0.0424805,0.175781,5.9375,-1,1.25,-0.22952,-1.39166,0.0495711
55,-1,-1,-3,0,-4,3,-5,-3,0.970703,-0.0395508,0.170898,7.4375,-2.0625,0.625,-0.229128,-1.39251,0.0518256
55,2,0,-5,1,-1,6,1,-4,0.970703,-0.0395508,0.170898,7.4375,-2.0625,0.625,-0.229128,-1.39251,0.0518256
71,-1,-1,-1,-1,-2,0,6,-4,0.970703,-0.0395508,0.170898,7.4375,-2.0625,0.625,-0.229128,-1.39251,0.0518256
71,-2,0,-3,-7,1,0,3,0,0.970703,-0.0395508,0.170898,7.4375,-2.0625,0.625,-0.229128,-1.39251,0.0518256
72,-3,2,-5,-6,2,-1,0,-2,0.984375,-0.0307617,0.15625,4.875,-1.875,0.625,-0.228017,-1.39314,0.0525284
72,-2,5,-3,-1,-3,-2,-1,-2,0.984375,-0.0307617,0.15625,4.875,-1.875,0.625,-0.228017,-1.39314,0.0525284
119,1,-3,-1,-1,-1,-5,2,-1,0.992188,-0.0234375,0.124512,-3.4375,-0.1875,0.9375,-0.231295,-1.39565,0.0551093
119,0,-6,-1,-2,1,-3,1,-1,0.992188,-0.0234375,0.124512,-3.4375,-0.1875,0.9375,-0.231295,-1.39565,0.0551093
120,-1,-2,-2,1,-2,-2,-2,0,0.992188,-0.0234375,0.124512,-3.4375,-0.1875,0.9375,-0.231295,-1.39565,0.0551093
120,-1,-6,0,1,1,0,-2,-2,0.992188,-0.0234375,0.124512,-3.4375,-0.1875,0.9375,-0.231295,-1.39565,0.0551093
122,-1,-3,-3,-1,-3,0,-3,-4,0.992188,-0.0234375,0.124512,-3.4375,-0.1875,0.9375,-0.231295,-1.39565,0.0551093
122,-1,-2,-3,0,-1,-2,-5,-6,0.992188,-0.0234375,0.124512,-3.4375,-0.1875,0.9375,-0.231295,-1.39565,0.0551093
123,1,-1,-1,-2,1,-2,0,-1,0.992188,-0.0234375,0.124512,-3.4375,-0.1875,0.9375,-0.231295,-1.39565,0.0551093
123,0,-3,-1,-3,0,1,-1,2,0.992188,-0.0234375,0.124512,-3.4375,-0.1875,0.9375,-0.231295,-1.39565,0.0551093
130,-1,-2,-1,-2,-1,1,4,6,0.992188,-0.0234375,0.124512,-3.4375,-0.1875,0.9375,-0.231295,-1.39565,0.0551093
130,1,0,-2,-4,-2,-1,5,5,0.992188,-0.0234375,0.124512,-3.4375,-0.1875,0.9375,-0.231295,-1.39565,0.0551093
138,0,2,0,-2,1,1,-1,-1,0.988281,-0.0224609,0.130859,-7.0625,0.1875,1.5625,-0.235319,-1.39683,0.0566581
138,-3,1,0,2,4,1,-6,-4,0.988281,-0.0224609,0.130859,-7.0625,0.1875,1.5625,-0.235319,-1.39683,0.0566581
144,-3,1,0,-5,2,-2,-7,-4,0.988281,-0.0224609,0.130859,-7.0625,0.1875,1.5625,-0.235319,-1.39683,0.0566581
144,-2,3,-1,-1,-1,-5,-5,-3,0.988281,-0.0224609,0.130859,-7.0625,0.1875,1.5625,-0.235319,-1.39683,0.0566581
159,-2,2,-1,-3,-3,-2,0,-1,0.984863,-0.0366211,0.141113,-8.375,0.125,1.9375,-0.242491,-1.39697,0.0609869
159,2,-1,3,-5,-5,-1,2,0,0.984863,-0.0366211,0.141113,-8.375,0.125,1.9375,-0.242491,-1.39697,0.0609869
167,2,-3,0,-1,-1,4,0,-2,0.984863,-0.0366211,0.141113,-8.375,0.125,1.9375,-0.242491,-1.39697,0.0609869
167,-1,-2,-1,1,1,2,0,1,0.984863,-0.0366211,0.141113,-8.375,0.125,1.9375,-0.242491,-1.39697,0.0609869
191,-1,-2,-1,1,-2,1,-4,-1,0.991699,-0.0551758,0.147949,-7.25,-0.3125,1.8125,-0.250592,-1.39701,0.0666312
191,-4,-4,0,0,-2,-1,-3,-1,0.991699,-0.0551758,0.147949,-7.25,-0.3125,1.8125,-0.250592,-1.39701,0.0666312
191,-5,0,-2,0,-2,-2,4,0,0.991699,-0.0551758,0.147949,-7.25,-0.3125,1.8125,-0.250592,-1.39701,0.0666312
191,4,2,-2,1,-1,-5,0,1,0.991699,-0.0551758,0.147949,-7.25,-0.3125,1.8125,-0.250592,-1.39701,0.0666312
205,3,0,-5,-1,0,-3,-4,0,1.01953,-0.043457,0.150391,-7.3125,-0.625,1.1875,-0.256391,-1.39759,0.0699976
205,4,1,0,-1,-2,-5,-3,-1,1.01953,-0.043457,0.150391,-7.3125,-0.625,1.1875,-0.256391,-1.39759,0.0699976
206,-3,0,1,-1,-2,-1,0,-2,1.01953,-0.043457,0.150391,-7.3125,-0.625,1.1875,-0.256391,-1.39759,0.0699976
206,-7,1,-2,0,-2,3,3,-2,1.01953,-0.043457,0.150391,-7.3125,-0.625,1.1875,-0.256391,-1.39759,0.0699976
228,-5,-4,3,0,0,2,0,-1,1.0332,-0.034668,0.141602,-10.8125,-1.5,0.75,-0.262147,-1.39927,0.0719577
228,-1,-4,1,-6,0,-3,3,1,1.0332,-0.034668,0.141602,-10.8125,-1.5,0.75,-0.262147,-1.39927,0.0719577
228,4,-5,0,-1,-5,-2,1,0,1.0332,-0.034668,0.141602,-10.8125,-1.5,0.75,-0.262147,-1.39927,0.0719577
228,2,-3,-4,3,-1,2,-1,-4,1.0332,-0.034668,0.141602,-10.8125,-1.5,0.75,-0.262147,-1.39927,0.0719577
251,2,1,-6,2,-1,-5,0,-2,1.03857,-0.0249023,0.125977,-17.25,-1.9375,0.3125,-0.268419,-1.40099,0.0722436
251,-3,2,-6,2,3,1,1,-3,1.03857,-0.0249023,0.125977,-17.25,-1.9375,0.3125,-0.268419,-1.40099,0.0722436
252,-1,2,2,1,4,0,-2,-2,1.03857,-0.0249023,0.125977,-17.25,-1.9375,0.3125,-0.268419,-1.40099,0.0722436
252,2,-2,3,-2,-3,-2,-2,0,1.03857,-0.0249023,0.125977,-17.25,-1.9375,0.3125,-0.268419,-1.40099,0.0722436
264,0,-4,4,-5,0,-1,-1,0,1.04785,-0.0283203,0.115723,-23.625,-2,0.375,-0.277792,-1.40326,0.073409
264,1,-1,0,-5,-7,-3,-5,-1,1.04785,-0.0283203,0.115723,-23.625,-2,0.375,-0.277792,-1.40326,0.073409
272,1,-2,-3,-6,-4,-2,-3,0,1.04785,-0.0283203,0.115723,-23.625,-2,0.375,-0.277792,-1.40326,0.073409
272,-5,-2,-3,0,1,1,-4,-2,1.04785,-0.0283203,0.115723,-23.625,-2,0.375,-0.277792,-1.40326,0.073409
288,-1,-2,3,3,-3,2,-2,0,1.04346,-0.0405273,0.11377,-28.6875,-2.625,-0.125,-0.289734,-1.4049,0.0754538
288,-2,-4,-3,1,-2,0,2,1,1.04346,-0.0405273,0.11377,-28.6875,-2.625,-0.125,-0.289734,-1.4049,0.0754538
288,0,-1,-5,3,3,0,-1,4,1.04346,-0.0405273,0.11377,-28.6875,-2.625,-0.125,-0.289734,-1.4049,0.0754538
288,2,0,-1,1,-3,-5,-3,1,1.04346,-0.0405273,0.11377,-28.6875,-2.625,-0.125,-0.289734,-1.4049,0.0754538
311,-2,-1,-6,-1,2,-5,0,1,1.02295,-0.0375977,0.112305,-32.1875,-3.375,-0.75,-0.301922,-1.40777,0.0763217
311,-1,1,-4,-1,0,-3,-3,1,1.02295,-0.0375977,0.112305,-32.1875,-3.375,-0.75,-0.301922,-1.40777,0.0763217
311,-1,-3,4,2,-4,-2,-2,-1,1.02295,-0.0375977,0.112305,-32.1875,-3.375,-0.75,-0.301922,-1.40777,0.0763217
311,2,-2,2,-5,-1,0,5,-3,1.02295,-0.0375977,0.112305,-32.1875,-3.375,-0.75,-0.301922,-1.40777,0.0763217
324,-1,-3,4,-2,-1,2,5,-1,0.996582,-0.0400391,0.128906,-33.75,-4.8125,-0.75,-0.315556,-1.41036,0.0781472
324,0,0,1,-3,-3,1,4,-1,0.996582,-0.0400391,0.128906,-33.75,-4.8125,-0.75,-0.315556,-1.41036,0.0781472
333,-2,0,-4,-2,-1,1,-1,0,0.996582,-0.0400391,0.128906,-33.75,-4.8125,-0.75,-0.315556,-1.41036,0.0781472
333,-1,0,0,-1,1,0,-5,-3,0.996582,-0.0400391,0.128906,-33.75,-4.8125,-0.75,-0.315556,-1.41036,0.0781472
348,-4,1,-2,1,0,1,-1,-8,0.983398,-0.0576172,0.131348,-33.625,-7.3125,-1.875,-0.330009,-1.41266,0.0810007
348,-2,-3,-5,1,0,2,-1,-2,0.983398,-0.0576172,0.131348,-33.625,-7.3125,-1.875,-0.330009,-1.41266,0.0810007
349,-5,2,1,-5,-2,0,1,0,0.983398,-0.0576172,0.131348,-33.625,-7.3125,-1.875,-0.330009,-1.41266,0.0810007
349,0,1,3,-2,-3,-1,3,0,0.983398,-0.0576172,0.131348,-33.625,-7.3125,-1.875,-0.330009,-1.41266,0.0810007
371,2,3,-4,-1,-3,-7,-2,-3,0.986328,-0.0634766,0.120605,-32.375,-9.125,-3.875,-0.34277,-1.41669,0.0823436
371,2,5,-4,0,-2,-6,-3,-1,0.986328,-0.0634766,0.120605,-32.375,-9.125,-3.875,-0.34277,-1.41669,0.0823436
371,1,0,-8,3,1,-3,3,-1,0.986328,-0.0634766,0.120605,-32.375,-9.125,-3.875,-0.34277,-1.41669,0.0823436
371,2,-1,1,0,-3,0,-3,5,0.986328,-0.0634766,0.120605,-32.375,-9.125,-3.875,-0.34277,-1.41669,0.0823436
385,0,-2,2,-3,-2,0,-1,0,0.983398,-0.0732422,0.11377,-31.4375,-10.5,-6.1875,-0.353552,-1.42112,0.0821901
385,-3,-4,6,-2,0,2,-4,-3,0.983398,-0.0732422,0.11377,-31.4375,-10.5,-6.1875,-0.353552,-1.42112,0.0821901
393,-2,-1,2,3,0,2,-4,-2,0.983398,-0.0732422,0.11377,-31.4375,-10.5,-6.1875,-0.353552,-1.42112,0.0821901
393,-5,-3,0,0,1,0,-5,-1,0.983398,-0.0732422,0.11377,-31.4375,-10.5,-6.1875,-0.353552,-1.42112,0.0821901
408,2,-5,-4,-4,2,-1,-6,-2,0.974609,-0.0742188,0.103027,-31,-11.8125,-8,-0.361822,-1.42707,0.0792384
408,2,-2,-5,-1,2,1,-6,0,0.974609,-0.0742188,0.103027,-31,-11.8125,-8,-0.361822,-1.42707,0.0792384
409,0,-2,-3,2,-6,1,-1,-3,0.974609,-0.0742188,0.103027,-31,-11.8125,-8,-0.361822,-1.42707,0.0792384
409,0,-1,0,1,-1,-5,2,-2,0.974609,-0.0742188,0.103027,-31,-11.8125,-8,-0.361822,-1.42707,0.0792384
431,2,-1,0,3,-4,-5,0,1,0.985352,-0.0791016,0.0947266,-31.6875,-12.875,-10.6875,-0.36719,-1.43229,0.0735735
431,0,0,0,-3,-1,-2,2,-5,0.985352,-0.0791016,0.0947266,-31.6875,-12.875,-10.6875,-0.36719,-1.43229,0.0735735
432,2,2,4,-6,2,-3,-1,-2,0.985352,-0.0791016,0.0947266,-31.6875,-12.875,-10.6875,-0.36719,-1.43229,0.0735735
432,-2,-1,-1,-6,2,1,1,0,0.985352,-0.0791016,0.0947266,-31.6875,-12.875,-10.6875,-0.36719,-1.43229,0.0735735
453,-2,-3,-1,0,-1,-1,0,0,0.992676,-0.081543,0.0874023,-32.5,-12.6875,-13.4375,-0.365614,-1.43865,0.060421
453,-1,-3,0,0,1,-2,1,1,0.992676,-0.081543,0.0874023,-32.5,-12.6875,-13.4375,-0.365614,-1.43865,0.060421
454,-3,-4,1,-2,2,-1,1,-2,0.992676,-0.081543,0.0874023,-32.5,-12.6875,-13.4375,-0.365614,-1.43865,0.060421
454,-2,-2,0,-1,-1,-2,-5,1,0.992676,-0.081543,0.0874023,-32.5,-12.6875,-13.4375,-0.365614,-1.43865,0.060421
468,-5,4,-1,1,2,4,-4,2,0.997559,-0.0478516,0.0688477,-35.9375,-10.8125,-15.5625,-0.353776,-1.44538,0.0356258
468,-2,5,-1,4,-2,2,0,0,0.997559,-0.0478516,0.0688477,-35.9375,-10.8125,-15.5625,-0.353776,-1.44538,0.0356258
469,-3,3,-5,1,-4,-1,5,0,0.997559,-0.0478516,0.0688477,-35.9375,-10.8125,-15.5625,-0.353776,-1.44538,0.0356258
469,0,-1,-5,2,0,2,4,-3,0.997559,-0.0478516,0.0688477,-35.9375,-10.8125,-15.5625,-0.353776,-1.44538,0.0356258
491,-2,-6,-3,-3,-6,1,2,-4,0.993652,-0.0292969,0.0507812,-45.0625,-8.75,-16.8125,-0.334731,-1.45211,0.000479156
491,1,-3,-7,-4,-4,-3,0,-2,0.993652,-0.0292969,0.0507812,-45.0625,-8.75,-16.8125,-0.334731,-1.45211,0.000479156
492,0,-5,0,-5,-3,0,-4,-2,0.993652,-0.0292969,0.0507812,-45.0625,-8.75,-16.8125,-0.334731,-1.45211,0.000479156
492,0,-3,2,-3,-4,-6,-5,-3,0.993652,-0.0292969,0.0507812,-45.0625,-8.75,-16.8125,-0.334731,-1.45211,0.000479156
505,2,0,4,1,0,-3,-7,0,0.989258,-0.03125,0.0400391,-57.625,-6.4375,-18.125,-0.314032,-1.45755,-0.0405303
505,0,2,2,-2,3,-1,-4,1,0.989258,-0.03125,0.0400391,-57.625,-6.4375,-18.125,-0.314032,-1.45755,-0.0405303
513,-1,-2,1,0,3,-1,-4,0,0.989258,-0.03125,0.0400391,-57.625,-6.4375,-18.125,-0.314032,-1.45755,-0.0405303
513,-2,-1,-6,-1,1,0,-2,-1,0.989258,-0.03125,0.0400391,-57.625,-6.4375,-18.125,-0.314032,-1.45755,-0.0405303
527,-5,0,-5,-1,-1,-1,3,-2,0.981934,-0.0415039,0.0351562,-67,-3.875,-19.5625,-0.289515,-1.46239,-0.0888612
527,-6,2,-5,-1,-1,0,1,0,0.981934,-0.0415039,0.0351562,-67,-3.875,-19.5625,-0.289515,-1.46239,-0.0888612
535,0,1,-2,-1,-2,2,-2,0,0.987305,-0.0493164,0.0332031,-73.125,-0.9375,-21.5625,-0.257417,-1.46627,-0.146936
535,1,-3,-1,-9,-2,6,-2,-1,0.987305,-0.0493164,0.0332031,-73.125,-0.9375,-21.5625,-0.257417,-1.46627,-0.146936
550,2,-4,-3,-5,-5,-1,-1,0,0.987305,-0.0493164,0.0332031,-73.125,-0.9375,-21.5625,-0.257417,-1.46627,-0.146936
550,0,-5,-4,0,-4,-6,0,0,0.987305,-0.0493164,0.0332031,-73.125,-0.9375,-21.5625,-0.257417,-1.46627,-0.146936
552,0,1,-5,3,1,-2,2,0,0.984863,-0.059082,0.0429688,-77.875,1.3125,-22.8125,-0.221038,-1.46866,-0.210909
552,-2,3,0,3,1,0,3,1,0.984863,-0.059082,0.0429688,-77.875,1.3125,-22.8125,-0.221038,-1.46866,-0.210909
573,-1,1,2,-2,-2,2,2,1,0.984863,-0.059082,0.0429688,-77.875,1.3125,-22.8125,-0.221038,-1.46866,-0.210909
573,-1,0,7,-1,-1,-2,-1,-1,0.984863,-0.059082,0.0429688,-77.875,1.3125,-22.8125,-0.221038,-1.46866,-0.210909
574,-1,-2,5,3,0,-5,-4,-4,0.992188,-0.0605469,0.0395508,-81,2.625,-24.875,-0.177753,-1.47029,-0.282809
574,1,0,5,2,3,-8,-4,-1,0.992188,-0.0605469,0.0395508,-81,2.625,-24.875,-0.177753,-1.47029,-0.282809
587,-3,1,5,-1,5,-3,0,-3,0.992188,-0.0605469,0.0395508,-81,2.625,-24.875,-0.177753,-1.47029,-0.282809
587,-5,-1,-1,-2,0,1,0,-3,0.992188,-0.0605469,0.0395508,-81,2.625,-24.875,-0.177753,-1.47029,-0.282809
602,-2,-3,-5,-4,-5,2,-3,1,1.0083,-0.0664062,0.0439453,-83.5,4.0625,-26.9375,-0.1275,-1.47248,-0.363242
602,-2,-4,-8,0,-4,-1,1,1,1.0083,-0.0664062,0.0439453,-83.5,4.0625,-26.9375,-0.1275,-1.47248,-0.363242
611,0,-5,-4,3,-3,0,-2,3,1.0083,-0.0664062,0.0439453,-83.5,4.0625,-26.9375,-0.1275,-1.47248,-0.363242
611,0,-1,0,-1,2,-2,-1,0,1.0083,-0.0664062,0.0439453,-83.5,4.0625,-26.9375,-0.1275,-1.47248,-0.363242
612,1,0,4,-6,0,-3,3,-3,1.0376,-0.0576172,0.0419922,-87.4375,4.8125,-29.375,-0.0667756,-1.47213,-0.454656
612,5,1,4,-4,-1,0,3,-5,1.0376,-0.0576172,0.0419922,-87.4375,4.8125,-29.375,-0.0667756,-1.47213,-0.454656
624,1,1,-2,-2,0,0,0,-4,1.0376,-0.0576172,0.0419922,-87.4375,4.8125,-29.375,-0.0667756,-1.47213,-0.454656
624,1,-3,-7,2,-2,2,0,-3,1.0376,-0.0576172,0.0419922,-87.4375,4.8125,-29.375,-0.0667756,-1.47213,-0.454656
633,-2,-2,-11,2,-1,3,-3,0,1.0498,-0.0668945,0.0581055,-91.3125,4.5,-31.375,-0.00523043,-1.47157,-0.54839
633,-3,-2,-7,0,-4,4,-6,3,1.0498,-0.0668945,0.0581055,-91.3125,4.5,-31.375,-0.00523043,-1.47157,-0.54839
646,-1,0,1,-3,-1,-5,-4,1,1.0498,-0.0668945,0.0581055,-91.3125,4.5,-31.375,-0.00523043,-1.47157,-0.54839
646,-2,1,-1,2,-4,-3,-1,2,1.0498,-0.0668945,0.0581055,-91.3125,4.5,-31.375,-0.00523043,-1.47157,-0.54839
655,0,-1,4,2,5,-3,-1,-4,1.0542,-0.0771484,0.0756836,-92.625,3.75,-33.0625,0.0571273,-1.47167,-0.644265
655,-4,-6,7,0,3,-2,1,-4,1.0542,-0.0771484,0.0756836,-92.625,3.75,-33.0625,0.0571273,-1.47167,-0.644265
670,-4,0,-1,1,-1,-1,5,-2,1.0542,-0.0771484,0.0756836,-92.625,3.75,-33.0625,0.0571273,-1.47167,-0.644265
670,0,1,1,-1,-1,-1,3,1,1.0542,-0.0771484,0.0756836,-92.625,3.75,-33.0625,0.0571273,-1.47167,-0.644265
672,4,-2,-2,1,-2,-4,0,2,1.05908,-0.0561523,0.0854492,-92.25,2.875,-34.75,0.126678,-1.47004,-0.746646
672,0,0,-5,-2,2,3,0,0,1.05908,-0.0561523,0.0854492,-92.25,2.875,-34.75,0.126678,-1.47004,-0.746646
694,-5,-1,-2,-2,2,2,0,-3,1.05908,-0.0561523,0.0854492,-92.25,2.875,-34.75,0.126678,-1.47004,-0.746646
694,-4,-2,5,-1,-1,-3,-4,1,1.05908,-0.0561523,0.0854492,-92.25,2.875,-34.75,0.126678,-1.47004,-0.746646
695,-1,1,4,-4,-3,-2,-4,3,1.05176,-0.0390625,0.100098,-93.5625,1.3125,-35.5625,0.198876,-1.46805,-0.85239
695,1,0,-4,-3,-3,-3,-2,3,1.05176,-0.0390625,0.100098,-93.5625,1.3125,-35.5625,0.198876,-1.46805,-0.85239
707,1,1,-5,-5,-2,-1,-3,1,1.05176,-0.0390625,0.100098,-93.5625,1.3125,-35.5625,0.198876,-1.46805,-0.85239
707,-2,1,-6,-7,-2,0,-4,-2,1.05176,-0.0390625,0.100098,-93.5625,1.3125,-35.5625,0.198876,-1.46805,-0.85239
716,-1,2,-3,0,-1,0,2,-1,1.04639,-0.027832,0.104492,-96.125,-1,-36.125,0.269509,-1.46532,-0.956919
716,-1,1,2,2,-5,-1,2,-1,1.04639,-0.027832,0.104492,-96.125,-1,-36.125,0.269509,-1.46532,-0.956919
746,1,-3,-1,1,-1,-2,2,-3,1.04639,-0.027832,0.104492,-96.125,-1,-36.125,0.269509,-1.46532,-0.956919
746,1,-2,1,0,2,1,2,-4,1.04639,-0.027832,0.104492,-96.125,-1,-36.125,0.269509,-1.46532,-0.956919
748,-3,-2,1,-3,0,2,-4,-3,1.01172,-0.0366211,0.130371,-95.8125,-4.5,-35.375,0.333511,-1.46337,-1.05525
748,-4,0,2,-3,-2,-3,-6,-2,1.01172,-0.0366211,0.130371,-95.8125,-4.5,-35.375,0.333511,-1.46337,-1.05525
753,-3,-1,2,-4,-2,-1,-6,1,1.01172,-0.0366211,0.130371,-95.8125,-4.5,-35.375,0.333511,-1.46337,-1.05525
753,1,-1,-1,-1,1,-1,-4,0,1.01172,-0.0366211,0.130371,-95.8125,-4.5,-35.375,0.333511,-1.46337,-1.05525
755,-3,-1,0,2,-3,-3,-1,-1,0.968262,-0.0449219,0.135742,-89.6875,-8.125,-34.8125,0.394264,-1.4615,-1.14808
755,-2,-2,-2,3,-2,-6,1,-1,0.968262,-0.0449219,0.135742,-89.6875,-8.125,-34.8125,0.394264,-1.4615,-1.14808
767,1,-3,-4,3,-3,-2,-1,3,0.968262,-0.0449219,0.135742,-89.6875,-8.125,-34.8125,0.394264,-1.4615,-1.14808
767,3,-2,-4,-1,-2,-1,0,3,0.968262,-0.0449219,0.135742,-89.6875,-8.125,-34.8125,0.394264,-1.4615,-1.14808
776,2,-1,-4,-3,-1,2,2,0,0.932617,-0.0405273,0.148438,-79.9375,-11.375,-34.4375,0.456805,-1.45953,-1.23923
776,-1,0,-3,-1,-1,3,1,-4,0.932617,-0.0405273,0.148438,-79.9375,-11.375,-34.4375,0.456805,-1.45953,-1.23923
791,-3,0,1,-1,1,3,-1,-3,0.932617,-0.0405273,0.148438,-79.9375,-11.375,-34.4375,0.456805,-1.45953,-1.23923
791,-3,-1,4,2,2,0,2,-5,0.932617,-0.0405273,0.148438,-79.9375,-11.375,-34.4375,0.456805,-1.45953,-1.23923
792,-6,1,-2,1,1,-3,1,-3,0.912109,-0.0463867,0.149414,-69.8125,-14.5625,-34.5625,0.523251,-1.45879,-1.33121
792,-3,0,-3,-2,1,-3,-1,-2,0.912109,-0.0463867,0.149414,-69.8125,-14.5625,-34.5625,0.523251,-1.45879,-1.33121
813,1,-2,2,-1,-1,-4,0,0,0.912109,-0.0463867,0.149414,-69.8125,-14.5625,-34.5625,0.523251,-1.45879,-1.33121
813,-1,-1,2,2,-1,0,2,-2,0.912109,-0.0463867,0.149414,-69.8125,-14.5625,-34.5625,0.523251,-1.45879,-1.33121
815,2,0,1,-2,-1,-4,3,-1,0.915039,-0.0375977,0.150879,-61.8125,-17,-35.1875,0.595184,-1.45607,-1.42517
815,4,-1,-1,0,-4,1,1,0,0.915039,-0.0375977,0.150879,-61.8125,-17,-35.1875,0.595184,-1.45607,-1.42517
827,0,0,-5,-2,-3,1,0,1,0.915039,-0.0375977,0.150879,-61.8125,-17,-35.1875,0.595184,-1.45607,-1.42517
827,1,-1,1,-3,0,0,-3,3,0.915039,-0.0375977,0.150879,-61.8125,-17,-35.1875,0.595184,-1.45607,-1.42517
835,-2,-2,-1,-2,0,0,-4,4,0.932617,-0.0151367,0.141113,-57,-18.75,-35.4375,0.673145,-1.45461,-1.5242
835,2,2,2,-1,2,0,-5,-1,0.932617,-0.0151367,0.141113,-57,-18.75,-35.4375,0.673145,-1.45461,-1.5242
851,2,1,-2,-3,4,-2,-2,-2,0.932617,-0.0151367,0.141113,-57,-18.75,-35.4375,0.673145,-1.45461,-1.5242
851,4,-5,-4,-2,1,-2,-5,-4,0.932617,-0.0151367,0.141113,-57,-18.75,-35.4375,0.673145,-1.45461,-1.5242
852,3,-4,-5,-2,-2,0,-1,-3,0.945801,0.000976562,0.129395,-56.0625,-19.8125,-35.1875,0.752339,-1.45186,-1.62385
852,-1,0,-5,2,-2,2,5,0,0.945801,0.000976562,0.129395,-56.0625,-19.8125,-35.1875,0.752339,-1.45186,-1.62385
873,-5,0,0,3,-1,3,5,-3,0.945801,0.000976562,0.129395,-56.0625,-19.8125,-35.1875,0.752339,-1.45186,-1.62385
873,-7,0,3,5,-3,-2,4,0,0.945801,0.000976562,0.129395,-56.0625,-19.8125,-35.1875,0.752339,-1.45186,-1.62385
875,-6,-2,2,3,-3,-3,-6,-1,0.958984,0.00537109,0.137695,-59,-20.3125,-35.125,0.824747,-1.44905,-1.71798
875,-5,-4,-4,-4,-3,-1,-9,-2,0.958984,0.00537109,0.137695,-59,-20.3125,-35.125,0.824747,-1.44905,-1.71798
887,1,0,0,-3,-2,-3,-4,-1,0.958984,0.00537109,0.137695,-59,-20.3125,-35.125,0.824747,-1.44905,-1.71798
887,0,-1,-1,-1,-1,-1,0,0,0.958984,0.00537109,0.137695,-59,-20.3125,-35.125,0.824747,-1.44905,-1.71798
896,1,-1,0,1,-2,0,-1,1,0.977539,0.0078125,0.134766,-62.75,-20.75,-34.6875,0.890164,-1.4457,-1.80622
896,0,1,-1,0,-1,-4,-2,3,0.977539,0.0078125,0.134766,-62.75,-20.75,-34.6875,0.890164,-1.4457,-1.80622
911,1,-1,-5,-2,1,-4,-2,0,0.977539,0.0078125,0.134766,-62.75,-20.75,-34.6875,0.890164,-1.4457,-1.80622
911,1,-2,-5,-4,-2,1,-3,0,0.977539,0.0078125,0.134766,-62.75,-20.75,-34.6875,0.890164,-1.4457,-1.80622
913,1,-5,-2,-1,1,1,-1,-5,0.980469,-0.00439453,0.147461,-63.875,-20.8125,-33.8125,0.944689,-1.44129,-1.884
913,-1,-4,0,-4,0,0,-1,-2,0.980469,-0.00439453,0.147461,-63.875,-20.8125,-33.8125,0.944689,-1.44129,-1.884
933,-3,-4,3,0,-2,-3,-2,-3,0.980469,-0.00439453,0.147461,-63.875,-20.8125,-33.8125,0.944689,-1.44129,-1.884
933,-3,-3,-2,-2,-4,-4,2,-1,0.980469,-0.00439453,0.147461,-63.875,-20.8125,-33.8125,0.944689,-1.44129,-1.884
935,-2,-1,-1,-5,-4,-3,5,0,0.977051,-0.00146484,0.166992,-62,-20.75,-32.3125,0.989645,-1.43705,-1.95165
935,-1,1,-1,-2,-3,1,5,0,0.977051,-0.00146484,0.166992,-62,-20.75,-32.3125,0.989645,-1.43705,-1.95165
947,-4,2,3,1,-2,2,2,-2,0.977051,-0.00146484,0.166992,-62,-20.75,-32.3125,0.989645,-1.43705,-1.95165
947,-3,3,0,-1,1,4,-1,-2,0.977051,-0.00146484,0.166992,-62,-20.75,-32.3125,0.989645,-1.43705,-1.95165
956,1,3,1,0,2,4,0,-1,0.956543,0.0229492,0.167969,-60.0625,-20.0625,-30.375,1.02805,-1.43212,-2.01193
956,3,-2,-5,-1,3,-1,1,-2,0.956543,0.0229492,0.167969,-60.0625,-20.0625,-30.375,1.02805,-1.43212,-2.01193
971,1,0,-4,-2,1,-4,-1,-1,0.956543,0.0229492,0.167969,-60.0625,-20.0625,-30.375,1.02805,-1.43212,-2.01193
971,-2,-3,2,3,0,-2,0,-1,0.956543,0.0229492,0.167969,-60.0625,-20.0625,-30.375,1.02805,-1.43212,-2.01193
972,0,-1,-2,1,2,-1,-3,-2,0.932129,0.0327148,0.175781,-58.6875,-19.625,-26.9375,1.05851,-1.42773,-2.06392
972,-1,-6,-2,-1,-1,0,-5,0,0.932129,0.0327148,0.175781,-58.6875,-19.625,-26.9375,1.05851,-1.42773,-2.06392
993,-1,-5,-9,1,-1,-2,0,-1,0.932129,0.0327148,0.175781,-58.6875,-19.625,-26.9375,1.05851,-1.42773,-2.06392
993,-1,-1,-3,-1,-2,-3,-1,-3,0.932129,0.0327148,0.175781,-58.6875,-19.625,-26.9375,1.05851,-1.42773,-2.06392
995,-5,0,-6,-8,0,-1,0,-2,0.914551,0.0332031,0.187012,-56.5625,-19.8125,-23.8125,1.08182,-1.42396,-2.10789
995,0,3,1,-4,0,-2,-1,-6,0.914551,0.0332031,0.187012,-56.5625,-19.8125,-23.8125,1.08182,-1.42396,-2.10789
1007,3,-1,1,-2,-6,-2,-1,-4,0.914551,0.0332031,0.187012,-56.5625,-19.8125,-23.8125,1.08182,-1.42396,-2.10789
1007,5,0,1,-4,-5,-6,2,-1,0.914551,0.0332031,0.187012,-56.5625,-19.8125,-23.8125,1.08182,-1.42396,-2.10789
1024,3,-2,2,3,0,-2,0,5,0.910645,0.015625,0.196289,-52.1875,-20.1875,-21.375,1.10059,-1.42185,-2.14584
1024,-1,-2,-2,2,2,-1,-2,6,0.910645,0.015625,0.196289,-52.1875,-20.1875,-21.375,1.10059,-1.42185,-2.14584
1031,-5,-1,3,3,-1,0,-7,1,0.910645,0.015625,0.196289,-52.1875,-20.1875,-21.375,1.10059,-1.42185,-2.14584
1031,-5,0,2,4,-3,-1,-2,-1,0.910645,0.015625,0.196289,-52.1875,-20.1875,-21.375,1.10059,-1.42185,-2.14584
1033,0,-1,-1,-1,-4,-4,2,-2,0.919434,0.00341797,0.199707,-46,-20.1875,-19.25,1.11707,-1.4199,-2.17943
1033,-1,-2,0,0,-3,-1,3,1,0.919434,0.00341797,0.199707,-46,-20.1875,-19.25,1.11707,-1.4199,-2.17943
1053,2,2,-1,-1,1,2,4,-2,0.919434,0.00341797,0.199707,-46,-20.1875,-19.25,1.11707,-1.4199,-2.17943
1053,-1,1,1,-3,3,2,1,-5,0.919434,0.00341797,0.199707,-46,-20.1875,-19.25,1.11707,-1.4199,-2.17943
1054,-4,-7,1,-1,1,0,-5,-3,0.92334,0.0117188,0.20166,-39.625,-20.0625,-17.375,1.13202,-1.41825,-2.20928
1054,-2,-6,-2,-1,-3,-1,-6,-1,0.92334,0.0117188,0.20166,-39.625,-20.0625,-17.375,1.13202,-1.41825,-2.20928
1067,3,-3,0,-2,0,-1,-5,1,0.92334,0.0117188,0.20166,-39.625,-20.0625,-17.375,1.13202,-1.41825,-2.20928
1067,3,-2,-5,-1,4,-3,-1,0,0.92334,0.0117188,0.20166,-39.625,-20.0625,-17.375,1.13202,-1.41825,-2.20928
1075,2,3,-5,-4,2,-4,4,-2,0.934082,0.0205078,0.199219,-35.5,-19.875,-15.75,1.14753,-1.41746,-2.23812
1075,-1,2,-6,-3,-2,-2,3,-7,0.934082,0.0205078,0.199219,-35.5,-19.875,-15.75,1.14753,-1.41746,-2.23812
1089,0,0,-6,0,-1,2,-2,-2,0.934082,0.0205078,0.199219,-35.5,-19.875,-15.75,1.14753,-1.41746,-2.23812
1089,-2,0,-4,-4,0,3,-9,-1,0.934082,0.0205078,0.199219,-35.5,-19.875,-15.75,1.14753,-1.41746,-2.23812
1099,-2,-1,-1,3,-2,5,-3,-1,0.943359,0.0361328,0.194824,-33.75,-19,-13.8125,1.16123,-1.4164,-2.26446
1099,0,2,5,-1,2,-2,-1,-1,0.943359,0.0361328,0.194824,-33.75,-19,-13.8125,1.16123,-1.4164,-2.26446
1112,-3,-1,2,-1,2,-1,0,-1,0.943359,0.0361328,0.194824,-33.75,-19,-13.8125,1.16123,-1.4164,-2.26446
1112,-2,-1,-3,2,0,-1,-1,1,0.943359,0.0361328,0.194824,-33.75,-19,-13.8125,1.16123,-1.4164,-2.26446
1120,-2,0,-4,-2,-7,-6,-6,1,0.94873,0.0405273,0.200195,-32.875,-17.75,-11.5,1.16896,-1.41618,-2.28448
1120,-4,-1,-3,0,-1,-2,-4,0,0.94873,0.0405273,0.200195,-32.875,-17.75,-11.5,1.16896,-1.41618,-2.28448
1136,-4,-4,4,1,-2,-1,-2,1,0.94873,0.0405273,0.200195,-32.875,-17.75,-11.5,1.16896,-1.41618,-2.28448
1136,0,-4,4,-5,-4,0,2,0,0.94873,0.0405273,0.200195,-32.875,-17.75,-11.5,1.16896,-1.41618,-2.28448
1138,0,-3,6,-7,2,2,0,-1,0.95752,0.046875,0.18457,-31.4375,-15.625,-9,1.17345,-1.41581,-2.30082
1138,-3,0,0,-3,4,4,6,-4,0.95752,0.046875,0.18457,-31.4375,-15.625,-9,1.17345,-1.41581,-2.30082
1158,-5,-1,-3,-2,4,2,4,-2,0.95752,0.046875,0.18457,-31.4375,-15.625,-9,1.17345,-1.41581,-2.30082
1158,-3,-2,-2,1,-1,-2,1,1,0.95752,0.046875,0.18457,-31.4375,-15.625,-9,1.17345,-1.41581,-2.30082
1160,2,0,5,4,-4,-7,1,-1,0.959473,0.0722656,0.17627,-29.6875,-13,-6.125,1.17371,-1.41589,-2.31207
1160,6,2,1,1,-3,-8,-1,-1,0.959473,0.0722656,0.17627,-29.6875,-13,-6.125,1.17371,-1.41589,-2.31207
1180,5,2,1,4,-3,-7,-1,-1,0.959473,0.0722656,0.17627,-29.6875,-13,-6.125,1.17371,-1.41589,-2.31207
1180,1,-1,-7,-2,-4,-2,-2,0,0.959473,0.0722656,0.17627,-29.6875,-13,-6.125,1.17371,-1.41589,-2.31207
1183,0,-5,-7,-4,0,2,1,1,0.966309,0.0874023,0.178223,-28.875,-10.1875,-2.8125,1.16648,-1.41674,-2.31532
1183,0,-4,-4,0,-2,3,-3,1,0.966309,0.0874023,0.178223,-28.875,-10.1875,-2.8125,1.16648,-1.41674,-2.31532
1195,-3,-2,-5,-4,-2,2,-3,1,0.966309,0.0874023,0.178223,-28.875,-10.1875,-2.8125,1.16648,-1.41674,-2.31532
1195,0,-1,0,0,0,1,-2,-3,0.966309,0.0874023,0.178223,-28.875,-10.1875,-2.8125,1.16648,-1.41674,-2.31532
1198,-3,3,2,-1,3,-3,-6,-3,0.964355,0.0869141,0.168945,-27.0625,-8,0.125,1.15463,-1.41832,-2.31331
1198,-1,2,1,-2,-2,-2,-5,0,0.964355,0.0869141,0.168945,-27.0625,-8,0.125,1.15463,-1.41832,-2.31331
1217,0,3,-1,-3,-2,2,-6,-2,0.964355,0.0869141,0.168945,-27.0625,-8,0.125,1.15463,-1.41832,-2.31331
1217,1,4,0,-3,0,-1,-1,0,0.964355,0.0869141,0.168945,-27.0625,-8,0.125,1.15463,-1.41832,-2.31331
1226,1,3,-3,-1,-3,2,4,-2,0.958984,0.09375,0.162109,-24.3125,-5.25,3.1875,1.13607,-1.41957,-2.3036
1226,-2,0,2,-3,-1,1,2,-1,0.958984,0.09375,0.162109,-24.3125,-5.25,3.1875,1.13607,-1.41957,-2.3036
1232,-2,0,4,-3,0,0,1,-4,0.958984,0.09375,0.162109,-24.3125,-5.25,3.1875,1.13607,-1.41957,-2.3036
1232,0,-2,1,0,1,-2,2,-3,0.958984,0.09375,0.162109,-24.3125,-5.25,3.1875,1.13607,-1.41957,-2.3036
1240,1,-3,0,5,1,-3,2,-2,0.95166,0.103516,0.158203,-20.375,-2.5625,5.9375,1.11274,-1.42144,-2.28752
1240,-1,-4,0,3,-1,-5,7,2,0.95166,0.103516,0.158203,-20.375,-2.5625,5.9375,1.11274,-1.42144,-2.28752
1264,-2,-5,-3,4,-1,-3,6,2,0.95166,0.103516,0.158203,-20.375,-2.5625,5.9375,1.11274,-1.42144,-2.28752
1264,-4,-4,-6,-2,-2,1,-1,3,0.95166,0.103516,0.158203,-20.375,-2.5625,5.9375,1.11274,-1.42144,-2.28752
1265,-3,-2,-4,-1,-4,-2,-5,0,0.931641,0.108887,0.158203,-17.0625,-0.6875,8.625,1.084,-1.42366,-2.2648
1265,-1,0,5,-3,-1,1,-8,-3,0.931641,0.108887,0.158203,-17.0625,-0.6875,8.625,1.084,-1.42366,-2.2648
1279,-1,-1,2,-3,0,-1,-3,-1,0.931641,0.108887,0.158203,-17.0625,-0.6875,8.625,1.084,-1.42366,-2.2648
1279,-1,-4,0,0,0,-1,-2,1,0.931641,0.108887,0.158203,-17.0625,-0.6875,8.625,1.084,-1.42366,-2.2648
1280,-1,-3,-4,-3,0,-3,-1,0,0.919922,0.112793,0.164551,-14.8125,-0.3125,10.3125,1.0529,-1.42551,-2.23889
1280,-2,-3,-10,-2,-3,1,2,-1,0.919922,0.112793,0.164551,-14.8125,-0.3125,10.3125,1.0529,-1.42551,-2.23889
1301,1,-2,-4,-2,-3,0,2,-1,0.919922,0.112793,0.164551,-14.8125,-0.3125,10.3125,1.0529,-1.42551,-2.23889
1301,4,4,3,2,-2,2,1,-4,0.919922,0.112793,0.164551,-14.8125,-0.3125,10.3125,1.0529,-1.42551,-2.23889
1303,-1,4,1,-4,-4,-1,-2,1,0.929199,0.103516,0.166016,-13,-0.5,10.3125,1.02166,-1.42783,-2.21223
1303,1,0,-7,1,-2,-2,-6,1,0.929199,0.103516,0.166016,-13,-0.5,10.3125,1.02166,-1.42783,-2.21223
1315,-2,-3,-7,-2,1,-3,-6,-2,0.929199,0.103516,0.166016,-13,-0.5,10.3125,1.02166,-1.42783,-2.21223
1315,0,-3,-8,1,3,-4,-1,-4,0.929199,0.103516,0.166016,-13,-0.5,10.3125,1.02166,-1.42783,-2.21223
1318,-3,-2,-4,0,4,-2,4,-3,0.945801,0.10498,0.166016,-11.375,-0.3125,9.8125,0.991198,-1.43005,-2.18574
1318,-4,0,1,0,1,1,6,-3,0.945801,0.10498,0.166016,-11.375,-0.3125,9.8125,0.991198,-1.43005,-2.18574
1338,-4,-1,7,-5,-2,0,2,-2,0.945801,0.10498,0.166016,-11.375,-0.3125,9.8125,0.991198,-1.43005,-2.18574
1338,2,-2,9,-5,-5,1,-5,1,0.945801,0.10498,0.166016,-11.375,-0.3125,9.8125,0.991198,-1.43005,-2.18574
1340,4,-1,1,1,0,-1,-5,3,0.953125,0.106445,0.154785,-9.625,0.125,9.5,0.962006,-1.43113,-2.15999
1340,2,0,0,-1,-2,-4,-1,4,0.953125,0.106445,0.154785,-9.625,0.125,9.5,0.962006,-1.43113,-2.15999
1352,0,0,0,1,0,-4,-3,1,0.953125,0.106445,0.154785,-9.625,0.125,9.5,0.962006,-1.43113,-2.15999
1352,-3,-1,-1,-2,-3,-2,0,-2,0.953125,0.106445,0.154785,-9.625,0.125,9.5,0.962006,-1.43113,-2.15999
1360,-1,-2,-1,-1,-4,-1,-1,-4,0.947266,0.11084,0.153809,-9.625,0.125,9.4375,0.934213,-1.43283,-2.13548
1360,-4,-4,-4,0,-4,-1,0,-4,0.947266,0.11084,0.153809,-9.625,0.125,9.4375,0.934213,-1.43283,-2.13548
1376,-2,1,-4,1,1,-4,1,-1,0.947266,0.11084,0.153809,-9.625,0.125,9.4375,0.934213,-1.43283,-2.13548
1376,1,-2,0,-4,-2,0,-1,0,0.947266,0.11084,0.153809,-9.625,0.125,9.4375,0.934213,-1.43283,-2.13548
1377,3,-3,-3,-6,1,2,-3,1,0.947754,0.125,0.144043,-10.5625,0.5,8.8125,0.909937,-1.43437,-2.11482
1377,2,1,-2,-1,3,1,-4,0,0.947754,0.125,0.144043,-10.5625,0.5,8.8125,0.909937,-1.43437,-2.11482
1398,0,-1,-2,-1,1,-2,1,-2,0.947754,0.125,0.144043,-10.5625,0.5,8.8125,0.909937,-1.43437,-2.11482
1398,-3,0,-7,-2,2,-2,0,-2,0.947754,0.125,0.144043,-10.5625,0.5,8.8125,0.909937,-1.43437,-2.11482
1400,-2,2,2,5,1,0,2,-3,0.943848,0.115234,0.149902,-11.625,0.625,8.125,0.883248,-1.43487,-2.09211
1400,-2,1,1,-2,1,-1,-1,-2,0.943848,0.115234,0.149902,-11.625,0.625,8.125,0.883248,-1.43487,-2.09211
1412,-1,2,1,-1,-5,1,-6,-2,0.943848,0.115234,0.149902,-11.625,0.625,8.125,0.883248,-1.43487,-2.09211
1412,-5,2,2,-1,-5,0,-7,-1,0.943848,0.115234,0.149902,-11.625,0.625,8.125,0.883248,-1.43487,-2.09211
1420,-4,0,3,2,-6,0,-6,2,0.955078,0.118164,0.152344,-11.6875,1.5,7.4375,0.857182,-1.43461,-2.07004
1420,-3,-2,2,0,0,-3,0,-1,0.955078,0.118164,0.152344,-11.6875,1.5,7.4375,0.857182,-1.43461,-2.07004
1436,-1,-2,-8,-4,-3,1,4,-2,0.955078,0.118164,0.152344,-11.6875,1.5,7.4375,0.857182,-1.43461,-2.07004
1436,3,-3,-1,-1,-2,-1,5,-3,0.955078,0.118164,0.152344,-11.6875,1.5,7.4375,0.857182,-1.43461,-2.07004
1438,3,-1,-1,-1,0,0,2,-7,0.937988,0.121094,0.150391,-10.8125,2.3125,7.625,0.8298,-1.43439,-2.04624
1438,3,1,-1,1,-3,1,2,-4,0.937988,0.121094,0.150391,-10.8125,2.3125,7.625,0.8298,-1.43439,-2.04624
1458,-1,-3,-1,1,-2,2,2,1,0.937988,0.121094,0.150391,-10.8125,2.3125,7.625,0.8298,-1.43439,-2.04624
1458,-3,0,-5,-3,1,3,0,3,0.937988,0.121094,0.150391,-10.8125,2.3125,7.625,0.8298,-1.43439,-2.04624
1459,-5,1,-6,-1,3,0,-2,1,0.931641,0.118652,0.151367,-9.3125,2.875,7.4375,0.803705,-1.43419,-2.02333
1459,-3,0,-2,-1,2,0,-4,-1,0.931641,0.118652,0.151367,-9.3125,2.875,7.4375,0.803705,-1.43419,-2.02333
1473,-4,0,-1,-2,4,-5,-1,0,0.931641,0.118652,0.151367,-9.3125,2.875,7.4375,0.803705,-1.43419,-2.02333
1473,-2,1,0,0,-1,-4,2,0,0.931641,0.118652,0.151367,-9.3125,2.875,7.4375,0.803705,-1.43419,-2.02333
1480,-2,1,-1,-2,-2,2,-1,-1,0.920898,0.112305,0.160645,-7.5,3,7.1875,0.776497,-1.43397,-1.99862
1480,-3,-4,1,-2,-5,0,-4,-1,0.920898,0.112305,0.160645,-7.5,3,7.1875,0.776497,-1.43397,-1.99862
1496,-1,-3,1,-1,-2,-1,-7,-2,0.920898,0.112305,0.160645,-7.5,3,7.1875,0.776497,-1.43397,-1.99862
1496,1,-1,-1,3,3,-1,-4,-1,0.920898,0.112305,0.160645,-7.5,3,7.1875,0.776497,-1.43397,-1.99862
1498,2,4,0,3,-3,-5,0,1,0.952148,0.101074,0.161133,-5.625,2.8125,5.9375,0.752809,-1.43346,-1.97689
1498,0,-2,-2,-1,-1,-3,0,-1,0.952148,0.101074,0.161133,-5.625,2.8125,5.9375,0.752809,-1.43346,-1.97689
1519,1,-2,2,-2,-3,-2,3,-1,0.952148,0.101074,0.161133,-5.625,2.8125,5.9375,0.752809,-1.43346,-1.97689
1519,-3,-2,3,2,-4,-2,1,-2,0.952148,0.101074,0.161133,-5.625,2.8125,5.9375,0.752809,-1.43346,-1.97689
1520,-3,-4,2,-2,-2,-3,6,-2,0.977051,0.10498,0.147949,-5.8125,3.4375,5,0.730769,-1.43205,-1.95658
1520,1,-6,-3,-7,-2,1,5,1,0.977051,0.10498,0.147949,-5.8125,3.4375,5,0.730769,-1.43205,-1.95658
1532,2,-4,1,-1,1,0,0,-1,0.977051,0.10498,0.147949,-5.8125,3.4375,5,0.730769,-1.43205,-1.95658
1532,1,-2,0,-1,-1,3,-3,-3,0.977051,0.10498,0.147949,-5.8125,3.4375,5,0.730769,-1.43205,-1.95658
1540,0,-1,-1,4,1,1,-3,-2,0.98291,0.119629,0.150391,-7.875,4.4375,4.875,0.710215,-1.43081,-1.93865
1540,2,3,-2,4,-1,-2,-3,-1,0.98291,0.119629,0.150391,-7.875,4.4375,4.875,0.710215,-1.43081,-1.93865
1555,1,1,-7,5,-1,-3,0,-1,0.98291,0.119629,0.150391,-7.875,4.4375,4.875,0.710215,-1.43081,-1.93865
1555,0,-1,0,-1,-2,-2,1,-1,0.98291,0.119629,0.150391,-7.875,4.4375,4.875,0.710215,-1.43081,-1.93865
1557,0,-2,-6,-7,1,-4,1,3,0.979004,0.117188,0.149902,-10.125,5.75,4.5,0.6885,-1.42939,-1.92037
1557,-4,-2,-2,-4,3,-5,0,1,0.979004,0.117188,0.149902,-10.125,5.75,4.5,0.6885,-1.42939,-1.92037
1578,0,3,0,-1,-2,-3,-4,-3,0.979004,0.117188,0.149902,-10.125,5.75,4.5,0.6885,-1.42939,-1.92037
1578,-1,0,-2,-4,-2,-3,-2,-4,0.979004,0.117188,0.149902,-10.125,5.75,4.5,0.6885,-1.42939,-1.92037
1580,-4,0,3,-4,-2,3,-1,-3,0.976562,0.124023,0.158203,-11.3125,6.9375,4,0.665634,-1.42673,-1.9012
1580,0,-1,-3,-2,-2,4,-4,-3,0.976562,0.124023,0.158203,-11.3125,6.9375,4,0.665634,-1.42673,-1.9012
1593,0,-3,3,-1,1,3,-2,2,0.976562,0.124023,0.158203,-11.3125,6.9375,4,0.665634,-1.42673,-1.9012
1593,1,-1,4,-3,2,-3,-1,2,0.976562,0.124023,0.158203,-11.3125,6.9375,4,0.665634,-1.42673,-1.9012
1600,1,-2,2,-3,0,-5,6,0,0.972168,0.122559,0.15918,-11.4375,7.875,3.625,0.64436,-1.42395,-1.8837
1600,-1,2,1,4,1,1,6,0,0.972168,0.122559,0.15918,-11.4375,7.875,3.625,0.64436,-1.42395,-1.8837
1616,-3,1,-1,3,-1,1,6,-1,0.972168,0.122559,0.15918,-11.4375,7.875,3.625,0.64436,-1.42395,-1.8837
1616,-1,1,-8,0,1,2,0,0,0.972168,0.122559,0.15918,-11.4375,7.875,3.625,0.64436,-1.42395,-1.8837
1617,-5,-3,-1,1,3,-2,-7,-1,0.978516,0.129883,0.155273,-11.875,9.3125,3.4375,0.622762,-1.42091,-1.86606
1617,-6,-3,-4,-3,2,-3,-10,-2,0.978516,0.129883,0.155273,-11.875,9.3125,3.4375,0.622762,-1.42091,-1.86606
1638,-3,-3,-4,-3,-2,-2,-10,-4,0.978516,0.129883,0.155273,-11.875,9.3125,3.4375,0.622762,-1.42091,-1.86606
1638,-1,-3,-4,-2,-6,-2,-3,-4,0.978516,0.129883,0.155273,-11.875,9.3125,3.4375,0.622762,-1.42091,-1.86606
1640,0,2,-2,-1,-6,-1,-3,-2,0.979492,0.144043,0.149902,-12.625,10.8125,3.375,0.603304,-1.41698,-1.85071
1640,4,-2,5,1,-6,-3,4,1,0.979492,0.144043,0.149902,-12.625,10.8125,3.375,0.603304,-1.41698,-1.85071
1652,2,-2,1,-7,-2,-6,4,-1,0.979492,0.144043,0.149902,-12.625,10.8125,3.375,0.603304,-1.41698,-1.85071
1652,1,-1,-3,1,1,-5,0,1,0.979492,0.144043,0.149902,-12.625,10.8125,3.375,0.603304,-1.41698,-1.85071
1661,-2,-2,2,4,3,1,-5,-1,0.985352,0.144531,0.146973,-15.0625,11.6875,2.75,0.584877,-1.41356,-1.83734
1661,-1,0,2,-3,2,-4,-7,4,0.985352,0.144531,0.146973,-15.0625,11.6875,2.75,0.584877,-1.41356,-1.83734
1676,-1,4,-1,-3,0,-2,-6,3,0.985352,0.144531,0.146973,-15.0625,11.6875,2.75,0.584877,-1.41356,-1.83734
1676,0,1,2,0,-1,0,-4,-1,0.985352,0.144531,0.146973,-15.0625,11.6875,2.75,0.584877,-1.41356,-1.83734
1677,0,-2,-2,3,-4,2,-1,-4,0.986328,0.135254,0.149902,-17.3125,12.0625,1.5,0.566809,-1.40884,-1.82481
1677,-2,1,0,1,0,4,2,-4,0.986328,0.135254,0.149902,-17.3125,12.0625,1.5,0.566809,-1.40884,-1.82481
1699,-4,-4,-1,-5,0,2,5,1,0.986328,0.135254,0.149902,-17.3125,12.0625,1.5,0.566809,-1.40884,-1.82481
1699,-5,-5,2,-4,-2,-3,3,-2,0.986328,0.135254,0.149902,-17.3125,12.0625,1.5,0.566809,-1.40884,-1.82481
1700,-3,-1,-1,1,0,2,2,-2,0.986328,0.137695,0.145508,-18.125,11.8125,0.0625,0.552982,-1.40434,-1.81694
1700,-2,0,-1,-1,2,-1,2,-2,0.986328,0.137695,0.145508,-18.125,11.8125,0.0625,0.552982,-1.40434,-1.81694
1711,-2,1,-3,-2,-1,-2,2,0,0.986328,0.137695,0.145508,-18.125,11.8125,0.0625,0.552982,-1.40434,-1.81694
1711,0,0,-1,0,-1,-1,0,0,0.986328,0.137695,0.145508,-18.125,11.8125,0.0625,0.552982,-1.40434,-1.81694
1720,1,1,-2,0,-4,-7,-3,1,0.983398,0.141113,0.145996,-18.125,11.4375,-1,0.543081,-1.40068,-1.81344
1720,1,1,-6,2,-8,-5,-5,1,0.983398,0.141113,0.145996,-18.125,11.4375,-1,0.543081,-1.40068,-1.81344
1736,2,-2,-1,0,-4,0,-9,4,0.983398,0.141113,0.145996,-18.125,11.4375,-1,0.543081,-1.40068,-1.81344
1736,-1,0,-2,-2,-1,5,-4,4,0.983398,0.141113,0.145996,-18.125,11.4375,-1,0.543081,-1.40068,-1.81344
1737,2,-4,-1,-2,0,-1,0,2,0.969727,0.151855,0.162598,-18,10.4375,-1.1875,0.534897,-1.39613,-1.81121
1737,0,0,-2,-1,0,0,2,-4,0.969727,0.151855,0.162598,-18,10.4375,-1.1875,0.534897,-1.39613,-1.81121
1759,2,-1,3,-2,-1,-3,1,-2,0.969727,0.151855,0.162598,-18,10.4375,-1.1875,0.534897,-1.39613,-1.81121
1759,-2,-1,0,-3,-1,-1,0,-6,0.969727,0.151855,0.162598,-18,10.4375,-1.1875,0.534897,-1.39613,-1.81121
1760,-3,-1,-9,-6,-2,-2,1,-1,0.969727,0.146484,0.162109,-18.75,9.125,-2.375,0.529342,-1.39196,-1.81196
1760,-3,-2,2,-3,3,0,-2,1,0.969727,0.146484,0.162109,-18.75,9.125,-2.375,0.529342,-1.39196,-1.81196
1782,-2,1,2,1,1,0,-4,0,0.969727,0.146484,0.162109,-18.75,9.125,-2.375,0.529342,-1.39196,-1.81196
1782,-2,-3,-13,6,2,2,-4,1,0.969727,0.146484,0.162109,-18.75,9.125,-2.375,0.529342,-1.39196,-1.81196
1783,-2,1,3,-3,0,1,1,1,0.960938,0.139648,0.17334,-20.25,7.75,-3.9375,0.526077,-1.38778,-1.81567
1783,-3,-1,-1,-1,-4,-2,4,-3,0.960938,0.139648,0.17334,-20.25,7.75,-3.9375,0.526077,-1.38778,-1.81567
1796,-1,-1,-1,2,-2,-5,-2,-4,0.960938,0.139648,0.17334,-20.25,7.75,-3.9375,0.526077,-1.38778,-1.81567
1796,1,3,-1,0,-2,-1,-3,-3,0.960938,0.139648,0.17334,-20.25,7.75,-3.9375,0.526077,-1.38778,-1.81567
1797,0,-4,-4,1,2,1,-4,-1,0.941406,0.146484,0.183105,-21.4375,6.1875,-5.125,0.525995,-1.38382,-1.82306
1797,3,1,-3,1,1,0,-2,1,0.941406,0.146484,0.183105,-21.4375,6.1875,-5.125,0.525995,-1.38382,-1.82306
1819,-1,-3,3,0,0,0,2,0,0.941406,0.146484,0.183105,-21.4375,6.1875,-5.125,0.525995,-1.38382,-1.82306
1819,-3,2,6,-5,3,-1,4,0,0.941406,0.146484,0.183105,-21.4375,6.1875,-5.125,0.525995,-1.38382,-1.82306
1820,0,-4,5,0,0,0,2,-3,0.913086,0.143555,0.19043,-21.8125,4.5625,-7.25,0.528576,-1.37958,-1.83319
1820,1,0,8,4,0,0,-1,0,0.913086,0.143555,0.19043,-21.8125,4.5625,-7.25,0.528576,-1.37958,-1.83319
1832,5,-3,-5,1,-1,-5,-2,1,0.913086,0.143555,0.19043,-21.8125,4.5625,-7.25,0.528576,-1.37958,-1.83319
1832,3,-4,-1,-8,-1,-8,-1,1,0.913086,0.143555,0.19043,-21.8125,4.5625,-7.25,0.528576,-1.37958,-1.83319
1840,2,-1,-1,-6,-1,2,0,1,0.894531,0.154785,0.203613,-23.5625,3.5,-11.125,0.538062,-1.3749,-1.8512
1840,-2,-1,-2,-6,-4,2,2,-3,0.894531,0.154785,0.203613,-23.5625,3.5,-11.125,0.538062,-1.3749,-1.8512
1856,-4,8,2,5,-1,4,3,-3,0.894531,0.154785,0.203613,-23.5625,3.5,-11.125,0.538062,-1.3749,-1.8512
1856,-5,-1,-2,3,-1,-1,2,-2,0.894531,0.154785,0.203613,-23.5625,3.5,-11.125,0.538062,-1.3749,-1.8512
1858,-3,-3,-14,1,-1,-5,-4,0,0.886719,0.149902,0.222168,-27.6875,2.625,-15.625,0.550363,-1.36912,-1.87343
1858,0,-4,-3,1,-1,-2,-3,-2,0.886719,0.149902,0.222168,-27.6875,2.625,-15.625,0.550363,-1.36912,-1.87343
1878,1,-2,-5,-4,2,3,-5,-3,0.886719,0.149902,0.222168,-27.6875,2.625,-15.625,0.550363,-1.36912,-1.87343
1878,3,5,12,-1,-2,2,-5,-1,0.886719,0.149902,0.222168,-27.6875,2.625,-15.625,0.550363,-1.36912,-1.87343
1880,-3,0,3,-1,-1,1,-4,-3,0.888184,0.134277,0.230957,-28.5,1.125,-18.4375,0.564911,-1.36338,-1.89842
1880,-8,0,4,-2,1,0,-3,-4,0.888184,0.134277,0.230957,-28.5,1.125,-18.4375,0.564911,-1.36338,-1.89842
1892,-4,4,-4,-5,-4,1,7,0,0.888184,0.134277,0.230957,-28.5,1.125,-18.4375,0.564911,-1.36338,-1.89842
1892,1,-4,-2,-3,-3,-1,-3,3,0.888184,0.134277,0.230957,-28.5,1.125,-18.4375,0.564911,-1.36338,-1.89842
1901,0,-5,9,1,-1,0,-6,-2,0.888672,0.147461,0.241211,-25.1875,0.875,-19.4375,0.581002,-1.35743,-1.92402
1901,5,0,-12,-5,-3,-1,-4,1,0.888672,0.147461,0.241211,-25.1875,0.875,-19.4375,0.581002,-1.35743,-1.92402
1915,-3,-6,4,7,3,-1,-1,-3,0.888672,0.147461,0.241211,-25.1875,0.875,-19.4375,0.581002,-1.35743,-1.92402
1915,-2,-1,-12,-3,2,-2,2,-1,0.888672,0.147461,0.241211,-25.1875,0.875,-19.4375,0.581002,-1.35743,-1.92402
1917,-3,0,-10,1,-1,-2,5,-1,0.855957,0.176758,0.238281,-23,1.5625,-20.1875,0.599467,-1.35014,-1.95089
1917,-4,-1,5,-3,1,1,3,0,0.855957,0.176758,0.238281,-23,1.5625,-20.1875,0.599467,-1.35014,-1.95089
1945,2,-1,3,0,-2,1,1,0,0.855957,0.176758,0.238281,-23,1.5625,-20.1875,0.599467,-1.35014,-1.95089
1945,4,2,5,1,-4,-4,3,2,0.855957,0.176758,0.238281,-23,1.5625,-20.1875,0.599467,-1.35014,-1.95089
1947,1,1,3,-3,-3,-6,-2,0,0.816895,0.189453,0.258301,-24.125,2.8125,-20.6875,0.615329,-1.34238,-1.97579
1947,-1,1,-5,0,-1,-3,-4,0,0.816895,0.189453,0.258301,-24.125,2.8125,-20.6875,0.615329,-1.34238,-1.97579
1951,-1,-1,-5,1,0,-1,-6,-1,0.816895,0.189453,0.258301,-24.125,2.8125,-20.6875,0.615329,-1.34238,-1.97579
1951,-1,-2,2,3,0,0,-4,-2,0.816895,0.189453,0.258301,-24.125,2.8125,-20.6875,0.615329,-1.34238,-1.97579
1961,0,1,5,-1,1,3,-1,-3,0.817383,0.160156,0.277344,-25.875,3.4375,-21.9375,0.626285,-1.33416,-1.9966
1961,-5,-2,0,-2,-1,-3,1,-4,0.817383,0.160156,0.277344,-25.875,3.4375,-21.9375,0.626285,-1.33416,-1.9966
1984,-4,-4,-7,-4,-5,-3,4,-4,0.817383,0.160156,0.277344,-25.875,3.4375,-21.9375,0.626285,-1.33416,-1.9966
1984,-4,4,24,-8,-3,-4,-1,-1,0.817383,0.160156,0.277344,-25.875,3.4375,-21.9375,0.626285,-1.33416,-1.9966
1985,1,-11,-31,-7,-1,0,0,0,0.844727,0.114746,0.296387,-25.25,2.9375,-22.9375,0.632817,-1.32623,-2.01291
1985,1,-4,0,1,2,-1,2,1,0.844727,0.114746,0.296387,-25.25,2.9375,-22.9375,0.632817,-1.32623,-2.01291
1998,0,2,-7,5,2,-4,3,-3,0.844727,0.114746,0.296387,-25.25,2.9375,-22.9375,0.632817,-1.32623,-2.01291
1998,-3,-5,-12,3,1,-2,1,-7,0.844727,0.114746,0.296387,-25.25,2.9375,-22.9375,0.632817,-1.32623,-2.01291
1999,1,3,-1,-2,-3,1,3,0,0.894531,0.0888672,0.311035,-19.3125,1.625,-23.1875,0.639108,-1.31929,-2.02704
1999,4,-3,-5,2,-3,0,1,3,0.894531,0.0888672,0.311035,-19.3125,1.625,-23.1875,0.639108,-1.31929,-2.02704
2012,2,-3,0,-3,1,0,-4,5,0.894531,0.0888672,0.311035,-19.3125,1.625,-23.1875,0.639108,-1.31929,-2.02704
2012,-2,-1,-1,-1,-2,2,-2,4,0.894531,0.0888672,0.311035,-19.3125,1.625,-23.1875,0.639108,-1.31929,-2.02704
2020,-6,1,8,1,-4,-1,-6,2,0.921875,0.130859,0.314941,-17.0625,2.0625,-21.625,0.646156,-1.31205,-2.04098
2020,-3,-9,2,2,-5,-1,-4,-2,0.921875,0.130859,0.314941,-17.0625,2.0625,-21.625,0.646156,-1.31205,-2.04098
2035,3,-2,8,-2,-1,-3,-5,-3,0.921875,0.130859,0.314941,-17.0625,2.0625,-21.625,0.646156,-1.31205,-2.04098
2035,3,-3,-14,-1,0,-2,-6,-3,0.921875,0.130859,0.314941,-17.0625,2.0625,-21.625,0.646156,-1.31205,-2.04098
2049,3,8,8,-1,4,-2,-2,0,0.893066,0.169434,0.336914,-23.875,1.875,-17.8125,0.648108,-1.30469,-2.05215
2049,-2,-2,-4,-1,-1,-3,4,0,0.893066,0.169434,0.336914,-23.875,1.875,-17.8125,0.648108,-1.30469,-2.05215
2057,-2,-2,-6,-1,-2,-1,-1,-1,0.893066,0.169434,0.336914,-23.875,1.875,-17.8125,0.648108,-1.30469,-2.05215
2057,-3,-3,-2,-5,-4,-4,1,-3,0.893066,0.169434,0.336914,-23.875,1.875,-17.8125,0.648108,-1.30469,-2.05215
2065,-2,-1,2,-2,-4,2,0,-5,0.861328,0.154785,0.350098,-35.625,1.1875,-13.8125,0.641311,-1.29852,-2.05857
2065,2,2,4,0,1,0,-6,-4,0.861328,0.154785,0.350098,-35.625,1.1875,-13.8125,0.641311,-1.29852,-2.05857
2088,2,7,9,-2,3,2,-2,-2,0.861328,0.154785,0.350098,-35.625,1.1875,-13.8125,0.641311,-1.29852,-2.05857
2088,1,-2,11,-2,-1,-1,-3,-2,0.861328,0.154785,0.350098,-35.625,1.1875,-13.8125,0.641311,-1.29852,-2.05857
2090,4,4,-1,-2,-1,-4,6,1,0.821289,0.131836,0.349609,-43,1.0625,-9.5625,0.62615,-1.29308,-2.059
2090,-4,-8,-22,-2,2,-3,1,2,0.821289,0.131836,0.349609,-43,1.0625,-9.5625,0.62615,-1.29308,-2.059
2095,-4,-4,-4,-2,3,0,-1,-1,0.821289,0.131836,0.349609,-43,1.0625,-9.5625,0.62615,-1.29308,-2.059
2095,-1,-1,0,4,2,1,1,-1,0.821289,0.131836,0.349609,-43,1.0625,-9.5625,0.62615,-1.29308,-2.059
2101,-5,3,9,2,-1,-2,-1,-3,0.76123,0.0893555,0.356934,-41.4375,1.125,-5.125,0.604138,-1.28901,-2.05214
2101,-4,6,3,-1,-2,2,-4,0,0.76123,0.0893555,0.356934,-41.4375,1.125,-5.125,0.604138,-1.28901,-2.05214
2119,-5,4,-5,2,-2,1,-5,1,0.76123,0.0893555,0.356934,-41.4375,1.125,-5.125,0.604138,-1.28901,-2.05214
2119,0,4,-8,5,0,1,-1,3,0.76123,0.0893555,0.356934,-41.4375,1.125,-5.125,0.604138,-1.28901,-2.05214
2122,3,-4,-3,3,-2,-2,-1,0,0.716797,0.0444336,0.394043,-33.5,0,-0.125,0.577083,-1.28542,-2.0373
2122,1,-1,-3,-2,-3,-2,7,16,0.716797,0.0444336,0.394043,-33.5,0,-0.125,0.577083,-1.28542,-2.0373
2140,4,1,0,-6,-3,-5,-3,-12,0.716797,0.0444336,0.394043,-33.5,0,-0.125,0.577083,-1.28542,-2.0373
2140,2,2,2,-5,1,-3,-6,1,0.716797,0.0444336,0.394043,-33.5,0,-0.125,0.577083,-1.28542,-2.0373
2142,-1,-3,4,-5,4,1,-5,-4,0.70459,-0.00683594,0.382812,-18.25,-1.75,3.375,0.55047,-1.28379,-2.01768
2142,1,0,14,0,0,-1,-6,2,0.70459,-0.00683594,0.382812,-18.25,-1.75,3.375,0.55047,-1.28379,-2.01768
2163,-3,-4,-23,-3,-2,1,2,0,0.70459,-0.00683594,0.382812,-18.25,-1.75,3.375,0.55047,-1.28379,-2.01768
2163,0,1,0,5,-2,0,5,0,0.70459,-0.00683594,0.382812,-18.25,-1.75,3.375,0.55047,-1.28379,-2.01768
2165,-2,-7,14,-2,-4,-2,0,-7,0.709961,-0.000976562,0.374512,-8.8125,-1.3125,3.4375,0.52821,-1.28217,-1.99902
2165,-2,-1,-3,0,-3,-2,-4,-9,0.709961,-0.000976562,0.374512,-8.8125,-1.3125,3.4375,0.52821,-1.28217,-1.99902
2186,1,-2,-5,-2,-6,-5,-2,-1,0.709961,-0.000976562,0.374512,-8.8125,-1.3125,3.4375,0.52821,-1.28217,-1.99902
2186,0,-7,-8,1,-4,-2,1,-4,0.709961,-0.000976562,0.374512,-8.8125,-1.3125,3.4375,0.52821,-1.28217,-1.99902
2187,0,0,0,6,1,1,3,4,0.694336,-0.00683594,0.374023,-7.9375,-1.875,6.8125,0.503493,-1.28137,-1.97751
2187,1,-2,6,-3,2,2,-1,-2,0.694336,-0.00683594,0.374023,-7.9375,-1.875,6.8125,0.503493,-1.28137,-1.97751
2200,-2,-6,10,-5,-1,-1,1,-1,0.694336,-0.00683594,0.374023,-7.9375,-1.875,6.8125,0.503493,-1.28137,-1.97751
2200,-5,4,-2,-4,-3,-3,-3,1,0.694336,-0.00683594,0.374023,-7.9375,-1.875,6.8125,0.503493,-1.28137,-1.97751
2202,-4,4,-6,2,0,-5,-4,-1,0.703613,-0.0439453,0.355957,-10.1875,-6.0625,12.4375,0.472872,-1.28316,-1.95066
2202,-6,4,4,1,0,-3,-1,-3,0.703613,-0.0439453,0.355957,-10.1875,-6.0625,12.4375,0.472872,-1.28316,-1.95066
2215,2,2,2,1,1,3,0,9,0.703613,-0.0439453,0.355957,-10.1875,-6.0625,12.4375,0.472872,-1.28316,-1.95066
2215,0,-1,1,-2,0,4,-1,-5,0.703613,-0.0439453,0.355957,-10.1875,-6.0625,12.4375,0.472872,-1.28316,-1.95066
2222,0,-6,-3,-1,-3,2,4,2,0.827148,-0.124512,0.345703,-7.75,-11.625,15.4375,0.436867,-1.2887,-1.9179
2222,1,5,-5,-1,0,0,1,-5,0.827148,-0.124512,0.345703,-7.75,-11.625,15.4375,0.436867,-1.2887,-1.9179
2238,-3,-11,-1,-3,-2,-3,-1,-2,0.827148,-0.124512,0.345703,-7.75,-11.625,15.4375,0.436867,-1.2887,-1.9179
2238,-2,-6,-5,-1,-2,-1,-4,0,0.827148,-0.124512,0.345703,-7.75,-11.625,15.4375,0.436867,-1.2887,-1.9179
2240,0,-4,-1,-3,-2,-2,-6,3,0.982422,-0.106934,0.246582,-7.0625,-12.0625,14.4375,0.407066,-1.29697,-1.89088
2240,0,-3,-2,-1,-3,-2,0,-12,0.982422,-0.106934,0.246582,-7.0625,-12.0625,14.4375,0.407066,-1.29697,-1.89088
2268,3,-2,1,-3,-2,0,2,1,0.982422,-0.106934,0.246582,-7.0625,-12.0625,14.4375,0.407066,-1.29697,-1.89088
2268,3,-3,0,-3,0,2,3,1,0.982422,-0.106934,0.246582,-7.0625,-12.0625,14.4375,0.407066,-1.29697,-1.89088
2269,1,0,-4,1,-1,2,4,5,0.899414,-0.0478516,0.230469,-14.875,-6.4375,19.6875,0.370131,-1.30278,-1.85875
2269,3,6,-7,4,-2,3,-2,2,0.899414,-0.0478516,0.230469,-14.875,-6.4375,19.6875,0.370131,-1.30278,-1.85875
2275,-3,-4,9,0,-1,3,-6,-3,0.899414,-0.0478516,0.230469,-14.875,-6.4375,19.6875,0.370131,-1.30278,-1.85875
2275,-2,0,-4,-6,-1,-2,-4,-4,0.899414,-0.0478516,0.230469,-14.875,-6.4375,19.6875,0.370131,-1.30278,-1.85875
2289,-7,-11,-34,-4,1,-7,-6,-2,0.839355,-0.104492,0.197754,-17.75,-1.5,21.6875,0.323925,-1.30778,-1.81845
2289,2,-2,4,0,1,-4,-3,-8,0.839355,-0.104492,0.197754,-17.75,-1.5,21.6875,0.323925,-1.30778,-1.81845
2298,-4,-4,9,7,-3,-5,0,-5,0.839355,-0.104492,0.197754,-17.75,-1.5,21.6875,0.323925,-1.30778,-1.81845
2298,3,24,-5,0,-6,-2,3,-3,0.839355,-0.104492,0.197754,-17.75,-1.5,21.6875,0.323925,-1.30778,-1.81845
2300,1,-28,33,-4,-5,1,3,5,0.809082,-0.164062,0.130371,-17.625,4.75,21.0625,0.271614,-1.3117,-1.77203
2300,-4,-3,-21,-8,-2,-1,-2,-2,0.809082,-0.164062,0.130371,-17.625,4.75,21.0625,0.271614,-1.3117,-1.77203
2321,1,4,-8,-3,3,4,-3,19,0.809082,-0.164062,0.130371,-17.625,4.75,21.0625,0.271614,-1.3117,-1.77203
2321,-4,-10,5,2,2,0,-2,-1,0.809082,-0.164062,0.130371,-17.625,4.75,21.0625,0.271614,-1.3117,-1.77203
2322,2,33,3,2,0,0,-3,-8,0.748535,-0.186523,0.0839844,-3.9375,9.75,25.625,0.21542,-1.31411,-1.71638
2322,7,13,46,5,3,4,2,6,0.748535,-0.186523,0.0839844,-3.9375,9.75,25.625,0.21542,-1.31411,-1.71638
2335,3,17,-3,1,-1,0,-4,-3,0.748535,-0.186523,0.0839844,-3.9375,9.75,25.625,0.21542,-1.31411,-1.71638
2335,-10,-17,-40,-8,-6,-3,-2,-3,0.748535,-0.186523,0.0839844,-3.9375,9.75,25.625,0.21542,-1.31411,-1.71638
2343,-1,5,0,-2,-5,-2,1,-15,0.696777,-0.169922,0.119141,14.3125,10.6875,32.125,0.157974,-1.31484,-1.65303
2343,-7,-17,2,-3,-2,-6,5,29,0.696777,-0.169922,0.119141,14.3125,10.6875,32.125,0.157974,-1.31484,-1.65303
2358,4,4,-24,3,3,-5,2,-2,0.696777,-0.169922,0.119141,14.3125,10.6875,32.125,0.157974,-1.31484,-1.65303
2358,0,3,76,3,4,-1,-6,-7,0.696777,-0.169922,0.119141,14.3125,10.6875,32.125,0.157974,-1.31484,-1.65303
2360,-3,-16,13,-6,2,1,-7,-4,0.845215,-0.230469,0.161621,28.125,6.875,30.5,0.102528,-1.31611,-1.58724
2360,-1,6,-9,-2,0,1,-3,-5,0.845215,-0.230469,0.161621,28.125,6.875,30.5,0.102528,-1.31611,-1.58724
2381,-5,-18,-29,1,-3,1,0,-9,0.845215,-0.230469,0.161621,28.125,6.875,30.5,0.102528,-1.31611,-1.58724
2381,-2,12,45,-7,-7,-4,4,3,0.845215,-0.230469,0.161621,28.125,6.875,30.5,0.102528,-1.31611,-1.58724
2382,3,6,2,1,-5,-5,4,4,1.07129,-0.242676,0.124512,27.0625,4.8125,23.8125,0.0553691,-1.31917,-1.53028
2382,1,-6,-89,2,-2,-4,1,-8,1.07129,-0.242676,0.124512,27.0625,4.8125,23.8125,0.0553691,-1.31917,-1.53028
2394,2,-2,42,0,-1,-3,3,1,1.07129,-0.242676,0.124512,27.0625,4.8125,23.8125,0.0553691,-1.31917,-1.53028
2394,4,1,-21,-7,-1,5,-1,4,1.07129,-0.242676,0.124512,27.0625,4.8125,23.8125,0.0553691,-1.31917,-1.53028
2403,-2,6,47,10,4,1,-6,2,1.13965,-0.162109,0.0786133,11.5,8.375,22.5,0.0122718,-1.32153,-1.4826
2403,-7,-5,-4,-7,-2,-1,-1,14,1.13965,-0.162109,0.0786133,11.5,8.375,22.5,0.0122718,-1.32153,-1.4826
2418,-3,-1,-18,-1,-4,-2,-6,-44,1.13965,-0.162109,0.0786133,11.5,8.375,22.5,0.0122718,-1.32153,-1.4826
2418,-3,-16,-57,0,0,-6,6,2,1.13965,-0.162109,0.0786133,11.5,8.375,22.5,0.0122718,-1.32153,-1.4826
2419,0,-12,-25,-8,-3,1,4,-4,1.03223,-0.074707,0.0341797,-6.25,11.75,25.9375,-0.0321974,-1.32259,-1.43926
2419,-2,5,-2,1,1,2,-2,-7,1.03223,-0.074707,0.0341797,-6.25,11.75,25.9375,-0.0321974,-1.32259,-1.43926
2440,-3,-4,13,-6,-1,1,-3,12,1.03223,-0.074707,0.0341797,-6.25,11.75,25.9375,-0.0321974,-1.32259,-1.43926
2440,-3,2,3,4,3,3,-8,-9,1.03223,-0.074707,0.0341797,-6.25,11.75,25.9375,-0.0321974,-1.32259,-1.43926
2443,1,10,-66,5,6,-1,-8,0,0.952148,-0.0795898,0.0449219,-24.5,12.875,29.9375,-0.0877617,-1.32237,-1.39154
2443,3,-7,17,-7,-1,-3,-2,3,0.952148,-0.0795898,0.0449219,-24.5,12.875,29.9375,-0.0877617,-1.32237,-1.39154
2455,-11,-8,-38,-17,-11,-4,-4,-6,0.952148,-0.0795898,0.0449219,-24.5,12.875,29.9375,-0.0877617,-1.32237,-1.39154
2455,1,5,31,1,-7,-4,-4,-4,0.952148,-0.0795898,0.0449219,-24.5,12.875,29.9375,-0.0877617,-1.32237,-1.39154
2463,-4,12,-23,-8,-6,-3,2,8,1.02734,-0.135254,0.0683594,-34.8125,12.875,26.8125,-0.146315,-1.32075,-1.34405
2463,3,-9,27,8,3,-1,0,-2,1.02734,-0.135254,0.0683594,-34.8125,12.875,26.8125,-0.146315,-1.32075,-1.34405
2478,0,10,6,-5,0,0,6,8,1.02734,-0.135254,0.0683594,-34.8125,12.875,26.8125,-0.146315,-1.32075,-1.34405
2478,-1,-10,-58,-3,1,0,3,-2,1.02734,-0.135254,0.0683594,-34.8125,12.875,26.8125,-0.146315,-1.32075,-1.34405
2480,2,13,20,-5,-2,1,5,2,1.11572,-0.0981445,0.03125,-44.875,19,22.3125,-0.196129,-1.31869,-1.30946
2480,0,-17,-6,-5,-4,-2,-2,-11,1.11572,-0.0981445,0.03125,-44.875,19,22.3125,-0.196129,-1.31869,-1.30946
2500,3,-12,47,10,2,-3,1,5,1.11572,-0.0981445,0.03125,-44.875,19,22.3125,-0.196129,-1.31869,-1.30946
2500,-4,-9,5,1,1,0,1,3,1.11572,-0.0981445,0.03125,-44.875,19,22.3125,-0.196129,-1.31869,-1.30946
2503,2,10,14,6,3,1,-3,-8,1.11914,-0.104004,0.0410156,-44,22.0625,23.375,-0.244186,-1.31484,-1.27623
2503,-7,-4,-17,3,-4,3,-3,-22,1.11914,-0.104004,0.0410156,-44,22.0625,23.375,-0.244186,-1.31484,-1.27623
2515,-1,0,15,3,0,-2,0,44,1.11914,-0.104004,0.0410156,-44,22.0625,23.375,-0.244186,-1.31484,-1.27623
2515,-13,-17,-11,-3,-3,-5,-8,1,1.11914,-0.104004,0.0410156,-44,22.0625,23.375,-0.244186,-1.31484,-1.27623
2524,0,-10,14,0,2,-3,-7,-1,1.16357,-0.0947266,0.0527344,-37.25,23.625,25.4375,-0.288311,-1.31027,-1.24458
2524,-2,-6,4,-8,-1,-2,0,0,1.16357,-0.0947266,0.0527344,-37.25,23.625,25.4375,-0.288311,-1.31027,-1.24458
2539,1,7,1,-1,1,5,2,-10,1.16357,-0.0947266,0.0527344,-37.25,23.625,25.4375,-0.288311,-1.31027,-1.24458
2539,3,-5,-25,10,2,5,3,8,1.16357,-0.0947266,0.0527344,-37.25,23.625,25.4375,-0.288311,-1.31027,-1.24458
2540,0,-14,13,3,-3,-2,-2,4,1.2627,-0.0351562,0.03125,-26.8125,28.6875,19.6875,-0.312886,-1.3058,-1.22901
2540,-7,-11,23,-2,-4,-2,-3,-5,1.2627,-0.0351562,0.03125,-26.8125,28.6875,19.6875,-0.312886,-1.3058,-1.22901
2561,3,10,-17,7,-2,-2,1,1,1.2627,-0.0351562,0.03125,-26.8125,28.6875,19.6875,-0.312886,-1.3058,-1.22901
2561,0,8,13,2,-3,-3,4,-1,1.2627,-0.0351562,0.03125,-26.8125,28.6875,19.6875,-0.312886,-1.3058,-1.22901
2563,-2,6,-4,0,3,0,5,-2,1.33105,0.097168,-0.00195312,-36.6875,33.125,11.625,-0.318013,-1.30296,-1.23622
2563,2,27,-16,1,-3,1,0,3,1.33105,0.097168,-0.00195312,-36.6875,33.125,11.625,-0.318013,-1.30296,-1.23622
2574,-9,-13,27,0,1,-2,-1,-5,1.33105,0.097168,-0.00195312,-36.6875,33.125,11.625,-0.318013,-1.30296,-1.23622
2574,3,5,3,-2,1,1,1,-1,1.33105,0.097168,-0.00195312,-36.6875,33.125,11.625,-0.318013,-1.30296,-1.23622
2583,-8,-12,-23,-6,-2,-2,-1,-5,1.37109,0.121094,-0.0356445,-54.4375,29.6875,11,-0.328858,-1.30256,-1.24382
2583,4,7,11,-12,2,1,-1,2,1.37109,0.121094,-0.0356445,-54.4375,29.6875,11,-0.328858,-1.30256,-1.24382
2606,10,-1,-13,12,3,3,2,-3,1.37109,0.121094,-0.0356445,-54.4375,29.6875,11,-0.328858,-1.30256,-1.24382
2606,2,8,18,1,-1,-1,8,8,1.37109,0.121094,-0.0356445,-54.4375,29.6875,11,-0.328858,-1.30256,-1.24382
2607,-13,-20,-15,-25,-10,-12,-17,-5,1.4126,0.124512,-0.097168,-68.5625,30.1875,13.875,-0.348755,-1.30336,-1.24742
2607,5,8,17,21,2,-4,-8,-16,1.4126,0.124512,-0.097168,-68.5625,30.1875,13.875,-0.348755,-1.30336,-1.24742
2620,-11,-39,-13,-14,-2,-5,-2,-9,1.4126,0.124512,-0.097168,-68.5625,30.1875,13.875,-0.348755,-1.30336,-1.24742
2620,-6,-4,-10,1,1,-1,-4,-4,1.4126,0.124512,-0.097168,-68.5625,30.1875,13.875,-0.348755,-1.30336,-1.24742
2621,6,6,9,8,0,-3,2,6,1.41699,0.110352,-0.0825195,-74.4375,33.625,19.75,-0.376275,-1.30222,-1.24548
2621,-3,-8,-5,-12,0,-2,-5,2,1.41699,0.110352,-0.0825195,-74.4375,33.625,19.75,-0.376275,-1.30222,-1.24548
2635,2,15,-10,2,-1,-2,7,-5,1.41699,0.110352,-0.0825195,-74.4375,33.625,19.75,-0.376275,-1.30222,-1.24548
2635,10,-2,16,3,4,3,2,4,1.41699,0.110352,-0.0825195,-74.4375,33.625,19.75,-0.376275,-1.30222,-1.24548
2651,-10,-19,-10,1,-2,3,1,6,1.41113,0.015625,-0.015625,-60.9375,39.5625,22.125,-0.403621,-1.29677,-1.2394
2651,8,1,9,0,-5,-3,-3,1,1.41113,0.015625,-0.015625,-60.9375,39.5625,22.125,-0.403621,-1.29677,-1.2394
2659,1,16,0,1,2,4,-2,-6,1.41113,0.015625,-0.015625,-60.9375,39.5625,22.125,-0.403621,-1.29677,-1.2394
2659,-9,-9,-9,-14,-8,-9,-8,2,1.41113,0.015625,-0.015625,-60.9375,39.5625,22.125,-0.403621,-1.29677,-1.2394
2660,14,22,5,9,2,0,13,9,1.33887,0.0390625,0.0810547,-41.6875,43.9375,29.0625,-0.42271,-1.2863,-1.2339
2660,-10,-3,-6,2,6,-1,-29,-14,1.33887,0.0390625,0.0810547,-41.6875,43.9375,29.0625,-0.42271,-1.2863,-1.2339
2680,19,15,7,6,7,5,29,11,1.33887,0.0390625,0.0810547,-41.6875,43.9375,29.0625,-0.42271,-1.2863,-1.2339
2680,-30,14,7,6,3,1,-10,-17,1.33887,0.0390625,0.0810547,-41.6875,43.9375,29.0625,-0.42271,-1.2863,-1.2339
2687,-3,-10,-3,-6,-7,-4,-9,-5,1.21387,0.0302734,0.15332,-40.25,41.4375,29.9375,-0.440019,-1.27429,-1.22945
2687,16,7,10,-4,-6,-6,3,1,1.21387,0.0302734,0.15332,-40.25,41.4375,29.9375,-0.440019,-1.27429,-1.22945
2695,4,7,3,-2,3,8,3,-2,1.21387,0.0302734,0.15332,-40.25,41.4375,29.9375,-0.440019,-1.27429,-1.22945
2695,1,-8,-2,3,2,-1,3,16,1.21387,0.0302734,0.15332,-40.25,41.4375,29.9375,-0.440019,-1.27429,-1.22945
2704,-39,-2,1,-6,-7,-6,-2,-24,1.12451,-0.0195312,0.178711,-48.25,35.1875,25.125,-0.460041,-1.264,-1.22582
2704,-15,3,1,-8,-6,-3,22,15,1.12451,-0.0195312,0.178711,-48.25,35.1875,25.125,-0.460041,-1.264,-1.22582
2719,37,4,-1,-9,-4,-7,-18,-6,1.12451,-0.0195312,0.178711,-48.25,35.1875,25.125,-0.460041,-1.264,-1.22582
2719,18,-15,-3,3,10,7,6,-4,1.12451,-0.0195312,0.178711,-48.25,35.1875,25.125,-0.460041,-1.264,-1.22582
2720,25,5,7,19,17,19,0,-9,1.08887,-0.143555,0.185059,-65.4375,29.8125,17.1875,-0.488045,-1.25497,-1.22083
2720,-51,-9,-7,7,2,12,40,47,1.08887,-0.143555,0.185059,-65.4375,29.8125,17.1875,-0.488045,-1.25497,-1.22083
2741,39,-18,-21,-29,-20,-27,-29,20,1.08887,-0.143555,0.185059,-65.4375,29.8125,17.1875,-0.488045,-1.25497,-1.22083
2741,8,6,-2,-6,-10,-19,-61,-36,1.08887,-0.143555,0.185059,-65.4375,29.8125,17.1875,-0.488045,-1.25497,-1.22083
2743,-54,-20,-13,-8,-5,-7,-8,-12,1.04004,-0.211914,0.243652,-59.1875,30.0625,16.5,-0.5136,-1.24367,-1.21596
2743,56,0,-1,9,6,7,-6,-13,1.04004,-0.211914,0.243652,-59.1875,30.0625,16.5,-0.5136,-1.24367,-1.21596
2754,-85,-3,2,11,7,9,12,-7,1.04004,-0.211914,0.243652,-59.1875,30.0625,16.5,-0.5136,-1.24367,-1.21596
2754,58,-24,0,-3,0,14,80,58,1.04004,-0.211914,0.243652,-59.1875,30.0625,16.5,-0.5136,-1.24367,-1.21596
2763,-13,-10,2,-4,-3,-1,17,65,0.994629,-0.25,0.274414,-38.875,28.9375,9.125,-0.526697,-1.23302,-1.21714
2763,31,11,5,-8,-5,-12,-56,-90,0.994629,-0.25,0.274414,-38.875,28.9375,9.125,-0.526697,-1.23302,-1.21714
2785,-1,3,-9,-7,-3,-5,-36,-44,0.994629,-0.25,0.274414,-38.875,28.9375,9.125,-0.526697,-1.23302,-1.21714
2785,-24,10,-5,-6,-7,-2,-9,-33,0.994629,-0.25,0.274414,-38.875,28.9375,9.125,-0.526697,-1.23302,-1.21714
2787,28,19,3,7,1,8,46,-12,1.02148,-0.29834,0.333008,-21.8125,29.125,15.0625,-0.538765,-1.22035,-1.21353
2787,68,10,-2,4,-1,-1,31,97,1.02148,-0.29834,0.333008,-21.8125,29.125,15.0625,-0.538765,-1.22035,-1.21353
2801,-81,-49,-12,-5,-6,-10,-14,-28,1.02148,-0.29834,0.333008,-21.8125,29.125,15.0625,-0.538765,-1.22035,-1.21353
2801,-4,11,-2,2,-3,-6,-26,-26,1.02148,-0.29834,0.333008,-21.8125,29.125,15.0625,-0.538765,-1.22035,-1.21353
2802,43,29,6,4,5,0,-4,-1,1.01709,-0.301758,0.370117,-6.125,37.75,19.875,-0.543339,-1.20351,-1.21144
2802,52,17,-6,4,4,12,53,47,1.01709,-0.301758,0.370117,-6.125,37.75,19.875,-0.543339,-1.20351,-1.21144
2815,-62,-5,0,8,8,4,-35,-12,1.01709,-0.301758,0.370117,-6.125,37.75,19.875,-0.543339,-1.20351,-1.21144
2815,-37,-15,4,-5,-7,-9,-12,28,1.01709,-0.301758,0.370117,-6.125,37.75,19.875,-0.543339,-1.20351,-1.21144
2831,-4,-85,-5,-11,-11,-9,-22,26,0.935059,-0.165039,0.434082,-5.8125,44.8125,15.1875,-0.531188,-1.18543,-1.2256
2831,0,-37,-1,-7,-3,-3,-23,-30,0.935059,-0.165039,0.434082,-5.8125,44.8125,15.1875,-0.531188,-1.18543,-1.2256
2838,34,22,4,0,-4,6,46,53,0.935059,-0.165039,0.434082,-5.8125,44.8125,15.1875,-0.531188,-1.18543,-1.2256
2838,0,41,-2,0,4,7,13,13,0.935059,-0.165039,0.434082,-5.8125,44.8125,15.1875,-0.531188,-1.18543,-1.2256
2840,18,57,-5,1,-4,-7,-19,-19,0.864258,-0.188965,0.44873,-17.4375,42.5,18.875,-0.528844,-1.16676,-1.23414
2840,-44,6,-10,-6,-10,-6,4,-3,0.864258,-0.188965,0.44873,-17.4375,42.5,18.875,-0.528844,-1.16676,-1.23414
2860,16,12,3,-8,-8,-3,9,7,0.864258,-0.188965,0.44873,-17.4375,42.5,18.875,-0.528844,-1.16676,-1.23414
2860,-3,2,5,1,4,0,-17,-24,0.864258,-0.188965,0.44873,-17.4375,42.5,18.875,-0.528844,-1.16676,-1.23414
2861,4,5,11,16,15,4,0,-14,0.897461,-0.23584,0.483887,-31.1875,38.1875,20.0625,-0.535359,-1.1487,-1.23847
2861,-43,-17,7,7,16,9,-3,-9,0.897461,-0.23584,0.483887,-31.1875,38.1875,20.0625,-0.535359,-1.1487,-1.23847
2874,12,6,6,5,-2,0,-19,-7,0.897461,-0.23584,0.483887,-31.1875,38.1875,20.0625,-0.535359,-1.1487,-1.23847
2874,11,-14,8,-8,-11,-2,5,-9,0.897461,-0.23584,0.483887,-31.1875,38.1875,20.0625,-0.535359,-1.1487,-1.23847
2883,16,-3,-37,-16,-12,1,3,11,0.939453,-0.325195,0.519531,-25.5625,32.5625,26.3125,-0.549095,-1.13043,-1.23326
2883,-19,14,-1,2,-9,-4,-2,-5,0.939453,-0.325195,0.519531,-25.5625,32.5625,26.3125,-0.549095,-1.13043,-1.23326
2898,5,-11,-9,-3,-1,-2,-5,-8,0.939453,-0.325195,0.519531,-25.5625,32.5625,26.3125,-0.549095,-1.13043,-1.23326
2898,-33,-9,7,5,5,6,9,3,0.939453,-0.325195,0.519531,-25.5625,32.5625,26.3125,-0.549095,-1.13043,-1.23326
2900,-22,-15,-3,0,-1,1,4,-4,0.916992,-0.479492,0.505371,-4,33.4375,39.375,-0.569185,-1.10816,-1.21389
2900,-7,4,8,-12,-3,-8,-21,-19,0.916992,-0.479492,0.505371,-4,33.4375,39.375,-0.569185,-1.10816,-1.21389
2921,28,8,-5,-1,-2,-2,8,4,0.916992,-0.479492,0.505371,-4,33.4375,39.375,-0.569185,-1.10816,-1.21389
2921,20,2,-6,-2,-3,-3,3,11,0.916992,-0.479492,0.505371,-4,33.4375,39.375,-0.569185,-1.10816,-1.21389
2923,-13,3,2,-6,-3,-3,-8,-9,0.904785,-0.509277,0.560059,22.5,31.9375,39.5,-0.578791,-1.08541,-1.19585
2923,-52,3,-2,0,0,-1,-4,-7,0.904785,-0.509277,0.560059,22.5,31.9375,39.5,-0.578791,-1.08541,-1.19585
2935,-26,-3,10,8,4,11,11,-3,0.904785,-0.509277,0.560059,22.5,31.9375,39.5,-0.578791,-1.08541,-1.19585
2935,9,-16,-2,12,4,0,3,-5,0.904785,-0.509277,0.560059,22.5,31.9375,39.5,-0.578791,-1.08541,-1.19585
2944,33,14,5,14,8,4,-6,-1,0.843262,-0.448242,0.563477,45.8125,28.5,40.125,-0.578068,-1.06422,-1.17946
2944,14,-21,-4,-8,-7,-6,-4,3,0.843262,-0.448242,0.563477,45.8125,28.5,40.125,-0.578068,-1.06422,-1.17946
2959,-57,-5,-10,-15,-11,-7,6,6,0.843262,-0.448242,0.563477,45.8125,28.5,40.125,-0.578068,-1.06422,-1.17946
2959,27,7,-11,-21,-9,-4,-13,-6,0.843262,-0.448242,0.563477,45.8125,28.5,40.125,-0.578068,-1.06422,-1.17946
2966,-34,-2,6,1,0,6,-8,-10,0.814941,-0.412109,0.537598,52.1875,25.3125,44.0625,-0.576512,-1.04393,-1.16089
2966,-10,5,0,16,15,5,11,-1,0.814941,-0.412109,0.537598,52.1875,25.3125,44.0625,-0.576512,-1.04393,-1.16089
2981,59,8,0,30,19,6,8,15,0.814941,-0.412109,0.537598,52.1875,25.3125,44.0625,-0.576512,-1.04393,-1.16089
2981,47,-1,-10,1,-12,-4,43,26,0.814941,-0.412109,0.537598,52.1875,25.3125,44.0625,-0.576512,-1.04393,-1.16089
2982,-53,-16,-4,-31,-37,-21,-42,-25,0.826172,-0.455566,0.621094,35.875,18.125,41.625,-0.580698,-1.0252,-1.14219
2982,61,28,16,-59,-21,-10,-51,-21,0.826172,-0.455566,0.621094,35.875,18.125,41.625,-0.580698,-1.0252,-1.14219
2994,-53,-10,0,28,-3,-8,22,-1,0.826172,-0.455566,0.621094,35.875,18.125,41.625,-0.580698,-1.0252,-1.14219
2994,36,2,17,18,17,-5,-8,-17,0.826172,-0.455566,0.621094,35.875,18.125,41.625,-0.580698,-1.0252,-1.14219
3003,18,20,0,4,40,35,61,37,0.890137,-0.602051,0.716797,32.4375,9.125,47,-0.593335,-1.00572,-1.11536
3003,-88,-45,-11,36,8,0,-8,-4,0.890137,-0.602051,0.716797,32.4375,9.125,47,-0.593335,-1.00572,-1.11536
3018,46,-6,9,-26,32,11,26,18,0.890137,-0.602051,0.716797,32.4375,9.125,47,-0.593335,-1.00572,-1.11536
3018,19,6,10,43,14,-1,-78,-45,0.890137,-0.602051,0.716797,32.4375,9.125,47,-0.593335,-1.00572,-1.11536
3032,-80,-23,-13,-18,-30,-34,-48,-68,0.98584,-0.666992,0.618164,53,4.5,53.3125,-0.606271,-0.98886,-1.08103
3032,60,4,-13,-34,-45,-16,9,30,0.98584,-0.666992,0.618164,53,4.5,53.3125,-0.606271,-0.98886,-1.08103
3041,10,3,-13,4,-9,11,42,19,0.98584,-0.666992,0.618164,53,4.5,53.3125,-0.606271,-0.98886,-1.08103
3041,88,6,-6,-5,-7,2,27,59,0.98584,-0.666992,0.618164,53,4.5,53.3125,-0.606271,-0.98886,-1.08103
3042,-19,4,4,-13,-2,6,31,-17,1.21338,-0.516602,0.724609,33.9375,2,35,-0.609437,-0.979924,-1.06332
3042,41,45,10,5,23,37,55,50,1.21338,-0.516602,0.724609,33.9375,2,35,-0.609437,-0.979924,-1.06332
3064,37,-42,5,36,-54,-60,-75,-78,1.21338,-0.516602,0.724609,33.9375,2,35,-0.609437,-0.979924,-1.06332
3064,49,19,55,-95,-1,0,77,48,1.21338,-0.516602,0.724609,33.9375,2,35,-0.609437,-0.979924,-1.06332
3065,-20,24,-4,42,-24,33,50,84,0.921875,-0.614746,0.724609,86.25,4.4375,40.9375,-0.599698,-0.964287,-1.04029
3065,-112,-110,-39,-10,-80,-112,-87,-95,0.921875,-0.614746,0.724609,86.25,4.4375,40.9375,-0.599698,-0.964287,-1.04029
3077,107,25,67,-109,25,10,44,80,0.921875,-0.614746,0.724609,86.25,4.4375,40.9375,-0.599698,-0.964287,-1.04029
3077,-15,-8,6,78,47,57,38,31,0.921875,-0.614746,0.724609,86.25,4.4375,40.9375,-0.599698,-0.964287,-1.04029
3085,5,4,3,-33,99,7,-86,-71,0.529297,-0.161621,0.453125,63.9375,-52.8125,41.1875,-0.604267,-0.96909,-1.00544
3085,114,12,-6,127,85,66,105,114,0.529297,-0.161621,0.453125,63.9375,-52.8125,41.1875,-0.604267,-0.96909,-1.00544
3101,-128,-20,-21,70,53,53,-94,-128,0.529297,-0.161621,0.453125,63.9375,-52.8125,41.1875,-0.604267,-0.96909,-1.00544
3101,91,41,36,30,-23,-53,10,4,0.529297,-0.161621,0.453125,63.9375,-52.8125,41.1875,-0.604267,-0.96909,-1.00544
3102,-39,57,22,-20,-2,-31,127,96,1.32227,-0.458496,0.100586,57.1875,-77.75,-28.125,-0.609723,-1.0075,-0.980431
3102,-21,26,-6,-103,-12,89,-102,-53,1.32227,-0.458496,0.100586,57.1875,-77.75,-28.125,-0.609723,-1.0075,-0.980431
3124,-84,13,-6,108,-59,-49,54,26,1.32227,-0.458496,0.100586,57.1875,-77.75,-28.125,-0.609723,-1.0075,-0.980431
3124,4,38,-25,-126,-87,-23,-33,-2,1.32227,-0.458496,0.100586,57.1875,-77.75,-28.125,-0.609723,-1.0075,-0.980431
3125,-12,101,-54,-29,-117,-36,-39,-56,1.19189,-0.0810547,0.239746,69.25,-48.25,3.4375,-0.59921,-1.03061,-0.963185
3125,42,90,47,-118,-69,-78,27,19,1.19189,-0.0810547,0.239746,69.25,-48.25,3.4375,-0.59921,-1.03061,-0.963185
3130,92,12,30,23,67,23,33,70,1.19189,-0.0810547,0.239746,69.25,-48.25,3.4375,-0.59921,-1.03061,-0.963185
3130,-65,-40,-33,38,115,116,18,2,1.19189,-0.0810547,0.239746,69.25,-48.25,3.4375,-0.59921,-1.03061,-0.963185
3137,127,-51,32,120,121,86,-39,-16,0.37207,-0.0463867,0.430664,48.5,-28.0625,-8.8125,-0.577911,-1.03696,-0.965475
3137,-69,-63,37,-50,77,86,-20,-51,0.37207,-0.0463867,0.430664,48.5,-28.0625,-8.8125,-0.577911,-1.03696,-0.965475
3152,-26,-80,-42,-24,-118,-21,-1,19,0.37207,-0.0463867,0.430664,48.5,-28.0625,-8.8125,-0.577911,-1.03696,-0.965475
3152,50,-25,-7,-59,-105,-103,-86,-32,0.37207,-0.0463867,0.430664,48.5,-28.0625,-8.8125,-0.577911,-1.03696,-0.965475
3159,-66,-87,-28,-116,-128,-78,-20,-43,1.06934,0.182617,0.618652,15,16.25,-14.8125,-0.537056,-1.03919,-0.999862
3159,-4,-19,5,-5,25,-38,47,18,1.06934,0.182617,0.618652,15,16.25,-14.8125,-0.537056,-1.03919,-0.999862
3166,67,-3,-31,-14,93,38,-11,8,1.06934,0.182617,0.618652,15,16.25,-14.8125,-0.537056,-1.03919,-0.999862
3166,-73,-35,-16,75,9,-15,-10,-18,1.06934,0.182617,0.618652,15,16.25,-14.8125,-0.537056,-1.03919,-0.999862
3175,52,-10,-4,-77,-79,-9,-2,25,1.52881,0.400391,0.513184,-0.0625,40.375,-0.875,-0.496194,-1.04094,-1.03879
3175,-18,-12,-8,35,-26,-6,19,-5,1.52881,0.400391,0.513184,-0.0625,40.375,-0.875,-0.496194,-1.04094,-1.03879
3190,-16,14,6,24,34,-1,-15,1,1.52881,0.400391,0.513184,-0.0625,40.375,-0.875,-0.496194,-1.04094,-1.03879
3190,22,20,32,108,31,18,-10,-2,1.52881,0.400391,0.513184,-0.0625,40.375,-0.875,-0.496194,-1.04094,-1.03879
3198,31,-6,-20,-60,20,5,-3,13,1.87109,0.390625,0.489258,17.1875,40.9375,-0.625,-0.451137,-1.04617,-1.07596
3198,-68,-4,5,110,16,-3,5,-16,1.87109,0.390625,0.489258,17.1875,40.9375,-0.625,-0.451137,-1.04617,-1.07596
3212,-69,10,17,4,-24,-28,-4,-18,1.87109,0.390625,0.489258,17.1875,40.9375,-0.625,-0.451137,-1.04617,-1.07596
3212,37,5,-95,-16,-35,-38,-17,-17,1.87109,0.390625,0.489258,17.1875,40.9375,-0.625,-0.451137,-1.04617,-1.07596
3220,-67,-28,41,-38,-47,-4,-31,2,1.62354,0.259766,0.516602,21.8125,40.9375,3.375,-0.413167,-1.04518,-1.10461
3220,4,4,-30,-45,-8,-28,35,14,1.62354,0.259766,0.516602,21.8125,40.9375,3.375,-0.413167,-1.04518,-1.10461
3227,60,15,14,27,90,100,35,17,1.62354,0.259766,0.516602,21.8125,40.9375,3.375,-0.413167,-1.04518,-1.10461
3227,1,-4,27,-29,-31,6,16,-20,1.62354,0.259766,0.516602,21.8125,40.9375,3.375,-0.413167,-1.04518,-1.10461
3244,-30,-20,41,-44,19,-67,-2,-20,1.27588,-0.197266,0.491699,0.6875,42.125,-0.4375,-0.402347,-1.03658,-1.11686
3244,-17,-10,2,109,99,29,7,-20,1.27588,-0.197266,0.491699,0.6875,42.125,-0.4375,-0.402347,-1.03658,-1.11686
3250,113,42,-16,74,-13,2,-8,10,1.27588,-0.197266,0.491699,0.6875,42.125,-0.4375,-0.402347,-1.03658,-1.11686
3250,-114,-89,-27,-118,-51,-103,-20,-27,1.27588,-0.197266,0.491699,0.6875,42.125,-0.4375,-0.402347,-1.03658,-1.11686
3256,127,37,-22,14,-27,74,-23,70,1.09424,-0.699219,0.469238,0.0625,45,7.3125,-0.41744,-1.02031,-1.10577
3256,-93,-23,67,78,35,29,-19,-63,1.09424,-0.699219,0.469238,0.0625,45,7.3125,-0.41744,-1.02031,-1.10577
3273,16,27,9,-46,-1,-40,-34,-12,1.09424,-0.699219,0.469238,0.0625,45,7.3125,-0.41744,-1.02031,-1.10577
3273,56,30,9,-27,3,13,1,25,1.09424,-0.699219,0.469238,0.0625,45,7.3125,-0.41744,-1.02031,-1.10577
3280,-3,-17,-55,-29,9,-10,34,-7,0.891113,-0.750977,0.415527,16,52.125,21.9375,-0.434374,-0.998198,-1.0871
3280,-4,-36,-41,-38,-66,-26,-32,-9,0.891113,-0.750977,0.415527,16,52.125,21.9375,-0.434374,-0.998198,-1.0871
3304,-46,-11,-53,-41,-63,-38,-13,2,0.891113,-0.750977,0.415527,16,52.125,21.9375,-0.434374,-0.998198,-1.0871
3304,-22,12,32,-43,-59,-7,28,13,0.891113,-0.750977,0.415527,16,52.125,21.9375,-0.434374,-0.998198,-1.0871
3305,-10,-8,-23,52,-6,-31,-7,-23,0.758301,-0.54834,0.36377,25,56.25,25.5,-0.440377,-0.97552,-1.07466
3305,51,15,24,19,92,65,24,5,0.758301,-0.54834,0.36377,25,56.25,25.5,-0.440377,-0.97552,-1.07466
3317,-25,-11,15,48,48,4,-13,-22,0.758301,-0.54834,0.36377,25,56.25,25.5,-0.440377,-0.97552,-1.07466
3317,-25,4,-3,3,0,64,24,20,0.758301,-0.54834,0.36377,25,56.25,25.5,-0.440377,-0.97552,-1.07466
3326,13,4,69,45,-13,-32,8,-10,0.798828,-0.331543,0.353516,1.5,63.1875,24.4375,-0.443804,-0.954123,-1.07246
3326,112,23,-80,-49,-23,2,33,38,0.798828,-0.331543,0.353516,1.5,63.1875,24.4375,-0.443804,-0.954123,-1.07246
3341,-93,-30,7,-111,-16,6,-54,-19,0.798828,-0.331543,0.353516,1.5,63.1875,24.4375,-0.443804,-0.954123,-1.07246
3341,-46,-5,-37,119,-18,46,16,-29,0.798828,-0.331543,0.353516,1.5,63.1875,24.4375,-0.443804,-0.954123,-1.07246
3342,89,10,21,-8,84,33,-11,16,0.795898,-0.191406,0.333496,-27.25,68,12.375,-0.445757,-0.93493,-1.08239
3342,-87,-5,63,-3,-27,-2,52,10,0.795898,-0.191406,0.333496,-27.25,68,12.375,-0.445757,-0.93493,-1.08239
3363,76,24,-2,-7,-54,-26,-39,-10,0.795898,-0.191406,0.333496,-27.25,68,12.375,-0.445757,-0.93493,-1.08239
3363,-43,-7,-14,-65,-32,-22,21,4,0.795898,-0.191406,0.333496,-27.25,68,12.375,-0.445757,-0.93493,-1.08239
3365,5,-7,15,-5,-10,-12,18,-7,0.797363,-0.197754,0.333008,-36.8125,70.625,6.8125,-0.448815,-0.915998,-1.09532
3365,48,14,-31,-4,-58,-52,-30,12,0.797363,-0.197754,0.333008,-36.8125,70.625,6.8125,-0.448815,-0.915998,-1.09532
3377,90,15,50,-36,15,7,13,7,0.797363,-0.197754,0.333008,-36.8125,70.625,6.8125,-0.448815,-0.915998,-1.09532
3377,-75,-3,-16,80,100,46,11,-18,0.797363,-0.197754,0.333008,-36.8125,70.625,6.8125,-0.448815,-0.915998,-1.09532
3386,14,6,11,65,-32,-36,-17,-6,0.682129,-0.179199,0.286621,-33.125,71.1875,5.875,-0.45041,-0.896777,-1.10875
3386,90,35,-1,-70,13,10,19,12,0.682129,-0.179199,0.286621,-33.125,71.1875,5.875,-0.45041,-0.896777,-1.10875
3401,-29,8,36,89,53,74,4,-5,0.682129,-0.179199,0.286621,-33.125,71.1875,5.875,-0.45041,-0.896777,-1.10875
3401,48,-7,-70,-49,-13,-52,-20,-4,0.682129,-0.179199,0.286621,-33.125,71.1875,5.875,-0.45041,-0.896777,-1.10875
3402,-48,-22,25,15,39,68,-4,-19,0.571777,-0.267578,0.262695,-39.375,74.9375,2.4375,-0.455743,-0.875042,-1.12175
3402,-21,-7,-30,-23,-48,-25,-29,-15,0.571777,-0.267578,0.262695,-39.375,74.9375,2.4375,-0.455743,-0.875042,-1.12175
3424,81,4,-20,-128,-128,-79,37,36,0.571777,-0.267578,0.262695,-39.375,74.9375,2.4375,-0.455743,-0.875042,-1.12175
3424,-38,-7,3,55,31,6,6,-14,0.571777,-0.267578,0.262695,-39.375,74.9375,2.4375,-0.455743,-0.875042,-1.12175
3425,13,-24,-4,-18,71,-76,-49,-19,0.446289,-0.260254,0.29541,-45.1875,81.625,-2.3125,-0.45981,-0.849929,-1.13927
3425,21,-7,-14,91,27,92,8,16,0.446289,-0.260254,0.29541,-45.1875,81.625,-2.3125,-0.45981,-0.849929,-1.13927
3437,53,-1,-20,-51,-2,18,30,11,0.446289,-0.260254,0.29541,-45.1875,81.625,-2.3125,-0.45981,-0.849929,-1.13927
3437,-3,-16,77,43,53,-3,2,-7,0.446289,-0.260254,0.29541,-45.1875,81.625,-2.3125,-0.45981,-0.849929,-1.13927
3446,-32,-49,-12,13,-15,-3,13,-11,0.205078,-0.359375,0.414062,-52.125,88.9375,0.3125,-0.467579,-0.816116,-1.15628
3446,6,-53,-95,-125,-63,-81,-51,-8,0.205078,-0.359375,0.414062,-52.125,88.9375,0.3125,-0.467579,-0.816116,-1.15628
3461,6,-2,35,2,-46,3,-1,3,0.205078,-0.359375,0.414062,-52.125,88.9375,0.3125,-0.467579,-0.816116,-1.15628
3461,27,33,21,51,71,28,11,29,0.205078,-0.359375,0.414062,-52.125,88.9375,0.3125,-0.467579,-0.816116,-1.15628
3463,54,49,-3,-61,16,51,31,14,0.0263672,-0.337891,0.473145,-40.9375,94.75,4.625,-0.470964,-0.776609,-1.17364
3463,4,13,19,46,15,-17,-43,-13,0.0263672,-0.337891,0.473145,-40.9375,94.75,4.625,-0.470964,-0.776609,-1.17364
3483,-15,-38,-40,-71,-44,-19,21,14,0.0263672,-0.337891,0.473145,-40.9375,94.75,4.625,-0.470964,-0.776609,-1.17364
3483,10,1,-2,-74,-113,-105,-64,-7,0.0263672,-0.337891,0.473145,-40.9375,94.75,4.625,-0.470964,-0.776609,-1.17364
3484,-63,11,18,38,72,79,62,26,0.0107422,-0.310547,0.520508,-42.5625,95.75,9.1875,-0.475313,-0.735802,-1.1899
3484,116,16,-29,68,37,36,25,11,0.0107422,-0.310547,0.520508,-42.5625,95.75,9.1875,-0.475313,-0.735802,-1.1899
3506,-40,13,-4,54,49,-25,-15,-26,0.0107422,-0.310547,0.520508,-42.5625,95.75,9.1875,-0.475313,-0.735802,-1.1899
3506,-66,-10,96,-105,-37,-21,-53,-43,0.0107422,-0.310547,0.520508,-42.5625,95.75,9.1875,-0.475313,-0.735802,-1.1899
3508,91,48,-116,-30,-37,-32,-10,28,0.0932617,-0.387207,0.646973,-45.5,94.6875,9.8125,-0.481872,-0.694681,-1.20506
3508,-46,62,99,28,-78,-23,20,24,0.0932617,-0.387207,0.646973,-45.5,94.6875,9.8125,-0.481872,-0.694681,-1.20506
3521,-4,-39,-106,-45,48,2,-17,-23,0.0932617,-0.387207,0.646973,-45.5,94.6875,9.8125,-0.481872,-0.694681,-1.20506
3521,46,-12,18,40,-29,12,1,21,0.0932617,-0.387207,0.646973,-45.5,94.6875,9.8125,-0.481872,-0.694681,-1.20506
3523,-76,-9,24,-14,-1,0,-17,-28,0.17334,-0.317871,0.710938,-38.3125,89.8125,9.75,-0.48426,-0.657113,-1.22091
3523,116,67,-14,-67,58,-18,38,41,0.17334,-0.317871,0.710938,-38.3125,89.8125,9.75,-0.48426,-0.657113,-1.22091
3543,-62,12,9,109,36,44,-5,-14,0.17334,-0.317871,0.710938,-38.3125,89.8125,9.75,-0.48426,-0.657113,-1.22091
3543,9,8,72,81,93,61,3,-9,0.17334,-0.317871,0.710938,-38.3125,89.8125,9.75,-0.48426,-0.657113,-1.22091
3545,62,0,-31,-62,-128,-62,4,23,0.225586,-0.208984,0.739746,-36.6875,78.75,15.5625,-0.486196,-0.62412,-1.23381
3545,-58,-5,-2,5,23,-55,-77,-38,0.225586,-0.208984,0.739746,-36.6875,78.75,15.5625,-0.486196,-0.62412,-1.23381
3557,21,18,6,-71,33,-23,20,30,0.225586,-0.208984,0.739746,-36.6875,78.75,15.5625,-0.486196,-0.62412,-1.23381
3557,32,6,-32,-36,-32,38,-5,-8,0.225586,-0.208984,0.739746,-36.6875,78.75,15.5625,-0.486196,-0.62412,-1.23381
3565,-52,-14,-2,51,20,42,59,14,0.280273,-0.211426,0.789062,-32.125,67.5,22.6875,-0.489105,-0.594329,-1.2419
3565,-16,-25,-3,-56,-81,-23,-48,-44,0.280273,-0.211426,0.789062,-32.125,67.5,22.6875,-0.489105,-0.594329,-1.2419
3581,-11,70,99,56,33,23,1,-7,0.280273,-0.211426,0.789062,-32.125,67.5,22.6875,-0.489105,-0.594329,-1.2419
3581,3,1,-62,107,112,10,10,19,0.280273,-0.211426,0.789062,-32.125,67.5,22.6875,-0.489105,-0.594329,-1.2419
3583,47,3,-16,5,-63,-25,-7,-7,0.335938,-0.221191,0.75,-20.75,60.6875,18.25,-0.488788,-0.569443,-1.24966
3583,-8,-76,3,-86,-66,-23,21,18,0.335938,-0.221191,0.75,-20.75,60.6875,18.25,-0.488788,-0.569443,-1.24966
3604,-54,-49,6,4,-66,-1,15,-27,0.335938,-0.221191,0.75,-20.75,60.6875,18.25,-0.488788,-0.569443,-1.24966
3604,8,-2,-6,-92,-4,-5,-9,-8,0.335938,-0.221191,0.75,-20.75,60.6875,18.25,-0.488788,-0.569443,-1.24966
3604,-13,-40,-74,7,-1,-4,-15,-10,0.384766,-0.253906,0.71875,-4.875,51,13.125,-0.484619,-0.549868,-1.25642
3604,11,12,38,73,97,10,18,6,0.384766,-0.253906,0.71875,-4.875,51,13.125,-0.484619,-0.549868,-1.25642
3617,50,0,-61,14,-35,0,-39,-13,0.384766,-0.253906,0.71875,-4.875,51,13.125,-0.484619,-0.549868,-1.25642
3617,-31,-2,43,29,111,116,85,56,0.384766,-0.253906,0.71875,-4.875,51,13.125,-0.484619,-0.549868,-1.25642
3625,-2,-24,40,30,6,-21,-52,-36,0.43457,-0.373047,0.691406,-2.5,40.3125,19.75,-0.48548,-0.533616,-1.25677
3625,43,8,-2,-40,-118,-18,17,15,0.43457,-0.373047,0.691406,-2.5,40.3125,19.75,-0.48548,-0.533616,-1.25677
3649,-81,-10,7,-55,76,-78,-5,17,0.43457,-0.373047,0.691406,-2.5,40.3125,19.75,-0.48548,-0.533616,-1.25677
3649,-24,12,-43,-12,-5,1,10,-30,0.43457,-0.373047,0.691406,-2.5,40.3125,19.75,-0.48548,-0.533616,-1.25677
3650,79,9,-19,-2,-28,98,34,56,0.419434,-0.432617,0.678223,-6.3125,33.9375,18.625,-0.489455,-0.519262,-1.25569
3650,47,27,22,6,31,22,-3,-12,0.419434,-0.432617,0.678223,-6.3125,33.9375,18.625,-0.489455,-0.519262,-1.25569
3664,-41,-20,50,50,-13,-21,-11,-11,0.419434,-0.432617,0.678223,-6.3125,33.9375,18.625,-0.489455,-0.519262,-1.25569
3664,33,-7,-12,-100,-72,-60,-14,2,0.419434,-0.432617,0.678223,-6.3125,33.9375,18.625,-0.489455,-0.519262,-1.25569
3665,48,7,-30,35,59,-5,15,-6,0.371582,-0.448242,0.648438,-3.75,29.75,17.3125,-0.493563,-0.505998,-1.254
3665,-20,-5,49,123,67,42,20,15,0.371582,-0.448242,0.648438,-3.75,29.75,17.3125,-0.493563,-0.505998,-1.254
3677,-18,9,-59,6,-29,20,0,-14,0.371582,-0.448242,0.648438,-3.75,29.75,17.3125,-0.493563,-0.505998,-1.254
3677,43,9,-64,-97,-87,-64,-15,4,0.371582,-0.448242,0.648438,-3.75,29.75,17.3125,-0.493563,-0.505998,-1.254
3686,-23,13,10,49,34,16,-1,-15,0.268066,-0.405762,0.643066,-0.9375,25.375,19,-0.496156,-0.492029,-1.25143
3686,-81,1,-12,-71,-55,-8,-36,-34,0.268066,-0.405762,0.643066,-0.9375,25.375,19,-0.496156,-0.492029,-1.25143
3701,72,23,56,118,110,-5,-4,31,0.268066,-0.405762,0.643066,-0.9375,25.375,19,-0.496156,-0.492029,-1.25143
3701,5,6,-3,5,-24,84,19,-16,0.268066,-0.405762,0.643066,-0.9375,25.375,19,-0.496156,-0.492029,-1.25143
3703,-4,2,63,-79,-71,-89,-45,-1,0.280273,-0.439941,0.651855,-4.375,24.3125,21.3125,-0.500953,-0.478157,-1.24769
3703,14,-27,-46,-77,93,3,-14,-25,0.280273,-0.439941,0.651855,-4.375,24.3125,21.3125,-0.500953,-0.478157,-1.24769
3724,-22,0,9,62,-16,6,-10,-7,0.280273,-0.439941,0.651855,-4.375,24.3125,21.3125,-0.500953,-0.478157,-1.24769
3724,16,2,33,-7,31,-55,-28,11,0.280273,-0.439941,0.651855,-4.375,24.3125,21.3125,-0.500953,-0.478157,-1.24769
3725,-29,7,-62,-39,-80,36,17,-11,0.311035,-0.473633,0.675293,-10.125,25.8125,19.125,-0.507578,-0.464868,-1.24499
3725,-62,-8,43,26,50,-24,-11,-4,0.311035,-0.473633,0.675293,-10.125,25.8125,19.125,-0.507578,-0.464868,-1.24499
3737,20,26,65,42,2,87,47,9,0.311035,-0.473633,0.675293,-10.125,25.8125,19.125,-0.507578,-0.464868,-1.24499
3737,6,-8,22,110,8,-42,-16,7,0.311035,-0.473633,0.675293,-10.125,25.8125,19.125,-0.507578,-0.464868,-1.24499
3746,5,6,-40,-57,-46,-28,-7,-7,0.296875,-0.442871,0.700195,-11.6875,26.1875,16.3125,-0.513131,-0.45174,-1.24383
3746,-37,-24,-23,-17,-119,-13,-30,-34,0.296875,-0.442871,0.700195,-11.6875,26.1875,16.3125,-0.513131,-0.45174,-1.24383
3761,100,7,-50,4,1,-26,-29,13,0.296875,-0.442871,0.700195,-11.6875,26.1875,16.3125,-0.513131,-0.45174,-1.24383
3761,-100,10,17,-20,62,78,19,2,0.296875,-0.442871,0.700195,-11.6875,26.1875,16.3125,-0.513131,-0.45174,-1.24383
3762,23,-3,46,127,127,19,17,1,0.265137,-0.418457,0.748535,-10.75,25.375,13.3125,-0.516569,-0.43873,-1.24424
3762,60,18,32,-38,-103,-18,-3,-2,0.265137,-0.418457,0.748535,-10.75,25.375,13.3125,-0.516569,-0.43873,-1.24424
3783,11,-17,-71,-128,-80,-84,28,29,0.265137,-0.418457,0.748535,-10.75,25.375,13.3125,-0.516569,-0.43873,-1.24424
3783,-70,-16,-36,18,9,16,-43,-46,0.265137,-0.418457,0.748535,-10.75,25.375,13.3125,-0.516569,-0.43873,-1.24424
3785,-16,4,18,-58,-51,14,4,-8,0.281738,-0.389648,0.78418,-12.3125,27.3125,10.875,-0.518784,-0.425994,-1.24642
3785,-11,9,44,127,127,64,15,9,0.281738,-0.389648,0.78418,-12.3125,27.3125,10.875,-0.518784,-0.425994,-1.24642
3797,38,-42,75,14,-72,53,42,10,0.281738,-0.389648,0.78418,-12.3125,27.3125,10.875,-0.518784,-0.425994,-1.24642
3797,18,-35,-68,-93,-88,-73,-13,12,0.281738,-0.389648,0.78418,-12.3125,27.3125,10.875,-0.518784,-0.425994,-1.24642
3808,-62,-3,13,20,48,-14,-24,-31,0.270996,-0.381348,0.813477,-14.5625,28.875,11.8125,-0.521279,-0.412456,-1.24878
3808,5,-9,-48,-72,-96,27,49,25,0.270996,-0.381348,0.813477,-14.5625,28.875,11.8125,-0.521279,-0.412456,-1.24878
3829,54,34,41,10,40,32,-33,-27,0.270996,-0.381348,0.813477,-14.5625,28.875,11.8125,-0.521279,-0.412456,-1.24878
3829,-67,-31,-13,10,17,-33,-10,-36,0.270996,-0.381348,0.813477,-14.5625,28.875,11.8125,-0.521279,-0.412456,-1.24878
3830,10,1,25,20,-21,-41,-54,-1,0.275879,-0.437988,0.866699,-11.9375,28.5,11.5,-0.523281,-0.398764,-1.25094
3830,-5,-1,-28,65,35,-23,12,21,0.275879,-0.437988,0.866699,-11.9375,28.5,11.5,-0.523281,-0.398764,-1.25094
3843,60,13,97,-91,16,-23,-8,8,0.275879,-0.437988,0.866699,-11.9375,28.5,11.5,-0.523281,-0.398764,-1.25094
3843,-67,-18,46,-48,-5,9,6,-12,0.275879,-0.437988,0.866699,-11.9375,28.5,11.5,-0.523281,-0.398764,-1.25094
3845,26,-32,-59,-1,-3,14,42,20,0.297852,-0.437012,0.85791,-4.375,29.375,10.6875,-0.52261,-0.385974,-1.2536
3845,29,12,77,67,69,-10,-64,-12,0.297852,-0.437012,0.85791,-4.375,29.375,10.6875,-0.52261,-0.385974,-1.2536
3856,-56,-4,-104,-39,-12,11,18,-5,0.297852,-0.437012,0.85791,-4.375,29.375,10.6875,-0.52261,-0.385974,-1.2536
3856,95,34,4,-2,-24,-26,-6,15,0.297852,-0.437012,0.85791,-4.375,29.375,10.6875,-0.52261,-0.385974,-1.2536
3866,-28,12,26,88,76,-5,6,19,0.270996,-0.413086,0.851562,-1.8125,27.25,16.1875,-0.521543,-0.372637,-1.25405
3866,4,25,18,-23,-20,69,30,-3,0.270996,-0.413086,0.851562,-1.8125,27.25,16.1875,-0.521543,-0.372637,-1.25405
3880,41,13,-58,-4,-46,28,40,8,0.270996,-0.413086,0.851562,-1.8125,27.25,16.1875,-0.521543,-0.372637,-1.25405
3880,-20,15,1,-109,-58,-4,-30,-14,0.270996,-0.413086,0.851562,-1.8125,27.25,16.1875,-0.521543,-0.372637,-1.25405
3886,-48,-1,-9,70,115,43,-10,-9,0.358398,-0.434082,0.858398,-2.25,26.5,18.0625,-0.52141,-0.361329,-1.25364
3886,-30,-21,-20,-62,-86,47,-15,1,0.358398,-0.434082,0.858398,-2.25,26.5,18.0625,-0.52141,-0.361329,-1.25364
3904,15,-5,-23,85,100,-75,-9,9,0.358398,-0.434082,0.858398,-2.25,26.5,18.0625,-0.52141,-0.361329,-1.25364
3904,49,4,-12,28,-38,28,28,33,0.358398,-0.434082,0.858398,-2.25,26.5,18.0625,-0.52141,-0.361329,-1.25364
3905,30,-11,61,-105,-76,-128,-23,-42,0.388184,-0.444824,0.844727,-5.5,25.5,18.125,-0.522686,-0.35125,-1.25277
3905,25,-4,45,-2,4,-126,-14,-25,0.388184,-0.444824,0.844727,-5.5,25.5,18.125,-0.522686,-0.35125,-1.25277
3926,-77,-23,-89,30,45,-36,9,-7,0.388184,-0.444824,0.844727,-5.5,25.5,18.125,-0.522686,-0.35125,-1.25277
3926,56,23,21,111,65,-86,16,18,0.388184,-0.444824,0.844727,-5.5,25.5,18.125,-0.522686,-0.35125,-1.25277
3927,14,15,111,3,-30,-80,-10,6,0.348633,-0.450195,0.841309,1.6875,27.1875,15.625,-0.521277,-0.340673,-1.25315
3927,1,-13,-27,-73,-38,-48,17,3,0.348633,-0.450195,0.841309,1.6875,27.1875,15.625,-0.521277,-0.340673,-1.25315
3940,-11,-51,-45,-104,-55,-59,-25,-3,0.348633,-0.450195,0.841309,1.6875,27.1875,15.625,-0.521277,-0.340673,-1.25315
3940,-18,4,-14,85,16,-44,4,-9,0.348633,-0.450195,0.841309,1.6875,27.1875,15.625,-0.521277,-0.340673,-1.25315
3947,-9,7,-22,-60,-31,-72,-19,20,0.314453,-0.413574,0.831055,4.625,26.6875,17.5625,-0.518479,-0.32945,-1.25276
3947,9,6,-20,-29,-8,6,16,-18,0.314453,-0.413574,0.831055,4.625,26.6875,17.5625,-0.518479,-0.32945,-1.25276
3963,-15,31,96,110,92,48,62,19,0.314453,-0.413574,0.831055,4.625,26.6875,17.5625,-0.518479,-0.32945,-1.25276
3963,16,-11,35,-47,-37,38,-1,13,0.314453,-0.413574,0.831055,4.625,26.6875,17.5625,-0.518479,-0.32945,-1.25276
3964,-66,-7,-30,-81,-44,47,-42,-48,0.293945,-0.452148,0.809082,2.375,25.625,20.0625,-0.518064,-0.317928,-1.25109
3964,-18,-4,-48,46,39,64,-3,20,0.293945,-0.452148,0.809082,2.375,25.625,20.0625,-0.518064,-0.317928,-1.25109
3978,1,0,28,-49,-128,30,-8,-2,0.293945,-0.452148,0.809082,2.375,25.625,20.0625,-0.518064,-0.317928,-1.25109
3978,20,-16,-56,-28,67,82,9,-4,0.293945,-0.452148,0.809082,2.375,25.625,20.0625,-0.518064,-0.317928,-1.25109
3980,-14,-2,37,69,102,86,-21,2,0.285156,-0.469727,0.814941,3.875,27.1875,15.75,-0.516886,-0.306623,-1.25102
3980,32,7,-32,59,52,5,65,-9,0.285156,-0.469727,0.814941,3.875,27.1875,15.75,-0.516886,-0.306623,-1.25102
3993,-45,12,77,5,17,55,-61,5,0.285156,-0.469727,0.814941,3.875,27.1875,15.75,-0.516886,-0.306623,-1.25102
3993,19,-14,-87,-105,-121,-50,-72,-39,0.285156,-0.469727,0.814941,3.875,27.1875,15.75,-0.516886,-0.306623,-1.25102
3999,-31,-8,54,85,42,61,14,7,0.233398,-0.466797,0.826172,2.4375,25.625,17.125,-0.516198,-0.294621,-1.25015
3999,-62,-3,-4,90,53,23,-33,2,0.233398,-0.466797,0.826172,2.4375,25.625,17.125,-0.516198,-0.294621,-1.25015
4016,65,-4,6,-19,19,61,70,15,0.233398,-0.466797,0.826172,2.4375,25.625,17.125,-0.516198,-0.294621,-1.25015
4016,-3,14,54,29,14,25,44,6,0.233398,-0.466797,0.826172,2.4375,25.625,17.125,-0.516198,-0.294621,-1.25015
4017,71,9,-72,-95,-113,9,-14,9,0.262207,-0.476562,0.821289,2.1875,24,18.3125,-0.516151,-0.283787,-1.2487
4017,-62,2,-7,18,63,25,-4,-9,0.262207,-0.476562,0.821289,2.1875,24,18.3125,-0.516151,-0.283787,-1.2487
4030,-28,-4,-89,-38,-53,-19,-24,-8,0.262207,-0.476562,0.821289,2.1875,24,18.3125,-0.516151,-0.283787,-1.2487
4030,-6,-9,-16,-1,-22,10,3,0,0.262207,-0.476562,0.821289,2.1875,24,18.3125,-0.516151,-0.283787,-1.2487
4039,16,-10,42,-7,73,5,15,3,0.258789,-0.474609,0.820801,5.75,22.875,17.9375,-0.514662,-0.273538,-1.24692
4039,28,24,69,-48,-6,-12,12,27,0.258789,-0.474609,0.820801,5.75,22.875,17.9375,-0.514662,-0.273538,-1.24692
4060,-5,-27,-30,-20,-65,-58,-31,-26,0.258789,-0.474609,0.820801,5.75,22.875,17.9375,-0.514662,-0.273538,-1.24692
4060,-17,14,6,48,75,5,14,7,0.258789,-0.474609,0.820801,5.75,22.875,17.9375,-0.514662,-0.273538,-1.24692
4067,-16,6,36,-33,-56,1,1,8,0.254395,-0.430664,0.819824,6,21.125,16.25,-0.512264,-0.264478,-1.24575
4067,-35,-30,-66,70,71,-30,-25,-23,0.254395,-0.430664,0.819824,6,21.125,16.25,-0.512264,-0.264478,-1.24575
4083,-30,19,-3,3,93,64,-3,18,0.254395,-0.430664,0.819824,6,21.125,16.25,-0.512264,-0.264478,-1.24575
4083,34,5,19,-38,-91,-14,-10,-24,0.254395,-0.430664,0.819824,6,21.125,16.25,-0.512264,-0.264478,-1.24575
4085,3,6,49,66,93,34,25,12,0.234375,-0.440918,0.80957,2.1875,19.25,14.375,-0.511469,-0.255908,-1.24477
4085,71,-9,10,-57,-92,-28,-37,-4,0.234375,-0.440918,0.80957,2.1875,19.25,14.375,-0.511469,-0.255908,-1.24477
4106,-107,-36,-69,-101,-101,-61,-24,-19,0.234375,-0.440918,0.80957,2.1875,19.25,14.375,-0.511469,-0.255908,-1.24477
4106,-7,2,43,62,100,55,5,2,0.234375,-0.440918,0.80957,2.1875,19.25,14.375,-0.511469,-0.255908,-1.24477
4107,64,19,-52,70,40,-17,19,27,0.256836,-0.457031,0.80957,4.375,18.6875,12.0625,-0.51012,-0.248617,-1.24419
4107,-9,-12,0,-113,-89,44,65,-8,0.256836,-0.457031,0.80957,4.375,18.6875,12.0625,-0.51012,-0.248617,-1.24419
4120,33,5,9,113,11,-8,-35,-2,0.256836,-0.457031,0.80957,4.375,18.6875,12.0625,-0.51012,-0.248617,-1.24419
4120,-20,-7,-39,-81,-62,-48,-39,-21,0.256836,-0.457031,0.80957,4.375,18.6875,12.0625,-0.51012,-0.248617,-1.24419
4128,33,11,68,-4,21,66,26,-21,0.237793,-0.45459,0.807129,6.3125,16.125,12.0625,-0.508369,-0.241919,-1.24319
4128,-41,1,8,127,113,13,-7,20,0.237793,-0.45459,0.807129,6.3125,16.125,12.0625,-0.508369,-0.241919,-1.24319
4143,-29,-16,32,-119,-12,-17,11,-16,0.237793,-0.45459,0.807129,6.3125,16.125,12.0625,-0.508369,-0.241919,-1.24319
4143,28,0,-67,-71,-57,-44,-9,-1,0.237793,-0.45459,0.807129,6.3125,16.125,12.0625,-0.508369,-0.241919,-1.24319
4145,16,6,28,95,-47,-27,-16,11,0.21582,-0.45166,0.816406,4.0625,13.6875,11.4375,-0.507115,-0.235581,-1.24198
4145,34,8,-13,-31,39,21,4,4,0.21582,-0.45166,0.816406,4.0625,13.6875,11.4375,-0.507115,-0.235581,-1.24198
4165,41,14,-31,-86,-67,-42,-16,6,0.21582,-0.45166,0.816406,4.0625,13.6875,11.4375,-0.507115,-0.235581,-1.24198
4165,-14,3,59,127,90,4,25,19,0.21582,-0.45166,0.816406,4.0625,13.6875,11.4375,-0.507115,-0.235581,-1.24198
4167,-83,-26,-44,-43,13,11,-3,-33,0.200684,-0.481445,0.809082,3.0625,10.5,11.875,-0.507146,-0.229878,-1.23998
4167,-50,-4,15,-91,-87,-24,-12,5,0.200684,-0.481445,0.809082,3.0625,10.5,11.875,-0.507146,-0.229878,-1.23998
4180,22,12,27,103,65,42,-1,2,0.200684,-0.481445,0.809082,3.0625,10.5,11.875,-0.507146,-0.229878,-1.23998
4180,40,8,-7,-54,-75,0,51,7,0.200684,-0.481445,0.809082,3.0625,10.5,11.875,-0.507146,-0.229878,-1.23998
4187,-18,-17,-40,-91,-97,-40,-8,6,0.231445,-0.463867,0.812988,3,9.4375,10.25,-0.506774,-0.225689,-1.23833
4187,20,16,56,124,117,1,-27,2,0.231445,-0.463867,0.812988,3,9.4375,10.25,-0.506774,-0.225689,-1.23833
4203,32,-9,-9,-36,31,34,8,0,0.231445,-0.463867,0.812988,3,9.4375,10.25,-0.506774,-0.225689,-1.23833
4203,-65,-10,-44,-21,-4,-2,-6,-8,0.231445,-0.463867,0.812988,3,9.4375,10.25,-0.506774,-0.225689,-1.23833
4204,-7,-28,-39,15,9,-4,-12,1,0.212402,-0.453125,0.814941,2.5625,9,8.1875,-0.506034,-0.221607,-1.23726
4204,11,-11,-83,-105,-97,-43,-17,1,0.212402,-0.453125,0.814941,2.5625,9,8.1875,-0.506034,-0.221607,-1.23726
4233,-48,14,32,17,-17,-20,-7,-11,0.212402,-0.453125,0.814941,2.5625,9,8.1875,-0.506034,-0.221607,-1.23726
4233,44,9,82,-39,-25,8,-14,7,0.212402,-0.453125,0.814941,2.5625,9,8.1875,-0.506034,-0.221607,-1.23726
4234,11,8,-44,63,78,22,17,20,0.205078,-0.452637,0.820312,3.9375,8.4375,6.6875,-0.504849,-0.217811,-1.23677
4234,6,1,6,21,-2,0,-16,0,0.205078,-0.452637,0.820312,3.9375,8.4375,6.6875,-0.504849,-0.217811,-1.23677
4240,-5,3,20,-76,-11,-26,3,0,0.205078,-0.452637,0.820312,3.9375,8.4375,6.6875,-0.504849,-0.217811,-1.23677
4240,-11,-16,-1,17,-36,72,-11,-2,0.205078,-0.452637,0.820312,3.9375,8.4375,6.6875,-0.504849,-0.217811,-1.23677
4247,-2,9,-21,-111,3,7,-8,-9,0.207031,-0.456543,0.830566,1.875,9.5,5.5625,-0.504125,-0.21404,-1.23661
4247,4,22,65,93,46,59,22,-3,0.207031,-0.456543,0.830566,1.875,9.5,5.5625,-0.504125,-0.21404,-1.23661
4263,22,-6,-41,0,-40,27,-11,-2,0.207031,-0.456543,0.830566,1.875,9.5,5.5625,-0.504125,-0.21404,-1.23661
4263,-72,-19,-21,-28,117,16,-5,-4,0.207031,-0.456543,0.830566,1.875,9.5,5.5625,-0.504125,-0.21404,-1.23661
4265,27,1,-95,-128,-86,3,10,6,0.20752,-0.487793,0.826172,-1.875,9.625,5.375,-0.505493,-0.210249,-1.23648
4265,12,-20,67,46,-18,-30,9,6,0.20752,-0.487793,0.826172,-1.875,9.625,5.375,-0.505493,-0.210249,-1.23648
4286,15,9,-74,118,99,-5,-5,-11,0.20752,-0.487793,0.826172,-1.875,9.625,5.375,-0.505493,-0.210249,-1.23648
4286,11,3,74,-9,-17,-35,-1,7,0.20752,-0.487793,0.826172,-1.875,9.625,5.375,-0.505493,-0.210249,-1.23648
4287,28,12,-11,64,49,2,-5,-5,0.155762,-0.486816,0.818359,-1.5,7.25,4.25,-0.506653,-0.206275,-1.2362
4287,-25,-15,-52,-107,-57,-85,-24,-11,0.155762,-0.486816,0.818359,-1.5,7.25,4.25,-0.506653,-0.206275,-1.2362
4300,-91,-26,-27,-101,-124,27,-23,-32,0.155762,-0.486816,0.818359,-1.5,7.25,4.25,-0.506653,-0.206275,-1.2362
4300,40,10,9,87,126,-24,13,19,0.155762,-0.486816,0.818359,-1.5,7.25,4.25,-0.506653,-0.206275,-1.2362
4307,-27,3,32,29,1,15,-38,1,0.158691,-0.450195,0.825195,-4.1875,6.9375,3,-0.50782,-0.202801,-1.23647
4307,25,-3,-13,-70,-47,-17,47,6,0.158691,-0.450195,0.825195,-4.1875,6.9375,3,-0.50782,-0.202801,-1.23647
4323,26,6,47,81,18,-63,-39,-8,0.158691,-0.450195,0.825195,-4.1875,6.9375,3,-0.50782,-0.202801,-1.23647
4323,13,10,-78,-88,-30,-19,-96,9,0.158691,-0.450195,0.825195,-4.1875,6.9375,3,-0.50782,-0.202801,-1.23647
4325,-58,-4,22,63,50,53,99,-25,0.15918,-0.473633,0.836914,-7.4375,8.25,1.6875,-0.510318,-0.199109,-1.2374
4325,48,9,51,58,69,-13,-28,1,0.15918,-0.473633,0.836914,-7.4375,8.25,1.6875,-0.510318,-0.199109,-1.2374
4353,-23,-27,-94,-68,49,19,23,15,0.15918,-0.473633,0.836914,-7.4375,8.25,1.6875,-0.510318,-0.199109,-1.2374
4353,21,2,3,-21,-96,-62,-22,-15,0.15918,-0.473633,0.836914,-7.4375,8.25,1.6875,-0.510318,-0.199109,-1.2374
4355,6,-4,103,-24,-88,-46,-10,2,0.175293,-0.477051,0.858398,-3,7.75,0.75,-0.511054,-0.19617,-1.23851
4355,-17,7,-128,-29,-27,21,-21,-19,0.175293,-0.477051,0.858398,-3,7.75,0.75,-0.511054,-0.19617,-1.23851
4360,25,14,61,-6,10,-34,39,5,0.175293,-0.477051,0.858398,-3,7.75,0.75,-0.511054,-0.19617,-1.23851
4360,38,6,41,92,65,56,12,-5,0.175293,-0.477051,0.858398,-3,7.75,0.75,-0.511054,-0.19617,-1.23851
4367,-15,-16,-66,-23,-37,10,27,24,0.157227,-0.462402,0.86377,-1.0625,4.375,5.25,-0.511096,-0.193045,-1.23769
4367,7,-4,21,-6,9,-3,-36,-19,0.157227,-0.462402,0.86377,-1.0625,4.375,5.25,-0.511096,-0.193045,-1.23769
4383,-32,1,45,-11,-71,-24,-25,-10,0.157227,-0.462402,0.86377,-1.0625,4.375,5.25,-0.511096,-0.193045,-1.23769
4383,-45,2,-15,-24,47,-5,34,7,0.157227,-0.462402,0.86377,-1.0625,4.375,5.25,-0.511096,-0.193045,-1.23769
4385,48,12,-38,-65,-88,-9,-28,0,0.181641,-0.453125,0.863281,-2.25,3.6875,5.625,-0.511445,-0.190841,-1.23674
4385,-27,-9,4,73,67,12,44,10,0.181641,-0.453125,0.863281,-2.25,3.6875,5.625,-0.511445,-0.190841,-1.23674
4405,5,5,2,81,71,48,-3,-5,0.181641,-0.453125,0.863281,-2.25,3.6875,5.625,-0.511445,-0.190841,-1.23674
4405,-20,-12,-54,-40,-91,-26,17,-6,0.181641,-0.453125,0.863281,-2.25,3.6875,5.625,-0.511445,-0.190841,-1.23674
4408,39,9,43,18,127,-3,-9,-1,0.206543,-0.441895,0.861328,-2.1875,3.9375,2.5625,-0.511302,-0.189689,-1.23679
4408,-17,-20,-16,-46,-68,11,6,2,0.206543,-0.441895,0.861328,-2.1875,3.9375,2.5625,-0.511302,-0.189689,-1.23679
4420,14,1,-21,-86,-68,-25,-9,-8,0.206543,-0.441895,0.861328,-2.1875,3.9375,2.5625,-0.511302,-0.189689,-1.23679
4420,17,6,70,19,30,9,13,-8,0.206543,-0.441895,0.861328,-2.1875,3.9375,2.5625,-0.511302,-0.189689,-1.23679
4427,18,0,-50,-20,-40,-54,-9,22,0.212402,-0.464355,0.848145,-1.3125,3.9375,2.0625,-0.511477,-0.188762,-1.23683
4427,-38,-7,32,63,13,13,-10,-14,0.212402,-0.464355,0.848145,-1.3125,3.9375,2.0625,-0.511477,-0.188762,-1.23683
4444,-50,-25,-39,-59,65,45,-14,-7,0.212402,-0.464355,0.848145,-1.3125,3.9375,2.0625,-0.511477,-0.188762,-1.23683
4444,38,18,105,65,37,-31,0,16,0.212402,-0.464355,0.848145,-1.3125,3.9375,2.0625,-0.511477,-0.188762,-1.23683
4451,-32,-11,-55,38,12,48,10,-20,0.197754,-0.486328,0.829102,-2.625,3.25,2.9375,-0.512853,-0.187635,-1.23638
4451,48,-3,28,-21,-14,3,7,11,0.197754,-0.486328,0.829102,-2.625,3.25,2.9375,-0.512853,-0.187635,-1.23638
4466,18,7,32,-46,-88,-55,8,0,0.197754,-0.486328,0.829102,-2.625,3.25,2.9375,-0.512853,-0.187635,-1.23638
4466,4,-6,-72,-120,-57,-12,-31,-9,0.197754,-0.486328,0.829102,-2.625,3.25,2.9375,-0.512853,-0.187635,-1.23638
4467,-22,-22,12,98,47,29,23,12,0.184082,-0.476562,0.831055,-2.125,4.125,0.9375,-0.513646,-0.186359,-1.23688
4467,16,6,-17,-36,-9,-18,-38,-2,0.184082,-0.476562,0.831055,-2.125,4.125,0.9375,-0.513646,-0.186359,-1.23688
4488,23,-2,50,-33,5,25,22,11,0.184082,-0.476562,0.831055,-2.125,4.125,0.9375,-0.513646,-0.186359,-1.23688
4488,-2,2,-1,95,44,12,12,5,0.184082,-0.476562,0.831055,-2.125,4.125,0.9375,-0.513646,-0.186359,-1.23688
4489,-54,7,20,-16,58,-8,-9,-9,0.170898,-0.47168,0.846191,-1.3125,4.3125,1.5625,-0.513891,-0.184466,-1.23713
4489,31,-16,-26,-128,-95,-16,-14,-2,0.170898,-0.47168,0.846191,-1.3125,4.3125,1.5625,-0.513891,-0.184466,-1.23713
4503,-12,4,33,127,24,-47,-13,-1,0.170898,-0.47168,0.846191,-1.3125,4.3125,1.5625,-0.513891,-0.184466,-1.23713
4503,18,7,9,89,81,74,38,7,0.170898,-0.47168,0.846191,-1.3125,4.3125,1.5625,-0.513891,-0.184466,-1.23713
4504,5,2,-12,-24,-114,-41,2,3,0.165039,-0.465332,0.839355,-2.0625,3.1875,2.875,-0.514484,-0.182683,-1.23692
4504,-36,-2,77,32,125,51,4,-17,0.165039,-0.465332,0.839355,-2.0625,3.1875,2.875,-0.514484,-0.182683,-1.23692
4526,20,7,12,20,85,14,10,9,0.165039,-0.465332,0.839355,-2.0625,3.1875,2.875,-0.514484,-0.182683,-1.23692
4526,29,8,-11,-56,-114,-30,2,18,0.165039,-0.465332,0.839355,-2.0625,3.1875,2.875,-0.514484,-0.182683,-1.23692
4527,-36,5,36,-11,-2,-61,-6,-14,0.169434,-0.469727,0.818848,-3,4.125,0.5,-0.51551,-0.181298,-1.23746
4527,10,34,-22,-28,40,29,-12,13,0.169434,-0.469727,0.818848,-3,4.125,0.5,-0.51551,-0.181298,-1.23746
4540,-1,10,48,125,48,22,-10,-26,0.169434,-0.469727,0.818848,-3,4.125,0.5,-0.51551,-0.181298,-1.23746
4540,-86,-28,-32,-36,5,14,-3,-3,0.169434,-0.469727,0.818848,-3,4.125,0.5,-0.51551,-0.181298,-1.23746
4555,44,10,38,-11,-2,17,-9,0,0.171387,-0.466309,0.834473,-3.125,4.8125,-0.4375,-0.516278,-0.179885,-1.23845
4555,6,-7,-31,-102,-128,-54,-13,10,0.171387,-0.466309,0.834473,-3.125,4.8125,-0.4375,-0.516278,-0.179885,-1.23845
4563,22,20,32,-8,36,-23,4,2,0.171387,-0.466309,0.834473,-3.125,4.8125,-0.4375,-0.516278,-0.179885,-1.23845
4563,2,-11,-52,13,70,17,3,-16,0.171387,-0.466309,0.834473,-3.125,4.8125,-0.4375,-0.516278,-0.179885,-1.23845
4564,-43,-15,78,63,27,48,17,11,0.139648,-0.470703,0.841797,-3.625,4.25,1.5625,-0.517338,-0.177517,-1.23873
4564,3,-8,-88,-34,-56,-51,-17,-9,0.139648,-0.470703,0.841797,-3.625,4.25,1.5625,-0.517338,-0.177517,-1.23873
4586,3,-4,-23,-77,-65,72,-2,5,0.139648,-0.470703,0.841797,-3.625,4.25,1.5625,-0.517338,-0.177517,-1.23873
4586,-10,-8,-6,-58,-128,-64,-13,-17,0.139648,-0.470703,0.841797,-3.625,4.25,1.5625,-0.517338,-0.177517,-1.23873
4594,37,7,5,78,127,6,7,7,0.147949,-0.465332,0.838867,-3,4.6875,1.25,-0.518016,-0.175271,-1.23926
4594,-8,11,63,121,85,33,33,3,0.147949,-0.465332,0.838867,-3,4.6875,1.25,-0.518016,-0.175271,-1.23926
4600,28,-9,6,-51,-48,-19,-11,0,0.147949,-0.465332,0.838867,-3,4.6875,1.25,-0.518016,-0.175271,-1.23926
4600,-36,-10,2,-28,-52,2,-12,-7,0.147949,-0.465332,0.838867,-3,4.6875,1.25,-0.518016,-0.175271,-1.23926
4609,-35,-24,-25,-24,-54,-9,-18,-19,0.154297,-0.463379,0.837891,-3.1875,5.75,-1.1875,-0.518466,-0.173458,-1.24061
4609,4,7,-14,-6,4,-15,-4,2,0.154297,-0.463379,0.837891,-3.1875,5.75,-1.1875,-0.518466,-0.173458,-1.24061
4631,24,6,-9,-65,-76,-38,12,10,0.154297,-0.463379,0.837891,-3.1875,5.75,-1.1875,-0.518466,-0.173458,-1.24061
4631,-66,-6,-14,10,36,25,-9,-13,0.154297,-0.463379,0.837891,-3.1875,5.75,-1.1875,-0.518466,-0.173458,-1.24061
4633,12,11,-21,78,71,-6,-12,2,0.148438,-0.454102,0.854004,-2.3125,5.5,-1.1875,-0.518268,-0.17149,-1.24211
4633,26,-7,25,-79,-110,-31,-3,-1,0.148438,-0.454102,0.854004,-2.3125,5.5,-1.1875,-0.518268,-0.17149,-1.24211
4662,-8,-6,-22,75,127,46,23,12,0.148438,-0.454102,0.854004,-2.3125,5.5,-1.1875,-0.518268,-0.17149,-1.24211
4662,-47,-3,47,107,93,38,-15,-15,0.148438,-0.454102,0.854004,-2.3125,5.5,-1.1875,-0.518268,-0.17149,-1.24211
4663,-3,-1,7,-90,-124,-44,5,5,0.147949,-0.470703,0.851074,-3.125,3.8125,1.0625,-0.518958,-0.169645,-1.2424
4663,13,0,-70,-73,43,41,9,3,0.147949,-0.470703,0.851074,-3.125,3.8125,1.0625,-0.518958,-0.169645,-1.2424
4664,-11,-13,-21,-4,20,-14,6,-3,0.147949,-0.470703,0.851074,-3.125,3.8125,1.0625,-0.518958,-0.169645,-1.2424
4664,44,18,35,70,-70,-39,-1,11,0.147949,-0.470703,0.851074,-3.125,3.8125,1.0625,-0.518958,-0.169645,-1.2424
4668,20,1,-17,-93,11,10,-15,1,0.167969,-0.453125,0.844727,-2.0625,3.8125,-0.6875,-0.518927,-0.168712,-1.24338
4668,48,30,13,96,-5,11,-20,7,0.167969,-0.453125,0.844727,-2.0625,3.8125,-0.6875,-0.518927,-0.168712,-1.24338
4683,-95,-13,12,-120,-70,-20,27,-18,0.167969,-0.453125,0.844727,-2.0625,3.8125,-0.6875,-0.518927,-0.168712,-1.24338
4683,13,0,-77,25,71,12,-2,-2,0.167969,-0.453125,0.844727,-2.0625,3.8125,-0.6875,-0.518927,-0.168712,-1.24338
4686,32,16,20,19,43,5,-24,7,0.150391,-0.463379,0.846191,-1.375,2.625,-1,-0.518853,-0.167865,-1.24436
4686,-10,-6,13,-2,-14,22,36,5,0.150391,-0.463379,0.846191,-1.375,2.625,-1,-0.518853,-0.167865,-1.24436
4705,28,-12,15,-20,-43,-13,-20,11,0.150391,-0.463379,0.846191,-1.375,2.625,-1,-0.518853,-0.167865,-1.24436
4705,-17,21,38,12,-3,-21,-12,-3,0.150391,-0.463379,0.846191,-1.375,2.625,-1,-0.518853,-0.167865,-1.24436
4712,4,16,22,50,1,20,-2,3,0.146973,-0.437012,0.853027,-1.5625,0.625,-2.125,-0.51814,-0.167655,-1.24527
4712,-25,11,10,58,91,7,18,-9,0.146973,-0.437012,0.853027,-1.5625,0.625,-2.125,-0.51814,-0.167655,-1.24527
4719,20,12,-29,85,68,19,-19,6,0.146973,-0.437012,0.853027,-1.5625,0.625,-2.125,-0.51814,-0.167655,-1.24527
4719,38,-1,-32,-128,-95,-63,-21,7,0.146973,-0.437012,0.853027,-1.5625,0.625,-2.125,-0.51814,-0.167655,-1.24527
4728,-9,-15,-59,-99,14,50,14,-16,0.171387,-0.47998,0.862305,-0.9375,1,-1.4375,-0.518052,-0.167645,-1.24589
4728,-42,-15,75,77,60,2,-3,-29,0.171387,-0.47998,0.862305,-0.9375,1,-1.4375,-0.518052,-0.167645,-1.24589
4751,-14,4,43,105,8,-24,-13,9,0.13623,-0.466797,0.869629,-0.9375,1.6875,-0.5625,-0.517666,-0.166467,-1.24641
4751,6,-24,-81,-74,25,20,20,7,0.13623,-0.466797,0.869629,-0.9375,1.6875,-0.5625,-0.517666,-0.166467,-1.24641
4752,26,4,36,-64,-110,-36,-18,9,0.13623,-0.466797,0.869629,-0.9375,1.6875,-0.5625,-0.517666,-0.166467,-1.24641
4752,-67,-15,-32,19,-18,-31,-21,-14,0.13623,-0.466797,0.869629,-0.9375,1.6875,-0.5625,-0.517666,-0.166467,-1.24641
4765,15,0,47,-26,32,5,24,-1,0.118652,-0.478027,0.869629,-0.3125,1.8125,1.25,-0.517417,-0.164597,-1.24646
4765,46,2,-18,86,124,21,-8,8,0.118652,-0.478027,0.869629,-0.3125,1.8125,1.25,-0.517417,-0.164597,-1.24646
4766,-27,-10,33,38,-22,45,15,-14,0.118652,-0.478027,0.869629,-0.3125,1.8125,1.25,-0.517417,-0.164597,-1.24646
4766,30,-12,-34,-106,-54,-66,-18,13,0.118652,-0.478027,0.869629,-0.3125,1.8125,1.25,-0.517417,-0.164597,-1.24646
4788,-8,-2,-28,5,-9,12,-28,-21,0.137695,-0.473633,0.854004,0.0625,2.4375,1.125,-0.517119,-0.163032,-1.2466
4788,-82,-27,58,8,12,7,8,-10,0.137695,-0.473633,0.854004,0.0625,2.4375,1.125,-0.517119,-0.163032,-1.2466
4789,52,9,-8,-56,-29,-39,3,6,0.137695,-0.473633,0.854004,0.0625,2.4375,1.125,-0.517119,-0.163032,-1.2466
4789,0,-7,-59,75,24,-26,-43,10,0.137695,-0.473633,0.854004,0.0625,2.4375,1.125,-0.517119,-0.163032,-1.2466
4803,-41,6,-2,24,58,75,58,-1,0.132324,-0.474609,0.857422,-0.5,5.1875,1.1875,-0.516982,-0.160658,-1.24725
4803,63,4,6,-98,-82,-20,-11,8,0.132324,-0.474609,0.857422,-0.5,5.1875,1.1875,-0.516982,-0.160658,-1.24725
4804,-21,-11,-26,91,103,-18,-14,-19,0.132324,-0.474609,0.857422,-0.5,5.1875,1.1875,-0.516982,-0.160658,-1.24725
4804,7,16,55,20,-19,-4,-12,18,0.132324,-0.474609,0.857422,-0.5,5.1875,1.1875,-0.516982,-0.160658,-1.24725
4834,49,11,19,1,63,30,4,-1,0.110352,-0.489258,0.866211,0.0625,5,3.8125,-0.516932,-0.15729,-1.24683
4834,-53,-26,-55,-33,-53,0,5,5,0.110352,-0.489258,0.866211,0.0625,5,3.8125,-0.516932,-0.15729,-1.24683
4834,29,9,43,-57,9,-49,-21,-7,0.110352,-0.489258,0.866211,0.0625,5,3.8125,-0.516932,-0.15729,-1.24683
4834,-27,5,35,25,-8,-3,31,-3,0.110352,-0.489258,0.866211,0.0625,5,3.8125,-0.516932,-0.15729,-1.24683
4856,14,-4,-27,-60,-67,16,4,-9,0.118164,-0.477051,0.858398,0.0625,4,5.8125,-0.516785,-0.154241,-1.24589
4856,20,6,0,-30,-14,23,22,-2,0.118164,-0.477051,0.858398,0.0625,4,5.8125,-0.516785,-0.154241,-1.24589
4857,-40,-6,17,88,43,6,-5,1,0.118164,-0.477051,0.858398,0.0625,4,5.8125,-0.516785,-0.154241,-1.24589
4857,-6,-6,-16,9,85,11,-4,3,0.118164,-0.477051,0.858398,0.0625,4,5.8125,-0.516785,-0.154241,-1.24589
4862,3,1,4,-71,-81,-28,-25,-22,0.130859,-0.449219,0.833984,0.1875,5.125,3.75,-0.516155,-0.151741,-1.24571
4862,32,16,73,34,113,-2,-22,-2,0.130859,-0.449219,0.833984,0.1875,5.125,3.75,-0.516155,-0.151741,-1.24571
4863,-26,-34,-82,-87,-43,11,9,-6,0.130859,-0.449219,0.833984,0.1875,5.125,3.75,-0.516155,-0.151741,-1.24571
4863,-20,11,14,75,51,23,9,14,0.130859,-0.449219,0.833984,0.1875,5.125,3.75,-0.516155,-0.151741,-1.24571
4885,12,6,21,44,-19,-37,-14,-10,0.145996,-0.456055,0.841797,1.0625,6,0.9375,-0.515242,-0.149799,-1.24648
4885,3,-8,-24,-26,-74,-10,1,-15,0.145996,-0.456055,0.841797,1.0625,6,0.9375,-0.515242,-0.149799,-1.24648
4886,4,7,-28,-40,2,-12,-17,4,0.145996,-0.456055,0.841797,1.0625,6,0.9375,-0.515242,-0.149799,-1.24648
4886,-4,-11,20,10,53,12,2,-3,0.145996,-0.456055,0.841797,1.0625,6,0.9375,-0.515242,-0.149799,-1.24648
4908,21,-2,-65,-89,-76,4,-3,7,0.134766,-0.464355,0.858887,0.625,5.0625,2.5,-0.514546,-0.147498,-1.24675
4908,-10,8,110,100,-11,-12,12,-3,0.134766,-0.464355,0.858887,0.625,5.0625,2.5,-0.514546,-0.147498,-1.24675
4909,4,-7,-33,54,70,-69,2,4,0.134766,-0.464355,0.858887,0.625,5.0625,2.5,-0.514546,-0.147498,-1.24675
4909,32,-9,-31,-116,-111,97,38,3,0.134766,-0.464355,0.858887,0.625,5.0625,2.5,-0.514546,-0.147498,-1.24675
4924,-27,-4,-5,51,66,-22,-11,-1,0.137695,-0.481934,0.859863,0.25,4.0625,4.1875,-0.514384,-0.145361,-1.24606
4924,0,15,51,73,103,30,6,-9,0.137695,-0.481934,0.859863,0.25,4.0625,4.1875,-0.514384,-0.145361,-1.24606
4925,43,9,-31,33,19,4,17,26,0.137695,-0.481934,0.859863,0.25,4.0625,4.1875,-0.514384,-0.145361,-1.24606
4925,-52,0,63,-55,-112,-47,-18,-15,0.137695,-0.481934,0.859863,0.25,4.0625,4.1875,-0.514384,-0.145361,-1.24606
4945,-8,-5,-72,3,-4,-36,-16,-2,0.131836,-0.452148,0.83252,2.1875,4.9375,2.5,-0.513285,-0.143371,-1.2462
4945,-19,-13,-63,-128,-103,-3,-7,-15,0.131836,-0.452148,0.83252,2.1875,4.9375,2.5,-0.513285,-0.143371,-1.2462
4946,21,-4,-21,39,7,17,24,-3,0.131836,-0.452148,0.83252,2.1875,4.9375,2.5,-0.513285,-0.143371,-1.2462
4946,-4,3,-46,-14,-47,-18,-32,4,0.131836,-0.452148,0.83252,2.1875,4.9375,2.5,-0.513285,-0.143371,-1.2462
4984,-15,-12,59,25,39,28,12,4,0.122559,-0.463379,0.845215,1.9375,3.5625,2.5,-0.512318,-0.141412,-1.2462
4984,2,-3,-66,80,119,19,31,17,0.122559,-0.463379,0.845215,1.9375,3.5625,2.5,-0.512318,-0.141412,-1.2462
4985,-9,2,62,-73,-101,-28,-15,-5,0.122559,-0.463379,0.845215,1.9375,3.5625,2.5,-0.512318,-0.141412,-1.2462
4985,18,-5,-30,-18,35,17,-15,-11,0.122559,-0.463379,0.845215,1.9375,3.5625,2.5,-0.512318,-0.141412,-1.2462
4987,4,3,-48,47,42,4,9,10,0.150391,-0.469727,0.845215,0,2.5625,2.9375,-0.512299,-0.140484,-1.24577
4987,9,-5,-9,-1,-22,-13,29,14,0.150391,-0.469727,0.845215,0,2.5625,2.9375,-0.512299,-0.140484,-1.24577
4990,-14,-6,29,-9,-36,-16,-51,-40,0.150391,-0.469727,0.845215,0,2.5625,2.9375,-0.512299,-0.140484,-1.24577
4990,-16,2,-48,-116,-83,-38,-4,-3,0.150391,-0.469727,0.845215,0,2.5625,2.9375,-0.512299,-0.140484,-1.24577
5005,23,13,34,-2,11,19,-15,-9,0.13623,-0.472168,0.83252,-0.3125,2.375,2.25,-0.512486,-0.139459,-1.24536
5005,-14,-7,23,127,109,25,9,1,0.13623,-0.472168,0.83252,-0.3125,2.375,2.25,-0.512486,-0.139459,-1.24536
5006,25,9,59,-42,2,21,31,17,0.13623,-0.472168,0.83252,-0.3125,2.375,2.25,-0.512486,-0.139459,-1.24536
5006,-22,-15,-35,-90,-62,-35,-13,1,0.13623,-0.472168,0.83252,-0.3125,2.375,2.25,-0.512486,-0.139459,-1.24536
5027,23,11,0,-82,20,-34,9,12,0.130859,-0.455566,0.848633,-0.0625,3.375,0.875,-0.511935,-0.138088,-1.24576
5027,-32,-15,22,15,2,19,-36,-21,0.130859,-0.455566,0.848633,-0.0625,3.375,0.875,-0.511935,-0.138088,-1.24576
5028,-14,16,11,92,-2,23,8,9,0.130859,-0.455566,0.848633,-0.0625,3.375,0.875,-0.511935,-0.138088,-1.24576
5028,18,-6,-4,3,11,-6,6,0,0.130859,-0.455566,0.848633,-0.0625,3.375,0.875,-0.511935,-0.138088,-1.24576
5043,-12,-10,46,-29,10,2,4,2,0.117188,-0.458984,0.866211,-0.25,1.75,2.4375,-0.511564,-0.136769,-1.24537
5043,51,12,-5,-32,-31,2,-14,10,0.117188,-0.458984,0.866211,-0.25,1.75,2.4375,-0.511564,-0.136769,-1.24537
5043,-46,-6,-53,-35,-23,-11,-9,-6,0.117188,-0.458984,0.866211,-0.25,1.75,2.4375,-0.511564,-0.136769,-1.24537
5043,-9,9,17,94,69,-6,9,-3,0.117188,-0.458984,0.866211,-0.25,1.75,2.4375,-0.511564,-0.136769,-1.24537
5065,-28,-7,-12,-12,-40,9,28,6,0.141602,-0.473145,0.84082,-0.3125,1,4.3125,-0.511699,-0.135906,-1.24414
5065,9,12,-16,-63,-37,-54,-18,6,0.141602,-0.473145,0.84082,-0.3125,1,4.3125,-0.511699,-0.135906,-1.24414
5066,-14,-2,44,37,107,88,7,-2,0.141602,-0.473145,0.84082,-0.3125,1,4.3125,-0.511699,-0.135906,-1.24414
5066,29,-9,-29,-61,-70,20,77,10,0.141602,-0.473145,0.84082,-0.3125,1,4.3125,-0.511699,-0.135906,-1.24414
5088,-9,8,38,127,94,-28,-47,-19,0.144043,-0.456543,0.837402,-1.3125,2.25,2,-0.511985,-0.135275,-1.244
5088,-8,-6,18,-116,3,16,6,4,0.144043,-0.456543,0.837402,-1.3125,2.25,2,-0.511985,-0.135275,-1.244
5088,-39,-22,79,-35,-27,-34,-15,-5,0.144043,-0.456543,0.837402,-1.3125,2.25,2,-0.511985,-0.135275,-1.244
5088,-6,-2,2,-23,-37,-20,-4,-3,0.144043,-0.456543,0.837402,-1.3125,2.25,2,-0.511985,-0.135275,-1.244
5102,45,-15,-45,6,-26,-7,-9,2,0.117188,-0.461426,0.831055,-1.0625,1.875,-0.1875,-0.512144,-0.134436,-1.24436
5102,-54,2,38,23,-65,0,45,-9,0.117188,-0.461426,0.831055,-1.0625,1.875,-0.1875,-0.512144,-0.134436,-1.24436
5103,37,-1,-51,-69,8,-8,-50,-21,0.117188,-0.461426,0.831055,-1.0625,1.875,-0.1875,-0.512144,-0.134436,-1.24436
5103,10,0,-24,110,66,21,-7,4,0.117188,-0.461426,0.831055,-1.0625,1.875,-0.1875,-0.512144,-0.134436,-1.24436
5125,11,-1,47,25,60,-33,11,2,0.119629,-0.479492,0.827637,-0.875,-0.0625,1,-0.512731,-0.133999,-1.24405
5125,27,7,-65,-10,-24,41,5,5,0.119629,-0.479492,0.827637,-0.875,-0.0625,1,-0.512731,-0.133999,-1.24405
5126,-6,1,21,-48,-121,-61,19,0,0.119629,-0.479492,0.827637,-0.875,-0.0625,1,-0.512731,-0.133999,-1.24405
5126,35,11,59,46,20,39,-17,-29,0.119629,-0.479492,0.827637,-0.875,-0.0625,1,-0.512731,-0.133999,-1.24405
5147,-58,-6,-18,31,7,-1,-6,6,0.124023,-0.470215,0.821777,-2.4375,0,1.3125,-0.513719,-0.13365,-1.24362
5147,15,-3,-20,-22,-56,-38,19,9,0.124023,-0.470215,0.821777,-2.4375,0,1.3125,-0.513719,-0.13365,-1.24362
5149,15,6,-1,-50,98,19,30,-9,0.124023,-0.470215,0.821777,-2.4375,0,1.3125,-0.513719,-0.13365,-1.24362
5149,-40,-8,-24,34,70,3,-28,-5,0.124023,-0.470215,0.821777,-2.4375,0,1.3125,-0.513719,-0.13365,-1.24362
5163,-13,-24,38,-6,-51,-9,-13,-3,0.106445,-0.476562,0.810547,-4.5,1.875,-1.3125,-0.515583,-0.132917,-1.24433
5163,21,15,24,13,-28,-8,-6,2,0.106445,-0.476562,0.810547,-4.5,1.875,-1.3125,-0.515583,-0.132917,-1.24433
5163,49,14,16,-22,-75,-5,11,18,0.106445,-0.476562,0.810547,-4.5,1.875,-1.3125,-0.515583,-0.132917,-1.24433
5163,-34,-19,-79,-92,-72,-50,-31,-26,0.106445,-0.476562,0.810547,-4.5,1.875,-1.3125,-0.515583,-0.132917,-1.24433
5185,0,-3,-26,37,75,48,25,-1,0.0800781,-0.481445,0.816406,-4.5625,2.5625,-0.5625,-0.517459,-0.131069,-1.24498
5185,16,7,37,10,56,0,-29,-7,0.0800781,-0.481445,0.816406,-4.5625,2.5625,-0.5625,-0.517459,-0.131069,-1.24498
5185,5,12,-21,127,70,-2,-18,-2,0.0800781,-0.481445,0.816406,-4.5625,2.5625,-0.5625,-0.517459,-0.131069,-1.24498
5185,22,15,-12,14,-28,35,42,23,0.0800781,-0.481445,0.816406,-4.5625,2.5625,-0.5625,-0.517459,-0.131069,-1.24498
5207,-4,-16,-88,-128,-18,-43,-3,-7,0.121582,-0.491699,0.828613,-6.9375,2.375,0.5625,-0.520158,-0.13015,-1.24504
5207,-40,-7,-36,24,48,14,-8,-4,0.121582,-0.491699,0.828613,-6.9375,2.375,0.5625,-0.520158,-0.13015,-1.24504
5209,23,10,16,-17,-69,16,2,-3,0.121582,-0.491699,0.828613,-6.9375,2.375,0.5625,-0.520158,-0.13015,-1.24504
5209,6,-17,34,70,126,22,2,2,0.121582,-0.491699,0.828613,-6.9375,2.375,0.5625,-0.520158,-0.13015,-1.24504
5223,16,6,17,-9,-35,75,27,8,0.131348,-0.479004,0.866211,-6.4375,1.8125,0.9375,-0.521916,-0.129456,-1.2451
5223,-5,-4,-7,-66,-46,-47,-9,12,0.131348,-0.479004,0.866211,-6.4375,1.8125,0.9375,-0.521916,-0.129456,-1.2451
5223,-52,-13,-45,-84,34,-43,-33,-7,0.131348,-0.479004,0.866211,-6.4375,1.8125,0.9375,-0.521916,-0.129456,-1.2451
5223,-43,-7,10,43,5,18,11,2,0.131348,-0.479004,0.866211,-6.4375,1.8125,0.9375,-0.521916,-0.129456,-1.2451
5245,66,26,76,-19,9,-42,-31,2,0.122559,-0.437012,0.903809,-5.3125,2.9375,-1,-0.521901,-0.12857,-1.24624
5245,-64,-13,-36,116,81,31,13,-6,0.122559,-0.437012,0.903809,-5.3125,2.9375,-1,-0.521901,-0.12857,-1.24624
5246,-8,-6,37,16,-57,-16,5,2,0.122559,-0.437012,0.903809,-5.3125,2.9375,-1,-0.521901,-0.12857,-1.24624
5246,20,18,34,-104,-55,-63,23,11,0.122559,-0.437012,0.903809,-5.3125,2.9375,-1,-0.521901,-0.12857,-1.24624
5274,-24,-20,-87,70,85,51,2,-1,0.114746,-0.441406,0.87793,-4.5625,3.375,-1.6875,-0.521962,-0.127589,-1.24741
5274,-1,1,102,76,18,25,-17,-6,0.114746,-0.441406,0.87793,-4.5625,3.375,-1.6875,-0.521962,-0.127589,-1.24741
5283,5,-10,-128,-81,-46,-6,5,12,0.114746,-0.441406,0.87793,-4.5625,3.375,-1.6875,-0.521962,-0.127589,-1.24741
5283,21,15,61,-53,-29,-8,-17,-17,0.114746,-0.441406,0.87793,-4.5625,3.375,-1.6875,-0.521962,-0.127589,-1.24741
5285,-1,0,-31,-24,-128,-56,-4,4,0.136719,-0.476074,0.901855,-4,1.5625,1.4375,-0.522507,-0.127059,-1.24745
5285,17,6,-11,-89,-39,-36,-40,0,0.136719,-0.476074,0.901855,-4,1.5625,1.4375,-0.522507,-0.127059,-1.24745
5286,12,-8,-3,95,114,126,59,10,0.136719,-0.476074,0.901855,-4,1.5625,1.4375,-0.522507,-0.127059,-1.24745
5286,1,-2,45,62,95,38,18,5,0.136719,-0.476074,0.901855,-4,1.5625,1.4375,-0.522507,-0.127059,-1.24745
5306,27,10,-37,-112,-89,-38,-17,17,0.125488,-0.487793,0.902344,0.125,-0.8125,6.5,-0.521995,-0.126063,-1.24539
5306,-39,-10,36,66,14,-7,-10,-29,0.125488,-0.487793,0.902344,0.125,-0.8125,6.5,-0.521995,-0.126063,-1.24539
5306,12,6,15,-10,-1,-10,4,12,0.125488,-0.487793,0.902344,0.125,-0.8125,6.5,-0.521995,-0.126063,-1.24539
5306,7,4,-78,-88,-119,-56,-9,6,0.125488,-0.487793,0.902344,0.125,-0.8125,6.5,-0.521995,-0.126063,-1.24539
5328,-2,8,10,-56,127,15,-9,-2,0.11377,-0.450195,0.875977,2.5,0.25,4,-0.520085,-0.124977,-1.24427
5328,20,9,55,71,95,52,17,11,0.11377,-0.450195,0.875977,2.5,0.25,4,-0.520085,-0.124977,-1.24427
5329,13,14,-7,8,-27,-2,-16,-11,0.11377,-0.450195,0.875977,2.5,0.25,4,-0.520085,-0.124977,-1.24427
5329,-5,-10,-21,-24,-16,12,2,-3,0.11377,-0.450195,0.875977,2.5,0.25,4,-0.520085,-0.124977,-1.24427
5351,-19,-13,-20,51,-110,-24,-14,-12,0.118652,-0.444824,0.836426,1.4375,-0.375,1.5625,-0.519038,-0.124837,-1.24386
5351,8,-2,-1,-3,-27,16,16,-1,0.118652,-0.444824,0.836426,1.4375,-0.375,1.5625,-0.519038,-0.124837,-1.24386
5352,-30,-17,30,65,23,0,2,-2,0.118652,-0.444824,0.836426,1.4375,-0.375,1.5625,-0.519038,-0.124837,-1.24386
5352,30,-1,-31,-68,-39,-29,-11,6,0.118652,-0.444824,0.836426,1.4375,-0.375,1.5625,-0.519038,-0.124837,-1.24386
5365,4,3,-21,17,4,-42,-34,1,0.151367,-0.48877,0.841309,1.5,-1.875,1.9375,-0.518774,-0.125738,-1.24301
5365,16,11,-14,-26,-5,69,49,2,0.151367,-0.48877,0.841309,1.5,-1.875,1.9375,-0.518774,-0.125738,-1.24301
5365,12,-9,9,-7,-10,-40,-9,7,0.151367,-0.48877,0.841309,1.5,-1.875,1.9375,-0.518774,-0.125738,-1.24301
5365,2,1,21,-11,-13,2,-19,-1,0.151367,-0.48877,0.841309,1.5,-1.875,1.9375,-0.518774,-0.125738,-1.24301
5387,-2,12,69,-10,-29,-2,10,-3,0.0947266,-0.487793,0.835449,1.875,-2.375,2.875,-0.518449,-0.125266,-1.24164
5387,-8,-4,-58,5,59,2,-13,-7,0.0947266,-0.487793,0.835449,1.875,-2.375,2.875,-0.518449,-0.125266,-1.24164
5388,-56,-9,35,76,-30,6,-8,-18,0.0947266,-0.487793,0.835449,1.875,-2.375,2.875,-0.518449,-0.125266,-1.24164
5388,28,-19,-2,-94,71,-18,-8,13,0.0947266,-0.487793,0.835449,1.875,-2.375,2.875,-0.518449,-0.125266,-1.24164
5403,-9,4,71,80,-19,26,18,-15,0.0908203,-0.440918,0.814453,0,-0.125,-0.125,-0.518436,-0.125088,-1.2417
5403,-5,-1,-32,-15,-1,-26,7,7,0.0908203,-0.440918,0.814453,0,-0.125,-0.125,-0.518436,-0.125088,-1.2417
5404,-4,-3,-9,-44,-22,7,13,-4,0.0908203,-0.440918,0.814453,0,-0.125,-0.125,-0.518436,-0.125088,-1.2417
5404,-5,6,2,90,2,1,-10,-8,0.0908203,-0.440918,0.814453,0,-0.125,-0.125,-0.518436,-0.125088,-1.2417
5425,25,6,-22,-23,78,32,30,17,0.0942383,-0.452148,0.825195,-1.8125,-1.3125,-1.125,-0.518581,-0.125117,-1.24185
5425,8,7,61,-28,-40,-13,-18,1,0.0942383,-0.452148,0.825195,-1.8125,-1.3125,-1.125,-0.518581,-0.125117,-1.24185
5425,-44,-20,-61,-19,-1,-19,-11,-9,0.0942383,-0.452148,0.825195,-1.8125,-1.3125,-1.125,-0.518581,-0.125117,-1.24185
5425,14,13,70,24,9,-37,-8,-7,0.0942383,-0.452148,0.825195,-1.8125,-1.3125,-1.125,-0.518581,-0.125117,-1.24185
5448,-6,-8,-18,32,-9,44,35,5,0.115723,-0.493652,0.845703,-0.0625,-2.9375,2.4375,-0.518968,-0.125456,-1.24057
5448,2,-9,-17,-81,-74,8,12,-11,0.115723,-0.493652,0.845703,-0.0625,-2.9375,2.4375,-0.518968,-0.125456,-1.24057
5448,26,8,16,37,124,-6,-12,0,0.115723,-0.493652,0.845703,-0.0625,-2.9375,2.4375,-0.518968,-0.125456,-1.24057
5448,1,6,3,-96,-79,7,14,8,0.115723,-0.493652,0.845703,-0.0625,-2.9375,2.4375,-0.518968,-0.125456,-1.24057
5462,-15,6,61,91,55,-1,-29,-6,0.0996094,-0.470215,0.831543,-0.1875,-1.4375,2.0625,-0.519058,-0.124923,-1.2396
5462,-14,-4,-78,-73,-17,-37,-13,13,0.0996094,-0.470215,0.831543,-0.1875,-1.4375,2.0625,-0.519058,-0.124923,-1.2396
5463,43,26,19,-103,-87,12,-2,-4,0.0996094,-0.470215,0.831543,-0.1875,-1.4375,2.0625,-0.519058,-0.124923,-1.2396
5463,-49,-23,-39,15,127,26,8,-18,0.0996094,-0.470215,0.831543,-0.1875,-1.4375,2.0625,-0.519058,-0.124923,-1.2396
5485,-6,5,-37,-31,-45,-11,0,4,0.129395,-0.453125,0.829102,-1.75,-0.6875,-1.875,-0.519051,-0.125716,-1.24021
5485,4,10,118,55,-61,-28,2,1,0.129395,-0.453125,0.829102,-1.75,-0.6875,-1.875,-0.519051,-0.125716,-1.24021
5486,-8,5,-37,87,127,21,2,5,0.129395,-0.453125,0.829102,-1.75,-0.6875,-1.875,-0.519051,-0.125716,-1.24021
5486,13,-6,36,59,-47,9,13,1,0.129395,-0.453125,0.829102,-1.75,-0.6875,-1.875,-0.519051,-0.125716,-1.24021
5508,-8,6,-5,-99,-101,-42,-20,-12,0.138184,-0.489746,0.849121,-3,-1.5625,-1.0625,-0.520236,-0.126737,-1.2403
5508,27,-11,-104,-28,115,-13,-36,-3,0.138184,-0.489746,0.849121,-3,-1.5625,-1.0625,-0.520236,-0.126737,-1.2403
5509,-3,-18,-30,-28,-88,25,15,2,0.138184,-0.489746,0.849121,-3,-1.5625,-1.0625,-0.520236,-0.126737,-1.2403
5509,2,14,5,1,-41,7,8,4,0.138184,-0.489746,0.849121,-3,-1.5625,-1.0625,-0.520236,-0.126737,-1.2403
5522,-36,-30,9,21,67,10,-21,-10,0.128906,-0.479492,0.853027,-1.875,-2.9375,1.3125,-0.520731,-0.127438,-1.23941
5522,31,9,13,14,5,-53,-40,-3,0.128906,-0.479492,0.853027,-1.875,-2.9375,1.3125,-0.520731,-0.127438,-1.23941
5530,0,5,45,68,60,56,33,14,0.128906,-0.479492,0.853027,-1.875,-2.9375,1.3125,-0.520731,-0.127438,-1.23941
5530,12,0,-76,-35,-24,-13,-20,0,0.128906,-0.479492,0.853027,-1.875,-2.9375,1.3125,-0.520731,-0.127438,-1.23941
5545,2,5,2,76,34,-18,-8,-10,0.119629,-0.469238,0.85498,-2.75,-0.625,-0.5625,-0.521276,-0.127554,-1.23945
5545,-14,-8,53,-44,-83,-14,14,-1,0.119629,-0.469238,0.85498,-2.75,-0.625,-0.5625,-0.521276,-0.127554,-1.23945
5545,-1,7,19,-10,9,0,-23,-4,0.119629,-0.469238,0.85498,-2.75,-0.625,-0.5625,-0.521276,-0.127554,-1.23945
5545,-24,-12,-63,-45,24,10,11,3,0.119629,-0.469238,0.85498,-2.75,-0.625,-0.5625,-0.521276,-0.127554,-1.23945
5568,18,6,38,15,-73,4,13,-3,0.134766,-0.47998,0.866699,-2.125,-0.625,-1.125,-0.521523,-0.128124,-1.23966
5568,23,-8,-73,-12,49,1,-20,-7,0.134766,-0.47998,0.866699,-2.125,-0.625,-1.125,-0.521523,-0.128124,-1.23966
5568,3,7,88,34,58,8,14,18,0.134766,-0.47998,0.866699,-2.125,-0.625,-1.125,-0.521523,-0.128124,-1.23966
5568,14,-4,-18,42,-53,12,-1,-17,0.134766,-0.47998,0.866699,-2.125,-0.625,-1.125,-0.521523,-0.128124,-1.23966
5582,-30,-16,32,-120,5,-2,16,0,0.14502,-0.492676,0.876465,-0.6875,-2.0625,2.4375,-0.52165,-0.128654,-1.23862
5582,14,3,-15,119,58,42,24,10,0.14502,-0.492676,0.876465,-0.6875,-2.0625,2.4375,-0.52165,-0.128654,-1.23862
5590,-36,-18,-38,-54,-58,-72,-23,-10,0.14502,-0.492676,0.876465,-0.6875,-2.0625,2.4375,-0.52165,-0.128654,-1.23862
5590,13,4,36,-49,-51,-30,-34,-2,0.14502,-0.492676,0.876465,-0.6875,-2.0625,2.4375,-0.52165,-0.128654,-1.23862
5606,1,10,0,85,66,20,4,6,0.137207,-0.493652,0.875488,-1.1875,-1.75,2.5625,-0.521996,-0.128896,-1.23767
5606,42,7,36,-23,-109,23,34,16,0.137207,-0.493652,0.875488,-1.1875,-1.75,2.5625,-0.521996,-0.128896,-1.23767
5606,-5,-13,-116,-113,18,-26,-12,-7,0.137207,-0.493652,0.875488,-1.1875,-1.75,2.5625,-0.521996,-0.128896,-1.23767
5606,-20,-8,127,106,127,46,0,-2,0.137207,-0.493652,0.875488,-1.1875,-1.75,2.5625,-0.521996,-0.128896,-1.23767
5628,-1,-5,-6,-82,-124,-25,-12,4,0.126953,-0.421387,0.846191,1.5625,0.75,-0.375,-0.520037,-0.12884,-1.23806
5628,-10,-15,-68,-31,-70,-23,-10,-17,0.126953,-0.421387,0.846191,1.5625,0.75,-0.375,-0.520037,-0.12884,-1.23806
5628,-19,-4,52,98,68,21,16,7,0.126953,-0.421387,0.846191,1.5625,0.75,-0.375,-0.520037,-0.12884,-1.23806
5628,-18,-21,-68,-18,-25,-7,8,3,0.126953,-0.421387,0.846191,1.5625,0.75,-0.375,-0.520037,-0.12884,-1.23806
5642,30,8,-29,-53,8,1,12,-2,0.108887,-0.476074,0.834961,-1.9375,-1.0625,0.5,-0.520703,-0.128733,-1.23771
5642,-22,-1,-11,41,3,-10,-32,-8,0.108887,-0.476074,0.834961,-1.9375,-1.0625,0.5,-0.520703,-0.128733,-1.23771
5650,10,0,63,-103,-80,-53,-13,-6,0.108887,-0.476074,0.834961,-1.9375,-1.0625,0.5,-0.520703,-0.128733,-1.23771
5650,-2,26,33,80,93,78,27,5,0.108887,-0.476074,0.834961,-1.9375,-1.0625,0.5,-0.520703,-0.128733,-1.23771
5665,8,-7,-31,49,45,33,27,-5,0.133789,-0.500977,0.832031,0.75,-1.375,1.625,-0.521035,-0.129019,-1.2369
5665,-3,2,11,-33,8,-15,14,3,0.133789,-0.500977,0.832031,0.75,-1.375,1.625,-0.521035,-0.129019,-1.2369
5665,22,13,-27,64,-28,28,-4,-7,0.133789,-0.500977,0.832031,0.75,-1.375,1.625,-0.521035,-0.129019,-1.2369
5665,27,11,31,-58,-93,-55,4,13,0.133789,-0.500977,0.832031,0.75,-1.375,1.625,-0.521035,-0.129019,-1.2369
5688,-29,-7,6,-50,-61,-63,-34,-19,0.097168,-0.475586,0.823242,-0.375,-1.125,0.625,-0.521265,-0.128587,-1.23639
5688,8,-5,-52,58,121,82,39,9,0.097168,-0.475586,0.823242,-0.375,-1.125,0.625,-0.521265,-0.128587,-1.23639
5688,9,-1,3,18,-33,-18,3,9,0.097168,-0.475586,0.823242,-0.375,-1.125,0.625,-0.521265,-0.128587,-1.23639
5688,47,0,-42,-70,-34,-7,0,1,0.097168,-0.475586,0.823242,-0.375,-1.125,0.625,-0.521265,-0.128587,-1.23639
5702,-51,0,-18,-15,-53,17,-19,-4,0.0947266,-0.476562,0.823242,-1.625,-1.4375,0.125,-0.521875,-0.128356,-1.2362
5702,-1,1,-2,-17,-43,-58,-6,-1,0.0947266,-0.476562,0.823242,-1.625,-1.4375,0.125,-0.521875,-0.128356,-1.2362
5710,17,7,24,-22,22,-3,-47,-6,0.0947266,-0.476562,0.823242,-1.625,-1.4375,0.125,-0.521875,-0.128356,-1.2362
5710,2,1,-49,51,-32,17,13,8,0.0947266,-0.476562,0.823242,-1.625,-1.4375,0.125,-0.521875,-0.128356,-1.2362
5726,-7,-4,17,-43,17,1,33,-12,0.129883,-0.492188,0.84082,-1.375,-1.9375,1.0625,-0.522567,-0.128781,-1.2354
5726,-28,3,114,76,94,53,5,-7,0.129883,-0.492188,0.84082,-1.375,-1.9375,1.0625,-0.522567,-0.128781,-1.2354
