0,1,8,1,0,-1,-2,1,-3,0.871582,0.13916,0.529785,5.9375,-21.25,-11.125,0.719565,-1.2264,1.59402
0,1,12,0,0,-1,-2,1,-2,0.871582,0.13916,0.529785,5.9375,-21.25,-11.125,0.719565,-1.2264,1.59402
1,2,26,0,-2,-1,0,-1,1,0.871582,0.13916,0.529785,5.9375,-21.25,-11.125,0.719565,-1.2264,1.59402
1,-1,-17,-3,-3,0,-3,-3,0,0.871582,0.13916,0.529785,5.9375,-21.25,-11.125,0.719565,-1.2264,1.59402
12,-1,-22,2,-1,2,1,-3,0,0.913574,0.0957031,0.526367,-10.5,-3.5,0.9375,0.6982,-1.22449,1.61061
12,-5,-31,-1,-3,-2,-1,0,-2,0.913574,0.0957031,0.526367,-10.5,-3.5,0.9375,0.6982,-1.22449,1.61061
12,-4,-23,2,0,1,-2,-1,-2,0.913574,0.0957031,0.526367,-10.5,-3.5,0.9375,0.6982,-1.22449,1.61061
12,-2,3,2,-1,1,0,-3,-1,0.913574,0.0957031,0.526367,-10.5,-3.5,0.9375,0.6982,-1.22449,1.61061
12,0,3,-3,-1,-1,-1,0,-1,0.913574,0.0957031,0.526367,-10.5,-3.5,0.9375,0.6982,-1.22449,1.61061
12,0,7,-3,-2,-1,-2,-1,-1,0.913574,0.0957031,0.526367,-10.5,-3.5,0.9375,0.6982,-1.22449,1.61061
22,-2,-6,-2,-1,-1,0,0,1,0.910645,0.0483398,0.487305,-17.875,14.875,12.5,0.654414,-1.22113,1.64787
22,-5,-5,-1,-3,-2,-1,-4,-1,0.910645,0.0483398,0.487305,-17.875,14.875,12.5,0.654414,-1.22113,1.64787
25,-6,-5,-1,0,2,-2,-1,-2,0.910645,0.0483398,0.487305,-17.875,14.875,12.5,0.654414,-1.22113,1.64787
25,-4,-5,-3,-2,2,0,-3,1,0.910645,0.0483398,0.487305,-17.875,14.875,12.5,0.654414,-1.22113,1.64787
45,-1,-13,-3,-1,0,-1,0,1,0.879395,0.0375977,0.458496,-26.4375,26.875,18.75,0.599412,-1.21592,1.69485
45,2,-7,3,3,1,0,-1,0,0.879395,0.0375977,0.458496,-26.4375,26.875,18.75,0.599412,-1.21592,1.69485
48,-2,7,-2,-2,-1,-4,-2,1,0.879395,0.0375977,0.458496,-26.4375,26.875,18.75,0.599412,-1.21592,1.69485
48,-1,21,1,-2,0,1,-1,0,0.879395,0.0375977,0.458496,-26.4375,26.875,18.75,0.599412,-1.21592,1.69485
73,-2,17,0,0,0,-2,-2,-1,0.858887,0.0244141,0.421875,-20.875,29.25,18.1875,0.54911,-1.20973,1.73877
73,1,18,-2,0,-2,0,3,0,0.858887,0.0244141,0.421875,-20.875,29.25,18.1875,0.54911,-1.20973,1.73877
74,-3,9,-2,-1,-3,1,1,-1,0.858887,0.0244141,0.421875,-20.875,29.25,18.1875,0.54911,-1.20973,1.73877
74,-3,2,0,-2,0,-4,-2,-2,0.858887,0.0244141,0.421875,-20.875,29.25,18.1875,0.54911,-1.20973,1.73877
94,4,1,3,-2,2,-1,-2,0,0.886719,0.027832,0.381836,-1.3125,26.0625,15.5,0.513055,-1.2047,1.77558
94,-11,-4,-4,-4,-3,-3,-4,-6,0.886719,0.027832,0.381836,-1.3125,26.0625,15.5,0.513055,-1.2047,1.77558
95,5,0,3,-1,-1,1,1,2,0.886719,0.027832,0.381836,-1.3125,26.0625,15.5,0.513055,-1.2047,1.77558
95,-5,-12,-2,-1,0,0,0,-2,0.886719,0.027832,0.381836,-1.3125,26.0625,15.5,0.513055,-1.2047,1.77558
108,2,-5,-2,-2,-4,-1,0,-1,0.928223,0.0771484,0.338867,15.625,22.6875,15.3125,0.490072,-1.20073,1.80492
108,4,0,-2,-2,-1,-2,1,0,0.928223,0.0771484,0.338867,15.625,22.6875,15.3125,0.490072,-1.20073,1.80492
148,1,-1,2,1,0,-1,0,0,0.957031,0.199219,0.324219,15.4375,23.5625,16.0625,0.461305,-1.19246,1.85057
148,-4,-4,-1,-1,1,0,0,-2,0.957031,0.199219,0.324219,15.4375,23.5625,16.0625,0.461305,-1.19246,1.85057
149,1,0,0,-1,1,0,0,-1,0.957031,0.199219,0.324219,15.4375,23.5625,16.0625,0.461305,-1.19246,1.85057
149,0,2,-2,0,0,-2,-1,1,0.957031,0.199219,0.324219,15.4375,23.5625,16.0625,0.461305,-1.19246,1.85057
150,-4,-2,-3,-3,-2,0,-2,-1,0.957031,0.199219,0.324219,15.4375,23.5625,16.0625,0.461305,-1.19246,1.85057
150,-4,0,1,1,-2,0,-3,0,0.957031,0.199219,0.324219,15.4375,23.5625,16.0625,0.461305,-1.19246,1.85057
153,-1,-1,2,2,-3,-1,-1,-2,0.957031,0.199219,0.324219,15.4375,23.5625,16.0625,0.461305,-1.19246,1.85057
153,0,-1,1,0,-1,1,-1,0,0.957031,0.199219,0.324219,15.4375,23.5625,16.0625,0.461305,-1.19246,1.85057
169,-2,2,-2,0,0,-2,-1,-4,0.949219,0.189941,0.333008,6.125,25.375,16.75,0.442681,-1.18705,1.87343
169,4,2,-1,-1,0,-1,-3,0,0.949219,0.189941,0.333008,6.125,25.375,16.75,0.442681,-1.18705,1.87343
170,0,-3,-1,-2,-1,0,-3,0,0.949219,0.189941,0.333008,6.125,25.375,16.75,0.442681,-1.18705,1.87343
170,-4,-2,-1,-2,0,-3,-3,-3,0.949219,0.189941,0.333008,6.125,25.375,16.75,0.442681,-1.18705,1.87343
176,-1,-10,0,0,2,0,0,2,0.939453,0.15332,0.349121,1.25,27.875,17.25,0.419456,-1.18068,1.8986
176,6,-1,-1,0,1,-1,3,2,0.939453,0.15332,0.349121,1.25,27.875,17.25,0.419456,-1.18068,1.8986
190,-11,3,-5,-4,1,-2,-4,-5,0.939453,0.15332,0.349121,1.25,27.875,17.25,0.419456,-1.18068,1.8986
190,1,-7,-2,-2,-2,-1,-2,-2,0.939453,0.15332,0.349121,1.25,27.875,17.25,0.419456,-1.18068,1.8986
199,-1,-3,0,-2,0,-1,-2,-1,0.905273,0.151367,0.361816,-0.0625,29.25,16.75,0.396744,-1.17347,1.92346
199,0,-2,2,-3,-1,0,-2,-1,0.905273,0.151367,0.361816,-0.0625,29.25,16.75,0.396744,-1.17347,1.92346
229,5,-1,1,-3,-3,1,6,3,0.905273,0.151367,0.361816,-0.0625,29.25,16.75,0.396744,-1.17347,1.92346
229,0,-2,0,1,-2,-1,-8,-1,0.905273,0.151367,0.361816,-0.0625,29.25,16.75,0.396744,-1.17347,1.92346
231,0,1,-1,0,-1,-4,1,0,0.89502,0.152832,0.355469,-1.625,30,14.75,0.376462,-1.16565,1.94495
231,3,1,1,0,-2,1,0,1,0.89502,0.152832,0.355469,-1.625,30,14.75,0.376462,-1.16565,1.94495
244,-4,-2,-4,-2,-2,-2,-1,-2,0.89502,0.152832,0.355469,-1.625,30,14.75,0.376462,-1.16565,1.94495
244,-9,-4,-3,-2,-3,-2,-2,-5,0.89502,0.152832,0.355469,-1.625,30,14.75,0.376462,-1.16565,1.94495
246,3,-4,-3,0,-2,1,0,1,0.884277,0.135742,0.355957,-1.375,29.1875,14.625,0.356716,-1.15817,1.96606
246,4,0,2,0,1,-1,-1,1,0.884277,0.135742,0.355957,-1.375,29.1875,14.625,0.356716,-1.15817,1.96606
260,-1,-4,0,0,0,-3,-1,-3,0.884277,0.135742,0.355957,-1.375,29.1875,14.625,0.356716,-1.15817,1.96606
260,0,-2,-4,-1,0,1,1,0,0.884277,0.135742,0.355957,-1.375,29.1875,14.625,0.356716,-1.15817,1.96606
261,-5,1,-3,-2,-1,-1,-4,-3,0.868652,0.119141,0.339844,-1.625,26.9375,13.375,0.338931,-1.15145,1.98493
261,-7,-2,-6,-2,-1,-1,0,-4,0.868652,0.119141,0.339844,-1.625,26.9375,13.375,0.338931,-1.15145,1.98493
289,-2,3,-1,1,-1,-1,-4,-2,0.868652,0.119141,0.339844,-1.625,26.9375,13.375,0.338931,-1.15145,1.98493
289,0,-7,-6,0,0,-2,-1,-1,0.868652,0.119141,0.339844,-1.625,26.9375,13.375,0.338931,-1.15145,1.98493
291,6,3,3,-2,1,-2,0,1,0.861816,0.127441,0.341309,-1.25,24.625,11.5,0.324571,-1.14517,2.00008
291,-5,-6,-3,-2,-2,-3,1,-1,0.861816,0.127441,0.341309,-1.25,24.625,11.5,0.324571,-1.14517,2.00008
297,3,2,2,-1,-1,-2,0,3,0.861816,0.127441,0.341309,-1.25,24.625,11.5,0.324571,-1.14517,2.00008
297,-4,3,1,-1,2,0,0,-1,0.861816,0.127441,0.341309,-1.25,24.625,11.5,0.324571,-1.14517,2.00008
304,-7,-1,-2,-3,0,0,-1,-3,0.85498,0.128418,0.321289,-0.5,22.0625,9.25,0.313844,-1.13995,2.01214
304,-3,-3,1,0,-1,-3,-5,-2,0.85498,0.128418,0.321289,-0.5,22.0625,9.25,0.313844,-1.13995,2.01214
320,1,-4,-1,0,0,1,-2,1,0.85498,0.128418,0.321289,-0.5,22.0625,9.25,0.313844,-1.13995,2.01214
320,4,3,2,1,-2,0,1,1,0.85498,0.128418,0.321289,-0.5,22.0625,9.25,0.313844,-1.13995,2.01214
322,-7,-1,-2,-1,-2,0,-2,-4,0.851562,0.127441,0.321777,-0.625,19.9375,7.5,0.305104,-1.1354,2.02194
322,-1,0,1,1,-1,-2,-1,-1,0.851562,0.127441,0.321777,-0.625,19.9375,7.5,0.305104,-1.1354,2.02194
325,-1,-2,-3,0,0,1,-1,0,0.851562,0.127441,0.321777,-0.625,19.9375,7.5,0.305104,-1.1354,2.02194
325,1,4,3,-2,-2,-1,2,-2,0.851562,0.127441,0.321777,-0.625,19.9375,7.5,0.305104,-1.1354,2.02194
342,2,5,-1,1,-2,-2,-1,-1,1.00732,0.13623,0.362793,-2.125,14.9375,7.8125,0.29662,-1.13304,2.0307
342,0,0,-5,-2,-1,-2,-2,-2,1.00732,0.13623,0.362793,-2.125,14.9375,7.8125,0.29662,-1.13304,2.0307
347,2,0,0,1,-1,-1,0,1,1.00732,0.13623,0.362793,-2.125,14.9375,7.8125,0.29662,-1.13304,2.0307
347,-5,-1,-5,0,-2,-3,-1,-1,1.00732,0.13623,0.362793,-2.125,14.9375,7.8125,0.29662,-1.13304,2.0307
357,0,-6,-1,0,-2,-1,0,1,1.53564,0.223633,0.960449,-0.9375,11.8125,4.9375,0.287008,-1.12381,2.04012
357,1,-1,1,0,-1,0,1,3,1.53564,0.223633,0.960449,-0.9375,11.8125,4.9375,0.287008,-1.12381,2.04012
379,0,-4,-3,0,-1,2,2,2,1.53564,0.223633,0.960449,-0.9375,11.8125,4.9375,0.287008,-1.12381,2.04012
379,2,-2,0,0,2,1,2,2,1.53564,0.223633,0.960449,-0.9375,11.8125,4.9375,0.287008,-1.12381,2.04012
380,0,2,3,1,4,3,1,-2,0.552246,-0.0229492,-0.181641,7.625,9.5,4.4375,0.286205,-1.13088,2.04447
380,2,0,-1,-1,2,2,1,-2,0.552246,-0.0229492,-0.181641,7.625,9.5,4.4375,0.286205,-1.13088,2.04447
386,3,2,4,-2,1,0,-2,-2,0.552246,-0.0229492,-0.181641,7.625,9.5,4.4375,0.286205,-1.13088,2.04447
386,4,3,2,-2,-3,1,0,-1,0.552246,-0.0229492,-0.181641,7.625,9.5,4.4375,0.286205,-1.13088,2.04447
402,-5,-3,0,-3,-1,-2,-1,-1,1.40039,0.32373,1.22852,-0.5625,7.8125,4.0625,0.2798,-1.11527,2.0507
402,-10,-5,-3,-1,-4,-3,-2,-2,1.40039,0.32373,1.22852,-0.5625,7.8125,4.0625,0.2798,-1.11527,2.0507
407,6,2,1,0,1,0,0,2,1.40039,0.32373,1.22852,-0.5625,7.8125,4.0625,0.2798,-1.11527,2.0507
407,-3,4,1,-1,0,-1,-1,-3,1.40039,0.32373,1.22852,-0.5625,7.8125,4.0625,0.2798,-1.11527,2.0507
416,4,-9,-6,-1,-1,-2,-1,0,0.640625,0.0307617,-0.118164,3.625,5.75,2.9375,0.281518,-1.12283,2.05137
416,4,-4,0,-2,-1,0,1,1,0.640625,0.0307617,-0.118164,3.625,5.75,2.9375,0.281518,-1.12283,2.05137
431,-11,-7,-5,-2,-1,0,-1,-4,0.640625,0.0307617,-0.118164,3.625,5.75,2.9375,0.281518,-1.12283,2.05137
431,0,1,-2,-1,0,0,-1,0,0.640625,0.0307617,-0.118164,3.625,5.75,2.9375,0.281518,-1.12283,2.05137
439,0,6,1,-1,-1,-1,1,2,0.458008,-0.0146484,-0.265625,10.5625,4,2.125,0.286296,-1.13209,2.0507
439,2,-2,-1,-1,-2,-2,-2,-1,0.458008,-0.0146484,-0.265625,10.5625,4,2.125,0.286296,-1.13209,2.0507
445,-1,10,0,-2,-1,-2,-2,2,0.458008,-0.0146484,-0.265625,10.5625,4,2.125,0.286296,-1.13209,2.0507
445,2,2,0,-1,0,0,-1,-1,0.458008,-0.0146484,-0.265625,10.5625,4,2.125,0.286296,-1.13209,2.0507
461,-3,3,0,1,0,1,-1,-3,1.3125,0.309082,1.09912,-2.25,3.625,0.5625,0.283811,-1.11938,2.05241
461,-10,-2,-4,-3,0,-3,-2,-4,1.3125,0.309082,1.09912,-2.25,3.625,0.5625,0.283811,-1.11938,2.05241
468,1,-3,1,0,0,-2,-1,-2,1.3125,0.309082,1.09912,-2.25,3.625,0.5625,0.283811,-1.11938,2.05241
468,0,-1,-3,-2,-1,-1,-1,1,1.3125,0.309082,1.09912,-2.25,3.625,0.5625,0.283811,-1.11938,2.05241
476,3,-2,-2,-1,1,-1,1,0,0.986816,0.157227,0.386719,-7.6875,2.3125,2.1875,0.281501,-1.12029,2.05271
476,1,3,0,1,-1,1,-2,0,0.986816,0.157227,0.386719,-7.6875,2.3125,2.1875,0.281501,-1.12029,2.05271
490,-3,-4,-2,-1,0,-2,-2,-4,0.986816,0.157227,0.386719,-7.6875,2.3125,2.1875,0.281501,-1.12029,2.05271
490,-4,-5,-2,-2,-2,0,-1,-1,0.986816,0.157227,0.386719,-7.6875,2.3125,2.1875,0.281501,-1.12029,2.05271
506,-2,-4,-3,-1,-4,0,-2,1,0.543945,0.0771484,0.330566,-5.125,5.875,1.625,0.276491,-1.11679,2.05597
506,2,3,0,1,0,1,-1,1,0.543945,0.0771484,0.330566,-5.125,5.875,1.625,0.276491,-1.11679,2.05597
506,-2,0,0,-1,-2,-1,-1,0,0.543945,0.0771484,0.330566,-5.125,5.875,1.625,0.276491,-1.11679,2.05597
506,6,-2,-1,-2,-1,0,0,0,0.543945,0.0771484,0.330566,-5.125,5.875,1.625,0.276491,-1.11679,2.05597
520,1,0,-1,-2,0,-2,-2,-2,0.866211,0.0981445,0.360352,-4.4375,7.875,0.8125,0.272796,-1.11537,2.05844
520,-1,1,-1,-2,-1,-1,0,-2,0.866211,0.0981445,0.360352,-4.4375,7.875,0.8125,0.272796,-1.11537,2.05844
528,-5,-7,-4,0,-2,-3,-2,-3,0.866211,0.0981445,0.360352,-4.4375,7.875,0.8125,0.272796,-1.11537,2.05844
528,-2,-3,1,-1,0,-3,-1,-1,0.866211,0.0981445,0.360352,-4.4375,7.875,0.8125,0.272796,-1.11537,2.05844
536,2,1,1,0,-3,0,-2,2,0.87207,0.111816,0.364746,-5.25,2.625,2.625,0.269227,-1.1157,2.06047
536,-1,-2,1,-1,0,0,0,0,0.87207,0.111816,0.364746,-5.25,2.625,2.625,0.269227,-1.1157,2.06047
550,0,-2,0,-1,-3,0,0,0,0.87207,0.111816,0.364746,-5.25,2.625,2.625,0.269227,-1.1157,2.06047
550,-2,-3,0,0,-2,-1,-1,-1,0.87207,0.111816,0.364746,-5.25,2.625,2.625,0.269227,-1.1157,2.06047
567,-1,0,0,0,1,-1,0,-1,0.862305,0.0981445,0.382812,-6.5625,4.125,2.1875,0.264312,-1.11517,2.06346
567,7,-3,-2,-1,3,1,1,3,0.862305,0.0981445,0.382812,-6.5625,4.125,2.1875,0.264312,-1.11517,2.06346
568,-4,-6,-3,0,0,-1,0,-2,0.862305,0.0981445,0.382812,-6.5625,4.125,2.1875,0.264312,-1.11517,2.06346
568,0,-2,-2,0,-1,0,0,-1,0.862305,0.0981445,0.382812,-6.5625,4.125,2.1875,0.264312,-1.11517,2.06346
581,0,-2,1,0,-2,-1,-1,0,0.85498,0.0927734,0.391602,-5.0625,3.0625,1.8125,0.260019,-1.11466,2.06597
581,2,5,5,1,-1,0,-2,-1,0.85498,0.0927734,0.391602,-5.0625,3.0625,1.8125,0.260019,-1.11466,2.06597
597,-1,-17,-8,0,0,0,0,-1,0.85498,0.0927734,0.391602,-5.0625,3.0625,1.8125,0.260019,-1.11466,2.06597
597,-2,0,1,0,-2,-2,-4,1,0.85498,0.0927734,0.391602,-5.0625,3.0625,1.8125,0.260019,-1.11466,2.06597
598,3,1,0,-3,-2,-1,-3,2,0.854492,0.0898438,0.397949,-4.75,2.4375,0.8125,0.256623,-1.11396,2.06762
598,-2,-3,-5,-4,-4,-3,-4,-2,0.854492,0.0898438,0.397949,-4.75,2.4375,0.8125,0.256623,-1.11396,2.06762
619,-4,0,2,-2,-2,-4,-3,-3,0.854492,0.0898438,0.397949,-4.75,2.4375,0.8125,0.256623,-1.11396,2.06762
619,-3,-1,-1,-1,-2,-2,-2,-3,0.854492,0.0898438,0.397949,-4.75,2.4375,0.8125,0.256623,-1.11396,2.06762
620,-3,0,-2,-1,-2,-2,-2,1,0.619629,0.0253906,0.349121,-4.5,5.875,-0.375,0.250695,-1.11136,2.07199
620,0,-9,0,1,-2,-1,0,-1,0.619629,0.0253906,0.349121,-4.5,5.875,-0.375,0.250695,-1.11136,2.07199
625,-1,1,-2,-1,-2,-1,-2,-1,0.619629,0.0253906,0.349121,-4.5,5.875,-0.375,0.250695,-1.11136,2.07199
625,-2,1,-1,1,-1,-3,0,0,0.619629,0.0253906,0.349121,-4.5,5.875,-0.375,0.250695,-1.11136,2.07199
640,1,2,0,0,-2,-2,-2,-1,1.15283,0.219727,0.741211,-6.25,0.3125,-0.5625,0.250579,-1.10661,2.06986
640,-4,1,-3,-1,-2,-1,-3,-2,1.15283,0.219727,0.741211,-6.25,0.3125,-0.5625,0.250579,-1.10661,2.06986
657,5,-1,-2,1,-1,-1,-1,2,1.15283,0.219727,0.741211,-6.25,0.3125,-0.5625,0.250579,-1.10661,2.06986
657,-6,-6,-4,-1,-1,-2,-1,-3,1.15283,0.219727,0.741211,-6.25,0.3125,-0.5625,0.250579,-1.10661,2.06986
659,-2,0,-1,0,-1,-2,1,-3,1.20996,0.11084,0.895508,-7.375,-0.4375,-1.375,0.243089,-1.10062,2.07432
659,2,-3,-2,-2,-2,-1,0,-1,1.20996,0.11084,0.895508,-7.375,-0.4375,-1.375,0.243089,-1.10062,2.07432
670,5,5,5,-2,-1,0,-1,1,1.20996,0.11084,0.895508,-7.375,-0.4375,-1.375,0.243089,-1.10062,2.07432
670,-4,7,6,0,1,-1,-4,-2,1.20996,0.11084,0.895508,-7.375,-0.4375,-1.375,0.243089,-1.10062,2.07432
679,-5,-2,-2,-1,0,-1,-2,-2,0.982422,0.0830078,0.599609,-13.6875,-3.6875,-1.125,0.236353,-1.09952,2.07569
679,-1,2,-4,0,-3,-1,-1,-2,0.982422,0.0830078,0.599609,-13.6875,-3.6875,-1.125,0.236353,-1.09952,2.07569
695,-2,0,-1,-3,-1,-1,0,-2,0.982422,0.0830078,0.599609,-13.6875,-3.6875,-1.125,0.236353,-1.09952,2.07569
695,-2,0,-2,-1,-1,-1,0,-1,0.982422,0.0830078,0.599609,-13.6875,-3.6875,-1.125,0.236353,-1.09952,2.07569
701,-2,-6,-2,-1,1,1,0,0,0.817871,0.0708008,0.438477,-9.625,-6.4375,-3.5,0.234481,-1.10059,2.07334
701,-2,-3,-2,-2,0,1,-3,0,0.817871,0.0708008,0.438477,-9.625,-6.4375,-3.5,0.234481,-1.10059,2.07334
717,-1,6,2,1,0,-1,-1,1,0.817871,0.0708008,0.438477,-9.625,-6.4375,-3.5,0.234481,-1.10059,2.07334
717,1,-5,-2,-1,-1,-2,-1,-1,0.817871,0.0708008,0.438477,-9.625,-6.4375,-3.5,0.234481,-1.10059,2.07334
722,-6,-5,-2,-3,-1,-1,-1,-3,0.853516,0.0493164,0.457031,-11.4375,-3.3125,-4.8125,0.231096,-1.10092,2.072
722,1,1,0,-2,2,0,2,2,0.853516,0.0493164,0.457031,-11.4375,-3.3125,-4.8125,0.231096,-1.10092,2.072
730,-3,-2,-4,-1,-2,-2,-2,-2,0.853516,0.0493164,0.457031,-11.4375,-3.3125,-4.8125,0.231096,-1.10092,2.072
730,-3,-8,-4,-2,1,0,-1,0,0.853516,0.0493164,0.457031,-11.4375,-3.3125,-4.8125,0.231096,-1.10092,2.072
739,0,-1,-2,0,-1,-1,0,0,0.86377,0.043457,0.45752,-12.9375,-4.125,-5.4375,0.22775,-1.10149,2.07004
739,-3,1,-1,-1,0,-2,-3,-1,0.86377,0.043457,0.45752,-12.9375,-4.125,-5.4375,0.22775,-1.10149,2.07004
753,-2,-1,-5,-1,-2,-2,-1,-2,0.86377,0.043457,0.45752,-12.9375,-4.125,-5.4375,0.22775,-1.10149,2.07004
753,0,0,0,-1,-2,0,-2,-1,0.86377,0.043457,0.45752,-12.9375,-4.125,-5.4375,0.22775,-1.10149,2.07004
760,1,2,1,-2,-2,1,-1,-3,0.867188,0.0390625,0.464355,-12.9375,-4.625,-5.75,0.22407,-1.10198,2.06823
760,-5,-1,2,0,-1,-1,-1,-1,0.867188,0.0390625,0.464355,-12.9375,-4.625,-5.75,0.22407,-1.10198,2.06823
785,-2,-1,-2,-1,-2,0,-2,-1,0.867188,0.0390625,0.464355,-12.9375,-4.625,-5.75,0.22407,-1.10198,2.06823
785,-1,-1,0,-1,2,-2,-2,-1,0.867188,0.0390625,0.464355,-12.9375,-4.625,-5.75,0.22407,-1.10198,2.06823
786,-2,-2,-2,-1,-1,-3,-2,-1,0.871094,0.0336914,0.463379,-10.9375,-5.5,-5.9375,0.221209,-1.10304,2.06624
786,1,-1,3,-2,0,-1,1,-1,0.871094,0.0336914,0.463379,-10.9375,-5.5,-5.9375,0.221209,-1.10304,2.06624
790,1,-1,1,-1,-1,-2,-1,1,0.871094,0.0336914,0.463379,-10.9375,-5.5,-5.9375,0.221209,-1.10304,2.06624
790,3,0,1,-1,-2,0,0,0,0.871094,0.0336914,0.463379,-10.9375,-5.5,-5.9375,0.221209,-1.10304,2.06624
799,0,-3,-2,-2,-1,-2,0,0,0.866699,0.0424805,0.460449,-9.625,-5.9375,-5.875,0.219592,-1.10416,2.06368
799,4,1,-2,0,0,0,0,-2,0.866699,0.0424805,0.460449,-9.625,-5.9375,-5.875,0.219592,-1.10416,2.06368
813,-6,-1,-1,-1,1,0,0,-2,0.866699,0.0424805,0.460449,-9.625,-5.9375,-5.875,0.219592,-1.10416,2.06368
813,-1,-2,-4,0,-1,0,2,-1,0.866699,0.0424805,0.460449,-9.625,-5.9375,-5.875,0.219592,-1.10416,2.06368
820,1,-1,-1,1,0,0,1,-1,0.870117,0.0498047,0.462891,-9.5625,-6,-6.125,0.21852,-1.10501,2.06043
820,-1,2,0,1,-1,-2,-2,-1,0.870117,0.0498047,0.462891,-9.5625,-6,-6.125,0.21852,-1.10501,2.06043
828,1,-2,-1,-1,-1,-1,1,-1,0.870117,0.0498047,0.462891,-9.5625,-6,-6.125,0.21852,-1.10501,2.06043
828,3,2,3,-1,-2,-1,0,0,0.870117,0.0498047,0.462891,-9.5625,-6,-6.125,0.21852,-1.10501,2.06043
853,-4,-5,-3,-4,-1,0,0,-1,0.862793,0.0444336,0.454102,-9.6875,-6.1875,-6.1875,0.217262,-1.1063,2.05752
853,2,-3,1,-2,-1,-1,-1,0,0.862793,0.0444336,0.454102,-9.6875,-6.1875,-6.1875,0.217262,-1.1063,2.05752
853,-1,-1,1,0,0,-3,-3,-1,0.862793,0.0444336,0.454102,-9.6875,-6.1875,-6.1875,0.217262,-1.1063,2.05752
853,-2,-1,-2,-1,-2,0,-1,0,0.862793,0.0444336,0.454102,-9.6875,-6.1875,-6.1875,0.217262,-1.1063,2.05752
859,2,0,1,-2,-2,-2,-2,-2,0.870605,0.0332031,0.452148,-8.875,-6.375,-6.3125,0.215941,-1.10786,2.05496
859,-3,0,1,-2,0,-1,1,-2,0.870605,0.0332031,0.452148,-8.875,-6.375,-6.3125,0.215941,-1.10786,2.05496
873,5,0,2,0,0,-2,1,-1,0.870605,0.0332031,0.452148,-8.875,-6.375,-6.3125,0.215941,-1.10786,2.05496
873,-4,-2,-3,-2,-2,0,1,-3,0.870605,0.0332031,0.452148,-8.875,-6.375,-6.3125,0.215941,-1.10786,2.05496
881,2,0,-1,0,-1,-2,-1,-1,0.866699,0.0341797,0.445801,-5.8125,-6.125,-6.5625,0.215755,-1.10908,2.05197
881,-3,1,-4,-1,-1,1,-1,-1,0.866699,0.0341797,0.445801,-5.8125,-6.125,-6.5625,0.215755,-1.10908,2.05197
904,4,7,1,0,1,1,2,1,0.866699,0.0341797,0.445801,-5.8125,-6.125,-6.5625,0.215755,-1.10908,2.05197
904,-4,-1,-4,-3,-1,0,1,-2,0.866699,0.0341797,0.445801,-5.8125,-6.125,-6.5625,0.215755,-1.10908,2.05197
905,1,0,2,0,-1,0,0,-1,0.866211,0.043457,0.446289,-5.3125,-5.75,-6.8125,0.216457,-1.11009,2.04838
905,-4,-3,-1,1,-2,-1,-2,-2,0.866211,0.043457,0.446289,-5.3125,-5.75,-6.8125,0.216457,-1.11009,2.04838
910,-4,-2,-1,-3,-1,0,-2,-2,0.866211,0.043457,0.446289,-5.3125,-5.75,-6.8125,0.216457,-1.11009,2.04838
910,4,2,-1,-1,-2,-1,-2,0,0.866211,0.043457,0.446289,-5.3125,-5.75,-6.8125,0.216457,-1.11009,2.04838
936,-2,-1,-2,1,1,-1,-1,0,0.87207,0.0517578,0.438477,-6.125,-5.1875,-6.625,0.21726,-1.11133,2.04476
936,-1,-2,-1,0,-4,-1,-1,-2,0.87207,0.0517578,0.438477,-6.125,-5.1875,-6.625,0.21726,-1.11133,2.04476
937,-5,-3,-4,-1,1,-1,-1,-1,0.87207,0.0517578,0.438477,-6.125,-5.1875,-6.625,0.21726,-1.11133,2.04476
937,0,-1,3,-1,2,0,-2,-1,0.87207,0.0517578,0.438477,-6.125,-5.1875,-6.625,0.21726,-1.11133,2.04476
941,-7,-1,-1,-2,-2,-1,-2,-1,0.878906,0.0527344,0.433594,-7.6875,-4.5,-5.625,0.216868,-1.11239,2.0417
941,-3,-2,-1,-2,-1,-1,-2,-1,0.878906,0.0527344,0.433594,-7.6875,-4.5,-5.625,0.216868,-1.11239,2.0417
948,-2,-5,-3,-3,-3,0,-3,0,0.878906,0.0527344,0.433594,-7.6875,-4.5,-5.625,0.216868,-1.11239,2.0417
948,-4,-6,-3,-1,-1,-1,-1,-1,0.878906,0.0527344,0.433594,-7.6875,-4.5,-5.625,0.216868,-1.11239,2.0417
963,5,3,-1,1,0,0,-1,1,0.888184,0.0546875,0.433594,-6.375,-3.5,-4.9375,0.216483,-1.11309,2.03898
963,-10,-4,-3,-2,-2,-4,-3,-4,0.888184,0.0546875,0.433594,-6.375,-3.5,-4.9375,0.216483,-1.11309,2.03898
970,-2,-1,-1,0,-2,-3,0,-1,0.888184,0.0546875,0.433594,-6.375,-3.5,-4.9375,0.216483,-1.11309,2.03898
970,10,6,3,0,-1,0,-3,3,0.888184,0.0546875,0.433594,-6.375,-3.5,-4.9375,0.216483,-1.11309,2.03898
979,-3,-2,-1,-1,-1,-2,1,-2,0.901367,0.0600586,0.41748,-4.625,-2.6875,-4.5625,0.216526,-1.1143,2.03698
979,1,-3,-1,-2,-1,-2,-2,0,0.901367,0.0600586,0.41748,-4.625,-2.6875,-4.5625,0.216526,-1.1143,2.03698
993,0,0,1,2,-1,-3,-3,-2,0.901367,0.0600586,0.41748,-4.625,-2.6875,-4.5625,0.216526,-1.1143,2.03698
993,0,-1,1,-2,2,-2,-2,-1,0.901367,0.0600586,0.41748,-4.625,-2.6875,-4.5625,0.216526,-1.1143,2.03698
1000,5,3,2,0,-1,0,0,2,0.887207,0.0800781,0.413574,-3.25,-0.875,-4.1875,0.218014,-1.11451,2.03396
1000,-4,-1,-3,-1,-3,-1,-1,-3,0.887207,0.0800781,0.413574,-3.25,-0.875,-4.1875,0.218014,-1.11451,2.03396
1008,-1,-1,-1,-1,-3,-2,0,-2,0.887207,0.0800781,0.413574,-3.25,-0.875,-4.1875,0.218014,-1.11451,2.03396
1008,-4,-2,-2,-1,-3,-2,0,-1,0.887207,0.0800781,0.413574,-3.25,-0.875,-4.1875,0.218014,-1.11451,2.03396
1023,-3,-2,-2,-1,-2,-1,-3,-2,0.874512,0.0776367,0.408203,-4.25,0.5,-3.6875,0.218195,-1.11449,2.03196
1023,1,4,0,1,1,-1,0,0,0.874512,0.0776367,0.408203,-4.25,0.5,-3.6875,0.218195,-1.11449,2.03196
1030,-12,-5,-1,-3,-1,1,-1,-4,0.874512,0.0776367,0.408203,-4.25,0.5,-3.6875,0.218195,-1.11449,2.03196
1030,-4,-16,-9,0,-1,-1,0,-2,0.874512,0.0776367,0.408203,-4.25,0.5,-3.6875,0.218195,-1.11449,2.03196
1039,-2,0,-1,-2,-1,-3,-1,-1,0.880371,0.0722656,0.405762,-5.5625,1.375,-3,0.217124,-1.11411,2.03067
1039,3,1,0,-2,-1,0,1,2,0.880371,0.0722656,0.405762,-5.5625,1.375,-3,0.217124,-1.11411,2.03067
1055,0,2,-3,-2,0,-1,0,-1,0.880371,0.0722656,0.405762,-5.5625,1.375,-3,0.217124,-1.11411,2.03067
1055,1,2,1,-1,-1,0,-2,0,0.880371,0.0722656,0.405762,-5.5625,1.375,-3,0.217124,-1.11411,2.03067
1061,-2,-4,-4,-2,-1,-1,-2,-1,0.88916,0.0717773,0.408691,-4,1.8125,-2.6875,0.216379,-1.11378,2.02976
1061,0,-4,-5,0,0,0,-2,-1,0.88916,0.0717773,0.408691,-4,1.8125,-2.6875,0.216379,-1.11378,2.02976
1076,0,-1,-2,-2,-3,-2,-2,1,0.88916,0.0717773,0.408691,-4,1.8125,-2.6875,0.216379,-1.11378,2.02976
1076,1,0,-1,-3,-4,-1,-2,0,0.88916,0.0717773,0.408691,-4,1.8125,-2.6875,0.216379,-1.11378,2.02976
1083,3,1,2,1,0,0,-2,-1,0.895996,0.0795898,0.411133,-3.8125,2.125,-3.125,0.216289,-1.11349,2.02847
1083,1,2,3,-2,-3,-2,0,-1,0.895996,0.0795898,0.411133,-3.8125,2.125,-3.125,0.216289,-1.11349,2.02847
1090,0,-1,-2,0,1,-1,0,1,0.895996,0.0795898,0.411133,-3.8125,2.125,-3.125,0.216289,-1.11349,2.02847
1090,-2,1,0,-1,0,1,0,-2,0.895996,0.0795898,0.411133,-3.8125,2.125,-3.125,0.216289,-1.11349,2.02847
1099,0,1,0,-1,-2,0,0,-1,0.891602,0.0898438,0.405762,-4.3125,2.75,-3.125,0.216575,-1.1127,2.02642
1099,1,-4,0,-1,0,0,2,0,0.891602,0.0898438,0.405762,-4.3125,2.75,-3.125,0.216575,-1.1127,2.02642
1114,-9,-6,-4,-2,1,0,-1,-4,0.891602,0.0898438,0.405762,-4.3125,2.75,-3.125,0.216575,-1.1127,2.02642
1114,4,4,5,2,-1,-1,1,0,0.891602,0.0898438,0.405762,-4.3125,2.75,-3.125,0.216575,-1.1127,2.02642
1122,-24,-13,-9,-4,-3,-5,-5,-8,0.882812,0.0864258,0.405273,-5.8125,2.4375,-2.8125,0.215961,-1.11202,2.02463
1122,-2,-3,-2,2,-1,-2,-3,-1,0.882812,0.0864258,0.405273,-5.8125,2.4375,-2.8125,0.215961,-1.11202,2.02463
1136,5,0,1,1,-2,0,-1,2,0.882812,0.0864258,0.405273,-5.8125,2.4375,-2.8125,0.215961,-1.11202,2.02463
1136,-2,0,-3,0,1,-1,-2,-3,0.882812,0.0864258,0.405273,-5.8125,2.4375,-2.8125,0.215961,-1.11202,2.02463
1150,4,0,-4,-1,3,1,0,0,0.880859,0.09375,0.399414,-4.8125,2.5,-2.3125,0.215889,-1.11146,2.02291
1150,-1,0,-1,-1,-1,-1,0,0,0.880859,0.09375,0.399414,-4.8125,2.5,-2.3125,0.215889,-1.11146,2.02291
1159,0,7,1,-1,0,0,-2,-3,0.880859,0.09375,0.399414,-4.8125,2.5,-2.3125,0.215889,-1.11146,2.02291
1159,-1,-10,-6,-1,0,-3,-1,-2,0.880859,0.09375,0.399414,-4.8125,2.5,-2.3125,0.215889,-1.11146,2.02291
1161,3,2,3,1,-1,0,1,1,0.862793,0.0991211,0.396484,-2.9375,2.625,-2.5,0.216791,-1.11098,2.02119
1161,-4,-3,-3,-1,0,-1,-2,-2,0.862793,0.0991211,0.396484,-2.9375,2.625,-2.5,0.216791,-1.11098,2.02119
1173,9,4,4,1,-1,-1,1,1,0.862793,0.0991211,0.396484,-2.9375,2.625,-2.5,0.216791,-1.11098,2.02119
1173,-4,2,2,-1,-3,-1,-2,-3,0.862793,0.0991211,0.396484,-2.9375,2.625,-2.5,0.216791,-1.11098,2.02119
1180,2,-2,-2,-2,-2,-1,-1,0,0.858398,0.101562,0.384766,-3.75,2.9375,-2.8125,0.217807,-1.11025,2.01858
1180,3,1,0,0,0,0,-1,0,0.858398,0.101562,0.384766,-3.75,2.9375,-2.8125,0.217807,-1.11025,2.01858
1204,-4,-6,-1,-1,-2,-1,-2,-3,0.858398,0.101562,0.384766,-3.75,2.9375,-2.8125,0.217807,-1.11025,2.01858
1204,0,-1,-2,-1,-1,-2,-2,-1,0.858398,0.101562,0.384766,-3.75,2.9375,-2.8125,0.217807,-1.11025,2.01858
1205,4,0,1,-1,-2,-2,0,0,0.868164,0.0961914,0.384766,-2.875,3.5625,-1.875,0.218096,-1.10956,2.01718
1205,-8,-4,-2,-1,-1,-2,-3,-5,0.868164,0.0961914,0.384766,-2.875,3.5625,-1.875,0.218096,-1.10956,2.01718
1226,3,-1,1,-1,0,-1,-1,0,0.868164,0.0961914,0.384766,-2.875,3.5625,-1.875,0.218096,-1.10956,2.01718
1226,2,0,2,-1,0,1,1,0,0.868164,0.0961914,0.384766,-2.875,3.5625,-1.875,0.218096,-1.10956,2.01718
1234,1,1,-1,-1,-1,-1,0,0,0.87793,0.102539,0.368652,0.125,4.5,-1,0.219369,-1.10918,2.01613
1234,8,1,-2,-1,-1,-2,-2,-1,0.87793,0.102539,0.368652,0.125,4.5,-1,0.219369,-1.10918,2.01613
1241,-3,-4,-5,-2,-2,-2,0,-1,0.87793,0.102539,0.368652,0.125,4.5,-1,0.219369,-1.10918,2.01613
1241,-2,1,-1,0,0,-2,-3,-1,0.87793,0.102539,0.368652,0.125,4.5,-1,0.219369,-1.10918,2.01613
1248,-1,2,-1,-2,0,0,-3,-2,0.874023,0.12793,0.366699,1.0625,5.8125,-0.8125,0.221759,-1.10829,2.01462
1248,-2,1,0,0,0,0,0,-2,0.874023,0.12793,0.366699,1.0625,5.8125,-0.8125,0.221759,-1.10829,2.01462
1272,-2,-2,-1,1,-1,-1,0,-2,0.874023,0.12793,0.366699,1.0625,5.8125,-0.8125,0.221759,-1.10829,2.01462
1272,1,1,-1,-2,-2,0,-1,0,0.874023,0.12793,0.366699,1.0625,5.8125,-0.8125,0.221759,-1.10829,2.01462
1273,-2,-2,-1,-1,-3,-1,-1,0,0.87793,0.134277,0.374023,-0.875,6.5625,-0.1875,0.223003,-1.10699,2.01337
1273,1,-3,-1,-1,-3,-1,0,-1,0.87793,0.134277,0.374023,-0.875,6.5625,-0.1875,0.223003,-1.10699,2.01337
1287,0,-12,2,0,-2,-1,0,0,0.87793,0.134277,0.374023,-0.875,6.5625,-0.1875,0.223003,-1.10699,2.01337
1287,2,-10,-1,1,1,-1,0,3,0.87793,0.134277,0.374023,-0.875,6.5625,-0.1875,0.223003,-1.10699,2.01337
1288,3,1,0,-1,0,-3,-1,-1,0.878906,0.12207,0.374023,-1.375,7.0625,0.625,0.223151,-1.10582,2.01328
1288,-4,1,-3,-1,1,0,0,-1,0.878906,0.12207,0.374023,-1.375,7.0625,0.625,0.223151,-1.10582,2.01328
1301,5,9,-1,-1,-2,0,-1,0,0.878906,0.12207,0.374023,-1.375,7.0625,0.625,0.223151,-1.10582,2.01328
1301,-4,13,4,0,0,-1,-2,-3,0.878906,0.12207,0.374023,-1.375,7.0625,0.625,0.223151,-1.10582,2.01328
1308,-1,-11,-7,-1,0,-2,0,0,0.890137,0.120117,0.378906,-0.5,7.75,1.0625,0.223038,-1.10421,2.01344
1308,1,4,3,-1,-1,-1,0,1,0.890137,0.120117,0.378906,-0.5,7.75,1.0625,0.223038,-1.10421,2.01344
1324,3,5,1,1,1,-2,-1,1,0.890137,0.120117,0.378906,-0.5,7.75,1.0625,0.223038,-1.10421,2.01344
1324,-9,-2,-6,-3,-3,-2,-3,-2,0.890137,0.120117,0.378906,-0.5,7.75,1.0625,0.223038,-1.10421,2.01344
1325,-1,1,0,0,0,0,-3,-1,0.883789,0.125,0.380859,1.1875,8.5,1.875,0.222849,-1.10264,2.01466
1325,0,2,-2,1,0,-1,0,-1,0.883789,0.125,0.380859,1.1875,8.5,1.875,0.222849,-1.10264,2.01466
1347,-5,-3,-4,-1,-1,-2,-1,-3,0.883789,0.125,0.380859,1.1875,8.5,1.875,0.222849,-1.10264,2.01466
1347,5,0,3,0,0,0,1,0,0.883789,0.125,0.380859,1.1875,8.5,1.875,0.222849,-1.10264,2.01466
1349,5,3,3,0,2,-1,2,0,0.873047,0.120117,0.373535,1.8125,8.5625,2.5,0.2224,-1.10094,2.01631
1349,-11,-5,-4,-5,-3,-3,-3,-4,0.873047,0.120117,0.373535,1.8125,8.5625,2.5,0.2224,-1.10094,2.01631
1361,-2,1,0,-4,-1,1,-3,-3,0.873047,0.120117,0.373535,1.8125,8.5625,2.5,0.2224,-1.10094,2.01631
1361,4,-3,-1,2,-2,0,-1,-1,0.873047,0.120117,0.373535,1.8125,8.5625,2.5,0.2224,-1.10094,2.01631
1368,0,-7,-1,-4,-1,1,-1,-1,0.856934,0.129395,0.377441,-0.1875,8.8125,1.9375,0.221946,-1.09905,2.01736
1368,13,3,2,1,2,1,2,3,0.856934,0.129395,0.377441,-0.1875,8.8125,1.9375,0.221946,-1.09905,2.01736
1384,2,2,-2,-1,-1,-1,-3,-2,0.856934,0.129395,0.377441,-0.1875,8.8125,1.9375,0.221946,-1.09905,2.01736
1384,-6,-1,-1,-3,-2,-1,-3,-1,0.856934,0.129395,0.377441,-0.1875,8.8125,1.9375,0.221946,-1.09905,2.01736
1385,-2,6,2,0,-3,1,-3,-1,0.843262,0.122559,0.382812,-1.375,8.375,1.6875,0.220835,-1.097,2.01842
1385,-1,-4,-3,-2,-1,0,-2,-1,0.843262,0.122559,0.382812,-1.375,8.375,1.6875,0.220835,-1.097,2.01842
1406,-2,-3,-2,1,0,-1,0,-1,0.843262,0.122559,0.382812,-1.375,8.375,1.6875,0.220835,-1.097,2.01842
1406,3,-1,-1,-2,0,-2,0,0,0.843262,0.122559,0.382812,-1.375,8.375,1.6875,0.220835,-1.097,2.01842
1408,1,6,2,0,-1,-1,0,0,0.849609,0.128906,0.383789,-2.375,8.625,0.875,0.220643,-1.09485,2.01826
1408,-2,-3,1,-1,2,0,-1,-1,0.849609,0.128906,0.383789,-2.375,8.625,0.875,0.220643,-1.09485,2.01826
1429,-2,-1,0,0,0,-1,0,0,0.849609,0.128906,0.383789,-2.375,8.625,0.875,0.220643,-1.09485,2.01826
1429,-5,0,1,0,0,-2,-3,-4,0.849609,0.128906,0.383789,-2.375,8.625,0.875,0.220643,-1.09485,2.01826
1431,0,-1,-1,-1,-4,-1,1,-1,0.850586,0.117676,0.395508,-2.9375,8.25,0.5625,0.219439,-1.0927,2.0189
1431,-11,-7,-3,-3,-2,-4,-2,-3,0.850586,0.117676,0.395508,-2.9375,8.25,0.5625,0.219439,-1.0927,2.0189
1444,2,1,-1,0,-1,-1,1,1,0.850586,0.117676,0.395508,-2.9375,8.25,0.5625,0.219439,-1.0927,2.0189
1444,-2,-5,-4,0,-2,-2,1,1,0.850586,0.117676,0.395508,-2.9375,8.25,0.5625,0.219439,-1.0927,2.0189
1445,2,-2,-2,2,0,-1,-1,0,0.859863,0.118652,0.389648,-2.125,8.25,0.6875,0.21882,-1.09087,2.01924
1445,8,-12,1,2,-3,0,-1,-1,0.859863,0.118652,0.389648,-2.125,8.25,0.6875,0.21882,-1.09087,2.01924
1467,9,1,1,-2,-1,3,0,0,0.859863,0.118652,0.389648,-2.125,8.25,0.6875,0.21882,-1.09087,2.01924
1467,-4,-3,-5,-2,0,-2,1,-2,0.859863,0.118652,0.389648,-2.125,8.25,0.6875,0.21882,-1.09087,2.01924
1468,1,4,-1,0,0,-2,0,-1,0.86084,0.12793,0.397461,-1.4375,8.1875,0.8125,0.218546,-1.08882,2.01928
1468,4,4,-2,-1,-4,-2,0,2,0.86084,0.12793,0.397461,-1.4375,8.1875,0.8125,0.218546,-1.08882,2.01928
1481,1,1,-2,1,0,0,-1,3,0.86084,0.12793,0.397461,-1.4375,8.1875,0.8125,0.218546,-1.08882,2.01928
1481,-1,3,0,-1,-3,-1,-1,-3,0.86084,0.12793,0.397461,-1.4375,8.1875,0.8125,0.218546,-1.08882,2.01928
1489,-7,3,-2,-1,-2,0,-1,-2,0.867676,0.149414,0.38916,-3.6875,9.1875,1.125,0.218493,-1.08677,2.0188
1489,-1,8,-1,-1,-2,-1,-2,-1,0.867676,0.149414,0.38916,-3.6875,9.1875,1.125,0.218493,-1.08677,2.0188
1504,-3,1,-1,-3,-1,-1,0,0,0.867676,0.149414,0.38916,-3.6875,9.1875,1.125,0.218493,-1.08677,2.0188
1504,7,6,1,0,-1,-1,1,3,0.867676,0.149414,0.38916,-3.6875,9.1875,1.125,0.218493,-1.08677,2.0188
1505,-8,-7,-1,0,0,-2,-1,-5,0.866699,0.15332,0.376465,-8.8125,11.5625,0.75,0.216746,-1.08396,2.018
1505,-3,0,2,-1,-2,-2,-1,-2,0.866699,0.15332,0.376465,-8.8125,11.5625,0.75,0.216746,-1.08396,2.018
1527,-9,-8,-5,-4,-2,-1,-3,-4,0.866699,0.15332,0.376465,-8.8125,11.5625,0.75,0.216746,-1.08396,2.018
1527,31,12,8,2,-2,-1,3,7,0.866699,0.15332,0.376465,-8.8125,11.5625,0.75,0.216746,-1.08396,2.018
1528,-5,-7,-2,0,-3,-4,-1,0,0.867188,0.140625,0.417969,-15.1875,13.9375,1.875,0.211021,-1.08001,2.01933
1528,-1,-1,-3,-1,-2,-2,0,-3,0.867188,0.140625,0.417969,-15.1875,13.9375,1.875,0.211021,-1.08001,2.01933
1540,-3,-7,1,-1,-1,-1,0,-2,0.867188,0.140625,0.417969,-15.1875,13.9375,1.875,0.211021,-1.08001,2.01933
1540,10,1,1,-1,-1,0,-1,2,0.867188,0.140625,0.417969,-15.1875,13.9375,1.875,0.211021,-1.08001,2.01933
1549,0,-4,0,0,-1,-1,-2,-3,0.85498,0.123535,0.446777,-18.125,15.6875,4.25,0.201574,-1.07497,2.02328
1549,9,8,4,1,0,-2,-2,1,0.85498,0.123535,0.446777,-18.125,15.6875,4.25,0.201574,-1.07497,2.02328
1564,-19,1,-6,0,0,-6,-1,-4,0.85498,0.123535,0.446777,-18.125,15.6875,4.25,0.201574,-1.07497,2.02328
1564,-14,-6,-5,-2,-3,-1,-3,-3,0.85498,0.123535,0.446777,-18.125,15.6875,4.25,0.201574,-1.07497,2.02328
1566,-1,7,5,-1,-2,-1,-2,2,0.824707,0.102539,0.484863,-20.5625,17.25,5.125,0.18943,-1.06839,2.02894
1566,-15,-23,-8,-4,-5,-3,-7,-7,0.824707,0.102539,0.484863,-20.5625,17.25,5.125,0.18943,-1.06839,2.02894
1587,5,-11,3,1,1,0,-2,0,0.824707,0.102539,0.484863,-20.5625,17.25,5.125,0.18943,-1.06839,2.02894
1587,-9,-4,0,0,2,-4,-1,-2,0.824707,0.102539,0.484863,-20.5625,17.25,5.125,0.18943,-1.06839,2.02894
1589,-1,5,-5,-4,-5,-4,-1,-2,0.818359,0.0966797,0.515625,-22.5,19.4375,3.75,0.177347,-1.06071,2.03417
1589,6,1,4,1,2,2,2,4,0.818359,0.0966797,0.515625,-22.5,19.4375,3.75,0.177347,-1.06071,2.03417
1600,5,6,-4,-1,-3,1,2,-2,0.818359,0.0966797,0.515625,-22.5,19.4375,3.75,0.177347,-1.06071,2.03417
1600,-9,-9,-6,-4,-2,-2,-4,-2,0.818359,0.0966797,0.515625,-22.5,19.4375,3.75,0.177347,-1.06071,2.03417
1610,22,6,3,-1,3,3,7,7,0.79834,0.0488281,0.586914,-26.5625,20.9375,1.0625,0.162813,-1.05045,2.0392
1610,4,-30,2,0,1,-1,-2,11,0.79834,0.0488281,0.586914,-26.5625,20.9375,1.0625,0.162813,-1.05045,2.0392
1623,1,-21,-2,-3,2,1,-1,-12,0.79834,0.0488281,0.586914,-26.5625,20.9375,1.0625,0.162813,-1.05045,2.0392
1623,-9,-9,-1,-1,6,0,-5,-2,0.79834,0.0488281,0.586914,-26.5625,20.9375,1.0625,0.162813,-1.05045,2.0392
1630,10,12,-1,0,1,2,0,-2,0.806152,0.0224609,0.637207,-37.375,23.125,0.375,0.144117,-1.03928,2.04503
1630,-6,41,-3,0,4,3,-12,-2,0.806152,0.0224609,0.637207,-37.375,23.125,0.375,0.144117,-1.03928,2.04503
1646,-5,15,-6,-2,2,-1,-2,3,0.806152,0.0224609,0.637207,-37.375,23.125,0.375,0.144117,-1.03928,2.04503
1646,-3,0,-5,-3,-3,-1,2,0,0.806152,0.0224609,0.637207,-37.375,23.125,0.375,0.144117,-1.03928,2.04503
1648,-22,14,9,-6,-1,-2,-5,-6,0.835938,-0.0229492,0.674805,-49.5625,29.9375,3.8125,0.117437,-1.02576,2.05448
1648,-5,-8,-16,-1,-2,0,-1,-3,0.835938,-0.0229492,0.674805,-49.5625,29.9375,3.8125,0.117437,-1.02576,2.05448
1660,-10,-4,-5,-3,-7,-3,1,-3,0.835938,-0.0229492,0.674805,-49.5625,29.9375,3.8125,0.117437,-1.02576,2.05448
1660,4,-2,-6,2,-1,-3,-10,7,0.835938,-0.0229492,0.674805,-49.5625,29.9375,3.8125,0.117437,-1.02576,2.05448
1669,-16,-31,-6,0,2,2,-3,-18,0.84082,-0.0180664,0.685547,-60.875,41.0625,11.8125,0.083561,-1.00861,2.06809
1669,-16,-8,4,2,2,1,4,-5,0.84082,-0.0180664,0.685547,-60.875,41.0625,11.8125,0.083561,-1.00861,2.06809
1683,13,13,1,-1,-5,-1,-1,0,0.84082,-0.0180664,0.685547,-60.875,41.0625,11.8125,0.083561,-1.00861,2.06809
1683,-13,15,1,3,1,1,5,1,0.84082,-0.0180664,0.685547,-60.875,41.0625,11.8125,0.083561,-1.00861,2.06809
1691,-1,-6,-5,-1,-4,-2,-1,1,0.812012,-0.00732422,0.706055,-70.1875,52.875,17.9375,0.0457432,-0.987217,2.08331
1691,0,10,8,0,0,-1,2,-3,0.812012,-0.00732422,0.706055,-70.1875,52.875,17.9375,0.0457432,-0.987217,2.08331
1707,0,-5,8,-2,-1,-3,-1,1,0.812012,-0.00732422,0.706055,-70.1875,52.875,17.9375,0.0457432,-0.987217,2.08331
1707,-4,-5,-13,-4,-2,0,-3,-8,0.812012,-0.00732422,0.706055,-70.1875,52.875,17.9375,0.0457432,-0.987217,2.08331
1708,6,4,1,1,-3,-1,-2,3,0.796387,-0.0292969,0.731445,-77.0625,63.75,21.75,0.00527859,-0.961553,2.0991
1708,10,16,4,0,-6,0,6,-4,0.796387,-0.0292969,0.731445,-77.0625,63.75,21.75,0.00527859,-0.961553,2.0991
1720,15,-13,8,2,-8,0,-6,0,0.796387,-0.0292969,0.731445,-77.0625,63.75,21.75,0.00527859,-0.961553,2.0991
1720,1,-27,-6,-3,-9,0,11,12,0.796387,-0.0292969,0.731445,-77.0625,63.75,21.75,0.00527859,-0.961553,2.0991
1729,-6,-15,-6,-4,-1,-1,-8,-7,0.80127,-0.0625,0.746582,-79.75,76.9375,27.8125,-0.0370017,-0.931601,2.11624
1729,4,-22,-4,0,-3,-1,5,5,0.80127,-0.0625,0.746582,-79.75,76.9375,27.8125,-0.0370017,-0.931601,2.11624
1744,17,32,7,6,6,4,-2,4,0.80127,-0.0625,0.746582,-79.75,76.9375,27.8125,-0.0370017,-0.931601,2.11624
1744,-3,-8,19,-3,-2,-4,7,-9,0.80127,-0.0625,0.746582,-79.75,76.9375,27.8125,-0.0370017,-0.931601,2.11624
1751,14,-7,-16,1,0,1,1,14,0.787109,-0.0893555,0.757812,-77.75,89.4375,37.625,-0.0799035,-0.897074,2.13557
1751,-5,2,8,-3,-3,-1,-5,-4,0.787109,-0.0893555,0.757812,-77.75,89.4375,37.625,-0.0799035,-0.897074,2.13557
1767,-5,-7,-11,-3,-6,-1,1,-1,0.787109,-0.0893555,0.757812,-77.75,89.4375,37.625,-0.0799035,-0.897074,2.13557
1767,16,9,7,4,1,1,1,1,0.787109,-0.0893555,0.757812,-77.75,89.4375,37.625,-0.0799035,-0.897074,2.13557
1768,-15,5,6,-3,-4,-3,-6,-5,0.805664,-0.090332,0.745605,-80.25,102.312,43.375,-0.12169,-0.859676,2.1535
1768,7,42,-7,0,-1,-3,-12,-12,0.805664,-0.090332,0.745605,-80.25,102.312,43.375,-0.12169,-0.859676,2.1535
1781,-11,0,-10,-5,-3,-4,9,23,0.805664,-0.090332,0.745605,-80.25,102.312,43.375,-0.12169,-0.859676,2.1535
1781,-10,-4,-5,-2,-3,-2,-3,-5,0.805664,-0.090332,0.745605,-80.25,102.312,43.375,-0.12169,-0.859676,2.1535
1789,5,-5,8,4,-2,-1,-2,1,0.781738,-0.182617,0.769531,-88.75,115.812,52.25,-0.166886,-0.816787,2.17222
1789,-8,-33,-7,-4,-6,-3,-4,-5,0.781738,-0.182617,0.769531,-88.75,115.812,52.25,-0.166886,-0.816787,2.17222
1803,1,-23,-6,0,-1,-3,-4,-5,0.781738,-0.182617,0.769531,-88.75,115.812,52.25,-0.166886,-0.816787,2.17222
1803,18,6,17,0,-1,0,-5,0,0.781738,-0.182617,0.769531,-88.75,115.812,52.25,-0.166886,-0.816787,2.17222
1810,2,1,-15,-9,-6,-1,-2,-3,0.726562,-0.236816,0.800293,-91.875,129.688,62.5625,-0.212534,-0.767846,2.19102
1810,3,-29,-3,-2,0,0,7,2,0.726562,-0.236816,0.800293,-91.875,129.688,62.5625,-0.212534,-0.767846,2.19102
1826,-8,0,-3,-3,-1,0,-11,-12,0.726562,-0.236816,0.800293,-91.875,129.688,62.5625,-0.212534,-0.767846,2.19102
1826,-14,-12,-1,2,6,6,7,-2,0.726562,-0.236816,0.800293,-91.875,129.688,62.5625,-0.212534,-0.767846,2.19102
1828,18,-7,-2,-3,-2,-3,-12,4,0.682129,-0.290527,0.827637,-86.4375,139.312,74.1875,-0.255921,-0.714261,2.21028
1828,1,1,-4,-2,1,0,1,9,0.682129,-0.290527,0.827637,-86.4375,139.312,74.1875,-0.255921,-0.714261,2.21028
1849,-19,-10,5,4,7,-1,-10,-10,0.682129,-0.290527,0.827637,-86.4375,139.312,74.1875,-0.255921,-0.714261,2.21028
1849,-4,9,-3,-2,3,5,-5,-2,0.682129,-0.290527,0.827637,-86.4375,139.312,74.1875,-0.255921,-0.714261,2.21028
1851,8,13,4,3,2,1,9,-5,0.648438,-0.339844,0.786621,-74.125,143.938,79.875,-0.293424,-0.658242,2.22784
1851,-14,2,8,2,0,0,4,13,0.648438,-0.339844,0.786621,-74.125,143.938,79.875,-0.293424,-0.658242,2.22784
1863,-13,-33,-17,-6,0,-3,-7,2,0.648438,-0.339844,0.786621,-74.125,143.938,79.875,-0.293424,-0.658242,2.22784
1863,6,7,-12,-3,-7,-7,4,-7,0.648438,-0.339844,0.786621,-74.125,143.938,79.875,-0.293424,-0.658242,2.22784
1871,12,-34,0,-1,-3,-3,4,12,0.611816,-0.332031,0.849609,-61.6875,147.562,84.6875,-0.324429,-0.600176,2.24349
1871,-15,50,5,-2,3,3,-2,-7,0.611816,-0.332031,0.849609,-61.6875,147.562,84.6875,-0.324429,-0.600176,2.24349
1886,3,-17,3,-4,-9,0,-6,1,0.611816,-0.332031,0.849609,-61.6875,147.562,84.6875,-0.324429,-0.600176,2.24349
1886,-25,-11,-7,4,4,0,16,-8,0.611816,-0.332031,0.849609,-61.6875,147.562,84.6875,-0.324429,-0.600176,2.24349
1893,-3,12,5,4,10,5,12,0,0.552246,-0.378906,0.805176,-55.4375,146.438,90.8125,-0.352614,-0.54148,2.25912
1893,11,2,0,-1,-2,-7,-21,-7,0.552246,-0.378906,0.805176,-55.4375,146.438,90.8125,-0.352614,-0.54148,2.25912
1909,0,9,1,1,0,0,13,4,0.552246,-0.378906,0.805176,-55.4375,146.438,90.8125,-0.352614,-0.54148,2.25912
1909,-10,-18,-10,-4,-1,4,-11,-17,0.552246,-0.378906,0.805176,-55.4375,146.438,90.8125,-0.352614,-0.54148,2.25912
1910,11,-14,-5,0,1,2,7,30,0.464355,-0.411621,0.771973,-52.9375,142.188,90.5,-0.378356,-0.483936,2.27296
1910,-10,-28,-5,-6,-5,-4,-19,-12,0.464355,-0.411621,0.771973,-52.9375,142.188,90.5,-0.378356,-0.483936,2.27296
1923,16,20,8,4,3,2,27,2,0.464355,-0.411621,0.771973,-52.9375,142.188,90.5,-0.378356,-0.483936,2.27296
1923,-4,-20,2,5,11,9,15,45,0.464355,-0.411621,0.771973,-52.9375,142.188,90.5,-0.378356,-0.483936,2.27296
1931,-9,24,-3,-3,-2,-1,11,-8,0.393066,-0.421875,0.687988,-49.9375,131.375,91.75,-0.402505,-0.429532,2.28683
1931,-1,8,0,-1,-1,-3,-3,-12,0.393066,-0.421875,0.687988,-49.9375,131.375,91.75,-0.402505,-0.429532,2.28683
1954,-9,-11,-15,-8,-10,-11,-17,-13,0.393066,-0.421875,0.687988,-49.9375,131.375,91.75,-0.402505,-0.429532,2.28683
1954,47,-8,18,2,-7,0,16,8,0.393066,-0.421875,0.687988,-49.9375,131.375,91.75,-0.402505,-0.429532,2.28683
1956,-27,-74,-9,2,10,12,4,-43,0.132324,-0.449707,0.152832,-51.9375,106.562,96.4375,-0.429733,-0.381828,2.30489
1956,21,-37,2,-1,25,22,-7,93,0.132324,-0.449707,0.152832,-51.9375,106.562,96.4375,-0.429733,-0.381828,2.30489
1969,11,101,16,0,19,10,-50,-42,0.132324,-0.449707,0.152832,-51.9375,106.562,96.4375,-0.429733,-0.381828,2.30489
1969,11,123,-2,-12,3,52,20,23,0.132324,-0.449707,0.152832,-51.9375,106.562,96.4375,-0.429733,-0.381828,2.30489
1970,-20,122,-21,-19,-10,30,-19,-28,1.45264,2.3623,-0.47998,-278.062,-132.562,-122.125,-0.519297,-0.442399,2.28658
1970,-14,62,-12,1,-6,37,24,-5,1.45264,2.3623,-0.47998,-278.062,-132.562,-122.125,-0.519297,-0.442399,2.28658
1984,53,106,35,20,-38,-77,25,44,1.45264,2.3623,-0.47998,-278.062,-132.562,-122.125,-0.519297,-0.442399,2.28658
1984,-12,65,5,6,-89,-126,-85,-27,1.45264,2.3623,-0.47998,-278.062,-132.562,-122.125,-0.519297,-0.442399,2.28658
1991,-16,-38,-1,6,-80,-20,-3,9,1.12109,-2.13037,0.456543,309.625,-141.438,-161.438,-0.396522,-0.511507,2.25433
1991,-8,-80,-10,-5,-61,-76,-1,-4,1.12109,-2.13037,0.456543,309.625,-141.438,-161.438,-0.396522,-0.511507,2.25433
2014,-42,-86,-30,-4,17,11,70,28,1.12109,-2.13037,0.456543,309.625,-141.438,-161.438,-0.396522,-0.511507,2.25433
2014,-6,-5,-1,-7,47,38,-7,-40,1.12109,-2.13037,0.456543,309.625,-141.438,-161.438,-0.396522,-0.511507,2.25433
2016,-8,23,15,7,91,43,-1,-11,1.16455,0.396484,0.914551,-71.8125,127.875,158.875,-0.433581,-0.452839,2.28894
2016,-19,-18,-15,-3,83,75,32,-14,1.16455,0.396484,0.914551,-71.8125,127.875,158.875,-0.433581,-0.452839,2.28894
2029,33,-1,18,4,46,62,13,3,1.16455,0.396484,0.914551,-71.8125,127.875,158.875,-0.433581,-0.452839,2.28894
2029,-19,-78,-11,-5,36,8,4,10,1.16455,0.396484,0.914551,-71.8125,127.875,158.875,-0.433581,-0.452839,2.28894
2030,6,-48,-3,-4,0,-16,10,27,-0.0126953,0.400391,0.217285,-91.75,-5.9375,-41.9375,-0.447239,-0.460468,2.26973
2030,21,-18,-5,-15,-34,-35,-15,-22,-0.0126953,0.400391,0.217285,-91.75,-5.9375,-41.9375,-0.447239,-0.460468,2.26973
2042,32,-100,-5,-7,-38,-51,-25,9,-0.0126953,0.400391,0.217285,-91.75,-5.9375,-41.9375,-0.447239,-0.460468,2.26973
2042,-9,-104,-11,-7,-35,-25,-9,-32,-0.0126953,0.400391,0.217285,-91.75,-5.9375,-41.9375,-0.447239,-0.460468,2.26973
2051,-18,-128,-5,-6,-19,-29,-24,-29,0.46875,-0.865234,0.911133,-49.4375,-6.75,19.5625,-0.47772,-0.45678,2.28203
2051,-20,-113,0,3,-5,-7,4,9,0.46875,-0.865234,0.911133,-49.4375,-6.75,19.5625,-0.47772,-0.45678,2.28203
2067,-18,-53,-4,-4,-3,13,-26,-33,0.46875,-0.865234,0.911133,-49.4375,-6.75,19.5625,-0.47772,-0.45678,2.28203
2067,14,16,4,7,13,33,114,81,0.46875,-0.865234,0.911133,-49.4375,-6.75,19.5625,-0.47772,-0.45678,2.28203
2068,2,102,-6,-4,-8,-27,-49,1,0.327148,-0.78418,0.881836,-53.9375,24.4375,19.875,-0.504729,-0.441168,2.28751
2068,-10,127,16,3,-4,-7,4,-37,0.327148,-0.78418,0.881836,-53.9375,24.4375,19.875,-0.504729,-0.441168,2.28751
2089,-3,74,-22,-10,-4,-2,-16,17,0.327148,-0.78418,0.881836,-53.9375,24.4375,19.875,-0.504729,-0.441168,2.28751
2089,-23,72,0,3,11,23,19,-26,0.327148,-0.78418,0.881836,-53.9375,24.4375,19.875,-0.504729,-0.441168,2.28751
2091,-4,37,6,-1,0,-1,19,24,0.0800781,-0.568848,0.92627,2,5.4375,-22.8125,-0.501745,-0.433949,2.27942
2091,-29,22,-1,4,3,17,6,21,0.0800781,-0.568848,0.92627,2,5.4375,-22.8125,-0.501745,-0.433949,2.27942
2103,-54,8,7,5,10,18,-12,24,0.0800781,-0.568848,0.92627,2,5.4375,-22.8125,-0.501745,-0.433949,2.27942
2103,-22,-2,7,2,0,-6,33,13,0.0800781,-0.568848,0.92627,2,5.4375,-22.8125,-0.501745,-0.433949,2.27942
2111,-25,7,8,12,19,34,0,-15,0.155273,-0.481934,0.993652,-27.5,15.1875,-9.625,-0.507127,-0.423225,2.27266
2111,40,12,-8,-3,-9,-7,-14,-59,0.155273,-0.481934,0.993652,-27.5,15.1875,-9.625,-0.507127,-0.423225,2.27266
2127,32,32,18,11,16,25,8,-8,0.155273,-0.481934,0.993652,-27.5,15.1875,-9.625,-0.507127,-0.423225,2.27266
2127,72,-1,-10,-9,-10,-21,-52,25,0.155273,-0.481934,0.993652,-27.5,15.1875,-9.625,-0.507127,-0.423225,2.27266
2128,55,3,6,0,-1,3,19,14,0.17041,-0.432129,0.840332,-41.8125,13.125,-13.6875,-0.51764,-0.415971,2.26503
2128,22,-8,-12,-15,-14,-7,13,-34,0.17041,-0.432129,0.840332,-41.8125,13.125,-13.6875,-0.51764,-0.415971,2.26503
2149,11,-7,-5,-1,-4,-4,16,-9,0.17041,-0.432129,0.840332,-41.8125,13.125,-13.6875,-0.51764,-0.415971,2.26503
2149,17,-8,2,-1,-1,2,19,-1,0.17041,-0.432129,0.840332,-41.8125,13.125,-13.6875,-0.51764,-0.415971,2.26503
2151,-40,-22,-10,0,3,-10,-17,-13,0.34668,-0.445312,0.711426,-37.75,2.125,-11.1875,-0.529922,-0.416672,2.26127
2151,49,32,21,3,-9,-9,-7,72,0.34668,-0.445312,0.711426,-37.75,2.125,-11.1875,-0.529922,-0.416672,2.26127
2162,-67,-37,-10,0,7,2,-18,-36,0.34668,-0.445312,0.711426,-37.75,2.125,-11.1875,-0.529922,-0.416672,2.26127
2162,-23,-20,0,6,10,5,20,22,0.34668,-0.445312,0.711426,-37.75,2.125,-11.1875,-0.529922,-0.416672,2.26127
2171,-7,-5,6,-4,-5,2,-15,-8,0.43457,-0.388184,0.708496,-35.5625,2.4375,-13.625,-0.53939,-0.420029,2.25599
2171,-17,-7,3,2,-4,-18,4,-7,0.43457,-0.388184,0.708496,-35.5625,2.4375,-13.625,-0.53939,-0.420029,2.25599
2186,34,18,18,2,-3,14,-9,-22,0.43457,-0.388184,0.708496,-35.5625,2.4375,-13.625,-0.53939,-0.420029,2.25599
2186,-14,12,2,-1,-1,-12,-5,-19,0.43457,-0.388184,0.708496,-35.5625,2.4375,-13.625,-0.53939,-0.420029,2.25599
2188,-38,-41,-13,-5,-11,-24,21,21,0.458984,-0.438965,0.723145,-34,4.4375,-10.125,-0.549418,-0.422341,2.25177
2188,-78,-2,3,3,5,14,6,-33,0.458984,-0.438965,0.723145,-34,4.4375,-10.125,-0.549418,-0.422341,2.25177
2210,-66,-30,-19,-13,-16,-10,12,-45,0.458984,-0.438965,0.723145,-34,4.4375,-10.125,-0.549418,-0.422341,2.25177
2210,-12,-20,-5,-3,2,-7,-74,-68,0.458984,-0.438965,0.723145,-34,4.4375,-10.125,-0.549418,-0.422341,2.25177
2212,112,15,15,-2,-9,-3,30,11,0.365234,-0.45166,0.781738,-29.5625,4.4375,-6.5625,-0.557691,-0.421371,2.24834
2212,53,-10,-2,4,-3,-13,15,6,0.365234,-0.45166,0.781738,-29.5625,4.4375,-6.5625,-0.557691,-0.421371,2.24834
2232,44,-1,2,3,-4,-3,8,16,0.365234,-0.45166,0.781738,-29.5625,4.4375,-6.5625,-0.557691,-0.421371,2.24834
2232,7,-23,-8,-4,-2,8,-6,10,0.365234,-0.45166,0.781738,-29.5625,4.4375,-6.5625,-0.557691,-0.421371,2.24834
2233,11,15,5,0,-7,-6,-4,7,0.334961,-0.499512,0.802734,-24.0625,0.125,-8.3125,-0.564709,-0.420765,2.24561
2233,-6,-3,3,6,9,8,-1,-7,0.334961,-0.499512,0.802734,-24.0625,0.125,-8.3125,-0.564709,-0.420765,2.24561
2246,-15,1,-3,-3,-2,-1,-3,11,0.334961,-0.499512,0.802734,-24.0625,0.125,-8.3125,-0.564709,-0.420765,2.24561
2246,-11,-11,-3,-5,-7,-4,-17,5,0.334961,-0.499512,0.802734,-24.0625,0.125,-8.3125,-0.564709,-0.420765,2.24561
2248,-6,8,6,3,3,0,-4,-1,0.378906,-0.52832,0.827148,-18.1875,0.8125,-3.875,-0.570483,-0.419906,2.24414
2248,-11,-17,-9,-4,1,0,-15,6,0.378906,-0.52832,0.827148,-18.1875,0.8125,-3.875,-0.570483,-0.419906,2.24414
2269,-3,-6,-7,-5,-2,-1,-4,9,0.378906,-0.52832,0.827148,-18.1875,0.8125,-3.875,-0.570483,-0.419906,2.24414
2269,14,29,5,-2,-3,-3,-12,-4,0.378906,-0.52832,0.827148,-18.1875,0.8125,-3.875,-0.570483,-0.419906,2.24414
2270,-10,15,2,2,4,4,1,-4,0.483887,-0.515137,0.768555,-14.375,8.8125,-3.75,-0.574528,-0.419657,2.24118
2270,4,21,-3,2,5,8,2,8,0.483887,-0.515137,0.768555,-14.375,8.8125,-3.75,-0.574528,-0.419657,2.24118
2283,4,26,-7,-4,-4,-4,0,4,0.483887,-0.515137,0.768555,-14.375,8.8125,-3.75,-0.574528,-0.419657,2.24118
2283,-9,32,-4,0,-1,-6,-38,-8,0.483887,-0.515137,0.768555,-14.375,8.8125,-3.75,-0.574528,-0.419657,2.24118
2291,-11,32,-3,-3,0,11,21,2,0.53125,-0.333984,0.745117,-3.6875,14.6875,-2.0625,-0.571066,-0.419615,2.2362
2291,-1,26,1,0,-5,-3,-6,10,0.53125,-0.333984,0.745117,-3.6875,14.6875,-2.0625,-0.571066,-0.419615,2.2362
2307,-21,0,-3,-2,-3,-3,2,3,0.53125,-0.333984,0.745117,-3.6875,14.6875,-2.0625,-0.571066,-0.419615,2.2362
2307,1,31,-3,-1,-4,-4,-14,1,0.53125,-0.333984,0.745117,-3.6875,14.6875,-2.0625,-0.571066,-0.419615,2.2362
2308,-18,8,-7,-2,-1,-7,-12,-2,0.654297,-0.354004,0.716309,-8.9375,14.9375,6.625,-0.57135,-0.420682,2.2342
2308,2,-8,-2,-4,-4,-9,-9,-3,0.654297,-0.354004,0.716309,-8.9375,14.9375,6.625,-0.57135,-0.420682,2.2342
2329,6,37,5,-1,-5,-4,9,0,0.654297,-0.354004,0.716309,-8.9375,14.9375,6.625,-0.57135,-0.420682,2.2342
2329,-8,33,-3,-2,-4,-3,-12,-4,0.654297,-0.354004,0.716309,-8.9375,14.9375,6.625,-0.57135,-0.420682,2.2342
2331,-9,9,-8,0,1,11,27,14,0.69873,-0.476074,0.811523,-9.5,16.3125,11.375,-0.573734,-0.420026,2.23413
2331,14,1,5,2,2,-1,16,13,0.69873,-0.476074,0.811523,-9.5,16.3125,11.375,-0.573734,-0.420026,2.23413
2343,12,-62,0,0,5,9,-7,8,0.69873,-0.476074,0.811523,-9.5,16.3125,11.375,-0.573734,-0.420026,2.23413
2343,-10,-101,-1,-1,-1,-8,-2,-20,0.69873,-0.476074,0.811523,-9.5,16.3125,11.375,-0.573734,-0.420026,2.23413
2352,8,-105,1,1,0,-8,7,4,0.55957,-0.513672,0.867676,18.375,22.25,22.5,-0.567483,-0.411883,2.23645
2352,-4,-128,-4,-5,-1,7,-36,-23,0.55957,-0.513672,0.867676,18.375,22.25,22.5,-0.567483,-0.411883,2.23645
2374,4,-70,0,3,2,1,4,-3,0.55957,-0.513672,0.867676,18.375,22.25,22.5,-0.567483,-0.411883,2.23645
2374,2,-26,1,1,4,9,11,2,0.55957,-0.513672,0.867676,18.375,22.25,22.5,-0.567483,-0.411883,2.23645
2382,-5,-16,1,-1,3,3,-22,-11,0.372559,-0.334961,0.849609,30.5625,17.8125,26.375,-0.554288,-0.401465,2.23956
2382,16,18,2,-3,-6,-4,4,5,0.372559,-0.334961,0.849609,30.5625,17.8125,26.375,-0.554288,-0.401465,2.23956
2389,-5,31,-7,-2,-6,-6,-3,-2,0.372559,-0.334961,0.849609,30.5625,17.8125,26.375,-0.554288,-0.401465,2.23956
2389,-7,32,-1,0,-3,1,0,-1,0.372559,-0.334961,0.849609,30.5625,17.8125,26.375,-0.554288,-0.401465,2.23956
2390,-1,12,-1,-3,-8,-12,-9,-5,0.395996,-0.380859,0.813965,23.375,3.875,15.625,-0.545303,-0.397895,2.24291
2390,0,8,3,0,-3,-3,1,7,0.395996,-0.380859,0.813965,23.375,3.875,15.625,-0.545303,-0.397895,2.24291
2403,6,10,9,1,-1,-2,3,6,0.395996,-0.380859,0.813965,23.375,3.875,15.625,-0.545303,-0.397895,2.24291
2403,11,-4,-9,-5,-6,1,0,2,0.395996,-0.380859,0.813965,23.375,3.875,15.625,-0.545303,-0.397895,2.24291
2411,-4,1,-6,-2,-3,-6,-7,3,0.273438,-0.474121,0.769531,32.8125,4.9375,18.0625,-0.536016,-0.39095,2.2479
2411,-4,-4,-8,-1,1,-1,4,0,0.273438,-0.474121,0.769531,32.8125,4.9375,18.0625,-0.536016,-0.39095,2.2479
2427,-8,-6,-4,0,1,1,-4,-1,0.273438,-0.474121,0.769531,32.8125,4.9375,18.0625,-0.536016,-0.39095,2.2479
2427,-3,31,6,2,2,0,6,2,0.273438,-0.474121,0.769531,32.8125,4.9375,18.0625,-0.536016,-0.39095,2.2479
2429,10,73,8,3,1,-3,-6,-2,0.755371,-0.401367,1.10889,21.1875,10.6875,19.5625,-0.524741,-0.390576,2.25013
2429,-6,58,-5,-1,0,2,3,-10,0.755371,-0.401367,1.10889,21.1875,10.6875,19.5625,-0.524741,-0.390576,2.25013
2450,10,44,1,-2,-6,-44,-39,16,0.755371,-0.401367,1.10889,21.1875,10.6875,19.5625,-0.524741,-0.390576,2.25013
2450,-14,-13,0,0,1,12,0,2,0.755371,-0.401367,1.10889,21.1875,10.6875,19.5625,-0.524741,-0.390576,2.25013
2451,6,-24,-3,-3,0,8,4,14,0.867188,-0.487305,1.14551,24.5,11.375,33.5625,-0.515608,-0.389555,2.2574
2451,-10,-14,3,-1,6,2,4,-3,0.867188,-0.487305,1.14551,24.5,11.375,33.5625,-0.515608,-0.389555,2.2574
2462,-8,-115,-1,-3,4,7,3,5,0.867188,-0.487305,1.14551,24.5,11.375,33.5625,-0.515608,-0.389555,2.2574
2462,0,-54,-1,1,6,4,8,-7,0.867188,-0.487305,1.14551,24.5,11.375,33.5625,-0.515608,-0.389555,2.2574
2488,1,23,-1,-3,0,7,-8,-10,0.334961,-0.629883,0.842285,24.1875,10.375,38.4375,-0.514728,-0.378008,2.26941
2488,-11,55,-1,2,4,9,-5,4,0.334961,-0.629883,0.842285,24.1875,10.375,38.4375,-0.514728,-0.378008,2.26941
2488,-6,67,-3,-4,-1,14,8,-12,0.334961,-0.629883,0.842285,24.1875,10.375,38.4375,-0.514728,-0.378008,2.26941
2488,-1,22,4,-3,-4,5,-2,1,0.334961,-0.629883,0.842285,24.1875,10.375,38.4375,-0.514728,-0.378008,2.26941
2490,-5,-20,-2,0,-4,0,2,-6,-0.255371,-0.370117,0.347168,12.4375,8.0625,5.1875,-0.514424,-0.364688,2.27106
2490,-8,-48,-1,-3,-8,-11,-2,1,-0.255371,-0.370117,0.347168,12.4375,8.0625,5.1875,-0.514424,-0.364688,2.27106
2509,-3,-19,0,-1,-8,-6,3,-4,-0.255371,-0.370117,0.347168,12.4375,8.0625,5.1875,-0.514424,-0.364688,2.27106
2509,-5,1,2,3,-5,-9,0,2,-0.255371,-0.370117,0.347168,12.4375,8.0625,5.1875,-0.514424,-0.364688,2.27106
2511,-17,-7,-7,-2,-5,-9,-10,-2,0.950195,-0.402344,1.19141,11.75,0.3125,4.9375,-0.504858,-0.374449,2.27051
2511,-6,3,4,2,0,-3,1,2,0.950195,-0.402344,1.19141,11.75,0.3125,4.9375,-0.504858,-0.374449,2.27051
2523,-9,-1,-7,-5,-2,-2,-1,-5,0.950195,-0.402344,1.19141,11.75,0.3125,4.9375,-0.504858,-0.374449,2.27051
2523,8,20,-2,-7,0,-3,-3,3,0.950195,-0.402344,1.19141,11.75,0.3125,4.9375,-0.504858,-0.374449,2.27051
2539,-6,-48,-2,-1,3,-5,-4,-8,-0.187012,-0.64209,0.338379,22.375,13.4375,22.875,-0.509208,-0.357115,2.27926
2539,3,-6,2,4,3,1,-4,2,-0.187012,-0.64209,0.338379,22.375,13.4375,22.875,-0.509208,-0.357115,2.27926
2547,-23,32,-1,1,1,5,9,-2,-0.187012,-0.64209,0.338379,22.375,13.4375,22.875,-0.509208,-0.357115,2.27926
2547,-8,29,-10,-3,-4,-8,-12,-2,-0.187012,-0.64209,0.338379,22.375,13.4375,22.875,-0.509208,-0.357115,2.27926
2549,-2,11,-7,-2,0,-2,-12,-5,0.964844,-0.340332,1.16895,22,16.5,27.1875,-0.496585,-0.359507,2.28265
2549,-2,10,-2,-1,-1,-5,-1,1,0.964844,-0.340332,1.16895,22,16.5,27.1875,-0.496585,-0.359507,2.28265
2570,5,27,0,-1,0,2,0,-4,0.964844,-0.340332,1.16895,22,16.5,27.1875,-0.496585,-0.359507,2.28265
2570,5,0,0,0,-2,-2,0,3,0.964844,-0.340332,1.16895,22,16.5,27.1875,-0.496585,-0.359507,2.28265
2571,-25,-3,0,0,2,2,3,-1,-0.326172,-0.648926,0.27832,26.8125,13.0625,31.1875,-0.501279,-0.338397,2.29445
2571,-2,8,-4,0,-2,0,-1,-4,-0.326172,-0.648926,0.27832,26.8125,13.0625,31.1875,-0.501279,-0.338397,2.29445
2583,3,11,1,1,0,1,1,2,-0.326172,-0.648926,0.27832,26.8125,13.0625,31.1875,-0.501279,-0.338397,2.29445
2583,-5,-13,-5,0,1,2,3,-3,-0.326172,-0.648926,0.27832,26.8125,13.0625,31.1875,-0.501279,-0.338397,2.29445
2599,13,13,10,-1,-2,-1,0,2,0.869141,-0.358887,1.17383,12.75,9.3125,28,-0.493024,-0.34116,2.29989
2599,4,21,2,1,1,1,1,1,0.869141,-0.358887,1.17383,12.75,9.3125,28,-0.493024,-0.34116,2.29989
2606,-1,-6,-14,-2,1,1,1,-1,0.869141,-0.358887,1.17383,12.75,9.3125,28,-0.493024,-0.34116,2.29989
2606,5,-2,-1,1,1,-1,2,2,0.869141,-0.358887,1.17383,12.75,9.3125,28,-0.493024,-0.34116,2.29989
2613,-4,-13,-7,-5,-5,-4,-4,-7,-0.302734,-0.60498,0.350098,8.3125,4.875,16.75,-0.500946,-0.325367,2.3075
2613,1,-5,3,2,-1,1,-2,1,-0.302734,-0.60498,0.350098,8.3125,4.875,16.75,-0.500946,-0.325367,2.3075
2629,13,21,25,11,4,2,1,3,-0.302734,-0.60498,0.350098,8.3125,4.875,16.75,-0.500946,-0.325367,2.3075
2629,-3,-2,28,3,0,-1,0,-2,-0.302734,-0.60498,0.350098,8.3125,4.875,16.75,-0.500946,-0.325367,2.3075
2630,5,20,-38,-11,-7,-7,-4,-4,0.847656,-0.34082,1.17139,5.25,3.625,16.4375,-0.493778,-0.33168,2.30996
2630,-8,-12,-8,-8,-4,-1,-2,-3,0.847656,-0.34082,1.17139,5.25,3.625,16.4375,-0.493778,-0.33168,2.30996
2642,-3,-15,-7,-5,-4,-2,-1,-2,0.847656,-0.34082,1.17139,5.25,3.625,16.4375,-0.493778,-0.33168,2.30996
2642,3,16,15,5,3,1,4,2,0.847656,-0.34082,1.17139,5.25,3.625,16.4375,-0.493778,-0.33168,2.30996
2667,1,-7,7,2,2,-2,3,-1,-0.210938,-0.655762,0.445312,15.625,11.0625,22.625,-0.499376,-0.314419,2.31832
2667,-1,-13,-3,-2,-2,-1,5,11,-0.210938,-0.655762,0.445312,15.625,11.0625,22.625,-0.499376,-0.314419,2.31832
2668,0,-3,-3,-3,-1,-2,-10,-23,-0.210938,-0.655762,0.445312,15.625,11.0625,22.625,-0.499376,-0.314419,2.31832
2668,-6,-28,-16,-3,-2,-1,15,1,-0.210938,-0.655762,0.445312,15.625,11.0625,22.625,-0.499376,-0.314419,2.31832
2673,8,-21,8,4,-1,3,1,4,0.812988,-0.300293,1.19629,15.9375,12.125,24.625,-0.487996,-0.316465,2.32189
2673,5,-41,-9,-1,2,5,0,3,0.812988,-0.300293,1.19629,15.9375,12.125,24.625,-0.487996,-0.316465,2.32189
2697,6,-21,1,-3,0,3,2,8,0.812988,-0.300293,1.19629,15.9375,12.125,24.625,-0.487996,-0.316465,2.32189
2697,-8,-6,-10,-3,0,0,-2,-7,0.812988,-0.300293,1.19629,15.9375,12.125,24.625,-0.487996,-0.316465,2.32189
2698,1,19,3,2,2,-2,-6,-8,-0.182129,-0.518555,0.564453,15.0625,16.0625,27,-0.489387,-0.297615,2.32924
2698,0,52,8,0,-3,-2,4,-1,-0.182129,-0.518555,0.564453,15.0625,16.0625,27,-0.489387,-0.297615,2.32924
2702,-3,17,-3,-3,-3,1,-4,-4,-0.182129,-0.518555,0.564453,15.0625,16.0625,27,-0.489387,-0.297615,2.32924
2702,0,14,-4,-3,-4,0,-6,-4,-0.182129,-0.518555,0.564453,15.0625,16.0625,27,-0.489387,-0.297615,2.32924
2712,2,14,5,2,-1,-3,3,14,0.272461,-0.287109,0.89502,6.4375,2,21.375,-0.484887,-0.29324,2.33454
2712,-1,-2,0,0,-1,-3,-5,-3,0.272461,-0.287109,0.89502,6.4375,2,21.375,-0.484887,-0.29324,2.33454
2726,4,-8,-4,-2,0,-3,3,4,0.272461,-0.287109,0.89502,6.4375,2,21.375,-0.484887,-0.29324,2.33454
2726,13,-15,-17,-3,-5,-1,-2,-2,0.272461,-0.287109,0.89502,6.4375,2,21.375,-0.484887,-0.29324,2.33454
2733,-10,-11,9,2,-2,-7,-1,-9,0.213867,-0.383789,0.819824,7.9375,-3,13,-0.482413,-0.290751,2.33901
2733,-2,-8,-3,1,-2,-5,-3,-2,0.213867,-0.383789,0.819824,7.9375,-3,13,-0.482413,-0.290751,2.33901
2749,6,15,6,4,-4,-3,5,6,0.213867,-0.383789,0.819824,7.9375,-3,13,-0.482413,-0.290751,2.33901
2749,-9,-40,-27,-9,-2,5,-1,-1,0.213867,-0.383789,0.819824,7.9375,-3,13,-0.482413,-0.290751,2.33901
2751,0,-16,-6,2,2,2,-5,-4,0.237305,-0.454102,0.833008,10.1875,-7.25,15.5,-0.48098,-0.289424,2.34535
2751,-2,6,3,1,2,-2,-4,-4,0.237305,-0.454102,0.833008,10.1875,-7.25,15.5,-0.48098,-0.289424,2.34535
2763,3,1,-4,6,4,0,6,6,0.237305,-0.454102,0.833008,10.1875,-7.25,15.5,-0.48098,-0.289424,2.34535
2763,-4,14,2,-2,-6,-7,-8,-1,0.237305,-0.454102,0.833008,10.1875,-7.25,15.5,-0.48098,-0.289424,2.34535
2772,1,2,1,-4,-3,-2,1,0,0.294922,-0.484863,0.845215,20.8125,-2.5625,18,-0.476607,-0.287395,2.35191
2772,-11,-28,-15,-7,-3,-2,-2,-7,0.294922,-0.484863,0.845215,20.8125,-2.5625,18,-0.476607,-0.287395,2.35191
2786,0,21,4,-2,-3,-2,3,12,0.294922,-0.484863,0.845215,20.8125,-2.5625,18,-0.476607,-0.287395,2.35191
2786,-1,3,6,4,0,-3,-1,-14,0.294922,-0.484863,0.845215,20.8125,-2.5625,18,-0.476607,-0.287395,2.35191
2792,-4,-14,0,-3,1,2,-8,-3,0.341309,-0.523438,0.850098,29.25,4.6875,20.1875,-0.470122,-0.283961,2.35832
2792,0,-12,1,1,-1,3,15,-13,0.341309,-0.523438,0.850098,29.25,4.6875,20.1875,-0.470122,-0.283961,2.35832
2817,-8,-11,-4,-6,-4,-3,-12,1,0.341309,-0.523438,0.850098,29.25,4.6875,20.1875,-0.470122,-0.283961,2.35832
2817,-2,-9,4,1,1,2,4,9,0.341309,-0.523438,0.850098,29.25,4.6875,20.1875,-0.470122,-0.283961,2.35832
2818,5,3,-3,0,0,1,0,2,0.307617,-0.44043,0.856934,30.75,9,26,-0.461684,-0.277819,2.36535
2818,4,-6,6,1,1,0,0,-6,0.307617,-0.44043,0.856934,30.75,9,26,-0.461684,-0.277819,2.36535
2849,-5,-18,0,-3,1,1,-3,-10,0.307617,-0.44043,0.856934,30.75,9,26,-0.461684,-0.277819,2.36535
2849,1,14,0,0,-3,-1,4,4,0.307617,-0.44043,0.856934,30.75,9,26,-0.461684,-0.277819,2.36535
2850,1,-15,35,-2,-3,1,3,-1,0.22168,-0.357422,0.830566,19.5625,7.1875,28.8125,-0.455814,-0.270442,2.37325
2850,-4,91,5,-1,2,-1,-5,2,0.22168,-0.357422,0.830566,19.5625,7.1875,28.8125,-0.455814,-0.270442,2.37325
2851,-5,10,28,10,9,0,1,-2,0.22168,-0.357422,0.830566,19.5625,7.1875,28.8125,-0.455814,-0.270442,2.37325
2851,-24,-10,10,-1,-1,-1,-10,-5,0.22168,-0.357422,0.830566,19.5625,7.1875,28.8125,-0.455814,-0.270442,2.37325
2854,3,4,3,-12,-13,-5,3,-1,0.200195,-0.381836,0.855957,9.0625,4.3125,27.125,-0.454017,-0.263693,2.38119
2854,12,-9,8,-9,-8,-1,-3,7,0.200195,-0.381836,0.855957,9.0625,4.3125,27.125,-0.454017,-0.263693,2.38119
2869,4,32,23,10,3,-2,1,-1,0.200195,-0.381836,0.855957,9.0625,4.3125,27.125,-0.454017,-0.263693,2.38119
2869,7,-35,16,9,8,-1,-4,-3,0.200195,-0.381836,0.855957,9.0625,4.3125,27.125,-0.454017,-0.263693,2.38119
2871,-4,-7,-14,9,12,3,-3,-4,0.265625,-0.504883,0.854004,12.625,4.4375,28.25,-0.453831,-0.258132,2.39023
2871,-4,0,9,4,1,-1,0,2,0.265625,-0.504883,0.854004,12.625,4.4375,28.25,-0.453831,-0.258132,2.39023
2892,4,-67,-26,-6,-13,-1,1,2,0.265625,-0.504883,0.854004,12.625,4.4375,28.25,-0.453831,-0.258132,2.39023
2892,2,-38,-45,-10,-10,-2,-3,1,0.265625,-0.504883,0.854004,12.625,4.4375,28.25,-0.453831,-0.258132,2.39023
2893,1,-33,44,6,1,0,4,5,0.322266,-0.494141,0.855957,26.5625,12.625,31.1875,-0.448415,-0.250944,2.39881
2893,0,-15,-89,-20,-9,-1,-5,-1,0.322266,-0.494141,0.855957,26.5625,12.625,31.1875,-0.448415,-0.250944,2.39881
2906,2,-16,72,5,4,4,4,3,0.322266,-0.494141,0.855957,26.5625,12.625,31.1875,-0.448415,-0.250944,2.39881
2906,-14,98,14,-20,-20,-10,-9,-9,0.322266,-0.494141,0.855957,26.5625,12.625,31.1875,-0.448415,-0.250944,2.39881
2913,-11,-54,-74,-15,5,10,5,1,0.259277,-0.384766,0.867188,24.75,23.0625,40.125,-0.441426,-0.238322,2.40812
2913,-29,-33,-43,-20,-8,-4,-13,-19,0.259277,-0.384766,0.867188,24.75,23.0625,40.125,-0.441426,-0.238322,2.40812
2929,-8,-5,-51,12,-1,3,-3,-7,0.259277,-0.384766,0.867188,24.75,23.0625,40.125,-0.441426,-0.238322,2.40812
2929,3,-21,-18,11,5,1,5,6,0.259277,-0.384766,0.867188,24.75,23.0625,40.125,-0.441426,-0.238322,2.40812
2931,2,55,27,0,0,-7,-1,2,0.174805,-0.40332,0.920898,22.0625,21.125,47,-0.435996,-0.223399,2.41998
2931,20,28,6,23,16,1,1,11,0.174805,-0.40332,0.920898,22.0625,21.125,47,-0.435996,-0.223399,2.41998
2951,-14,37,-31,-27,-32,-12,-9,-12,0.174805,-0.40332,0.920898,22.0625,21.125,47,-0.435996,-0.223399,2.41998
2951,15,44,45,-12,30,19,9,4,0.174805,-0.40332,0.920898,22.0625,21.125,47,-0.435996,-0.223399,2.41998
2953,16,-14,-68,37,24,2,2,1,0.187012,-0.446777,0.86377,17.625,24.625,47.375,-0.433271,-0.208193,2.43188
2953,9,-2,9,33,12,2,2,4,0.187012,-0.446777,0.86377,17.625,24.625,47.375,-0.433271,-0.208193,2.43188
2974,35,46,21,18,6,-2,6,10,0.187012,-0.446777,0.86377,17.625,24.625,47.375,-0.433271,-0.208193,2.43188
2974,-15,38,-20,-15,-27,-7,-11,-6,0.187012,-0.446777,0.86377,17.625,24.625,47.375,-0.433271,-0.208193,2.43188
2976,-26,40,30,-37,-27,-8,-8,-6,0.200195,-0.422363,0.908203,30.125,37.625,57.5625,-0.425683,-0.18817,2.445
2976,-5,-38,18,-28,-22,-8,-4,-4,0.200195,-0.422363,0.908203,30.125,37.625,57.5625,-0.425683,-0.18817,2.445
2989,22,-90,-7,-9,-4,1,1,2,0.200195,-0.422363,0.908203,30.125,37.625,57.5625,-0.425683,-0.18817,2.445
2989,20,-12,-13,9,8,-4,1,-1,0.200195,-0.422363,0.908203,30.125,37.625,57.5625,-0.425683,-0.18817,2.445
2990,-2,40,2,4,11,3,3,1,0.090332,-0.416992,0.837891,36.5625,32.0625,53.6875,-0.416173,-0.168612,2.45786
2990,0,73,30,18,2,1,3,6,0.090332,-0.416992,0.837891,36.5625,32.0625,53.6875,-0.416173,-0.168612,2.45786
3011,-25,3,-13,-17,-11,-3,-2,-3,0.090332,-0.416992,0.837891,36.5625,32.0625,53.6875,-0.416173,-0.168612,2.45786
3011,-34,-43,-26,-12,7,2,-2,-3,0.090332,-0.416992,0.837891,36.5625,32.0625,53.6875,-0.416173,-0.168612,2.45786
3019,-19,21,-3,27,8,2,-2,-2,0.0991211,-0.283691,0.850586,46.1875,25.4375,39.5,-0.399705,-0.153991,2.46682
3019,-34,-15,3,17,10,1,4,4,0.0991211,-0.283691,0.850586,46.1875,25.4375,39.5,-0.399705,-0.153991,2.46682
3026,-13,97,57,1,5,5,-1,0,0.0991211,-0.283691,0.850586,46.1875,25.4375,39.5,-0.399705,-0.153991,2.46682
3026,-15,4,16,0,-14,-8,-3,-2,0.0991211,-0.283691,0.850586,46.1875,25.4375,39.5,-0.399705,-0.153991,2.46682
3034,8,48,-4,-31,-29,-11,-8,-8,0.130859,-0.176758,0.898438,49.875,25.3125,29.6875,-0.37912,-0.141839,2.47261
3034,32,-65,18,-11,1,0,-4,-5,0.130859,-0.176758,0.898438,49.875,25.3125,29.6875,-0.37912,-0.141839,2.47261
3049,8,-19,-27,29,21,-1,3,0,0.130859,-0.176758,0.898438,49.875,25.3125,29.6875,-0.37912,-0.141839,2.47261
3049,22,-1,18,20,9,0,2,10,0.130859,-0.176758,0.898438,49.875,25.3125,29.6875,-0.37912,-0.141839,2.47261
3051,8,-6,24,-8,-8,-4,-2,2,0.0732422,-0.168457,0.911621,25,26.8125,21.625,-0.366666,-0.12926,2.47565
3051,-5,-11,-11,-21,-17,-7,-2,-3,0.0732422,-0.168457,0.911621,25,26.8125,21.625,-0.366666,-0.12926,2.47565
3072,0,6,-5,-14,-4,-7,-4,-4,0.0732422,-0.168457,0.911621,25,26.8125,21.625,-0.366666,-0.12926,2.47565
3072,3,-3,18,2,-1,-3,-4,-2,0.0732422,-0.168457,0.911621,25,26.8125,21.625,-0.366666,-0.12926,2.47565
3073,0,-32,-23,8,8,0,2,1,0.012207,-0.256348,0.911133,-5.3125,27.875,22.4375,-0.366785,-0.115063,2.47924
3073,17,40,23,17,11,3,2,6,0.012207,-0.256348,0.911133,-5.3125,27.875,22.4375,-0.366785,-0.115063,2.47924
3094,-13,-69,-54,-9,-2,-3,-3,-7,0.012207,-0.256348,0.911133,-5.3125,27.875,22.4375,-0.366785,-0.115063,2.47924
3094,13,-4,-18,-3,-4,-3,2,3,0.012207,-0.256348,0.911133,-5.3125,27.875,22.4375,-0.366785,-0.115063,2.47924
3095,-12,-31,5,-11,-10,-6,-3,-3,-0.00537109,-0.27002,0.919434,-13.4375,23.3125,15.0625,-0.369736,-0.10303,2.48102
3095,5,-68,-42,-22,-13,-5,-10,-10,-0.00537109,-0.27002,0.919434,-13.4375,23.3125,15.0625,-0.369736,-0.10303,2.48102
3109,3,10,4,-8,-4,-1,-2,-2,-0.00537109,-0.27002,0.919434,-13.4375,23.3125,15.0625,-0.369736,-0.10303,2.48102
3109,16,0,-7,7,8,1,0,4,-0.00537109,-0.27002,0.919434,-13.4375,23.3125,15.0625,-0.369736,-0.10303,2.48102
3111,-26,-24,-10,19,11,3,3,1,0.0527344,-0.314941,0.892578,4,19.75,-2.4375,-0.367297,-0.0959168,2.47763
3111,-10,46,34,6,2,-3,3,5,0.0527344,-0.314941,0.892578,4,19.75,-2.4375,-0.367297,-0.0959168,2.47763
3132,-19,-3,-17,-26,-15,-4,-6,-8,0.0527344,-0.314941,0.892578,4,19.75,-2.4375,-0.367297,-0.0959168,2.47763
3132,-7,-16,-4,-5,-8,1,-1,1,0.0527344,-0.314941,0.892578,4,19.75,-2.4375,-0.367297,-0.0959168,2.47763
3133,90,26,13,8,7,4,3,7,0.00195312,-0.317871,0.918457,30.125,21.75,-0.5,-0.35592,-0.08684,2.47473
3133,18,13,7,7,7,1,3,-2,0.00195312,-0.317871,0.918457,30.125,21.75,-0.5,-0.35592,-0.08684,2.47473
3154,-6,-22,-23,2,9,5,4,-8,0.00195312,-0.317871,0.918457,30.125,21.75,-0.5,-0.35592,-0.08684,2.47473
3154,-57,-73,-24,-13,-14,-8,-15,-23,0.00195312,-0.317871,0.918457,30.125,21.75,-0.5,-0.35592,-0.08684,2.47473
3156,-23,68,24,1,-3,0,0,0,-0.0117188,-0.137207,0.850586,1.6875,14,-4.0625,-0.351069,-0.0807747,2.47145
3156,-30,2,0,-8,-8,-3,-4,-2,-0.0117188,-0.137207,0.850586,1.6875,14,-4.0625,-0.351069,-0.0807747,2.47145
3184,30,50,12,4,5,3,5,14,-0.0117188,-0.137207,0.850586,1.6875,14,-4.0625,-0.351069,-0.0807747,2.47145
3184,-3,-27,-5,0,0,-2,1,0,-0.0117188,-0.137207,0.850586,1.6875,14,-4.0625,-0.351069,-0.0807747,2.47145
3186,1,1,9,6,0,-1,1,0,-0.00195312,-0.279785,0.845215,-19.6875,9.25,-10.8125,-0.356739,-0.0772811,2.46672
3186,-4,-31,-13,-16,-15,-7,-5,0,-0.00195312,-0.279785,0.845215,-19.6875,9.25,-10.8125,-0.356739,-0.0772811,2.46672
3191,-6,51,31,-6,-4,-2,0,2,-0.00195312,-0.279785,0.845215,-19.6875,9.25,-10.8125,-0.356739,-0.0772811,2.46672
3191,2,4,2,17,10,3,1,1,-0.00195312,-0.279785,0.845215,-19.6875,9.25,-10.8125,-0.356739,-0.0772811,2.46672
3193,0,-20,-12,7,6,1,-1,0,0.00634766,-0.439453,0.847656,-27.5,9.3125,-11.1875,-0.368506,-0.0741186,2.46212
3193,12,17,4,-6,-17,-3,1,6,0.00634766,-0.439453,0.847656,-27.5,9.3125,-11.1875,-0.368506,-0.0741186,2.46212
3205,-11,16,21,-20,-9,-5,-7,-15,0.00634766,-0.439453,0.847656,-27.5,9.3125,-11.1875,-0.368506,-0.0741186,2.46212
3205,-1,21,0,10,25,10,1,-3,0.00634766,-0.439453,0.847656,-27.5,9.3125,-11.1875,-0.368506,-0.0741186,2.46212
3214,9,-14,-7,25,15,6,2,3,0.00341797,-0.446289,0.859863,-9.8125,8.125,-14.9375,-0.374015,-0.0717282,2.45641
3214,-15,19,10,12,11,9,5,-7,0.00341797,-0.446289,0.859863,-9.8125,8.125,-14.9375,-0.374015,-0.0717282,2.45641
3229,12,-18,-5,-2,-15,-4,-4,-2,0.00341797,-0.446289,0.859863,-9.8125,8.125,-14.9375,-0.374015,-0.0717282,2.45641
3229,-7,9,-9,-26,-20,-9,-8,-10,0.00341797,-0.446289,0.859863,-9.8125,8.125,-14.9375,-0.374015,-0.0717282,2.45641
3231,-23,9,11,-18,-10,-6,-7,-12,0.0400391,-0.344727,0.858887,7.75,11,-18.75,-0.370933,-0.0698752,2.44887
3231,-1,0,-1,-3,0,-1,-2,5,0.0400391,-0.344727,0.858887,7.75,11,-18.75,-0.370933,-0.0698752,2.44887
3252,-2,-5,-6,7,4,3,3,7,0.0400391,-0.344727,0.858887,7.75,11,-18.75,-0.370933,-0.0698752,2.44887
3252,28,35,22,14,7,3,9,15,0.0400391,-0.344727,0.858887,7.75,11,-18.75,-0.370933,-0.0698752,2.44887
3253,-1,-24,-3,-24,-19,-4,-3,0,0.0766602,-0.287598,0.848145,-5.375,12.375,-14.3125,-0.37141,-0.0680147,2.44255
3253,-10,-21,-18,-20,-13,-2,-3,-7,0.0766602,-0.287598,0.848145,-5.375,12.375,-14.3125,-0.37141,-0.0680147,2.44255
3266,5,29,7,24,28,9,6,0,0.0766602,-0.287598,0.848145,-5.375,12.375,-14.3125,-0.37141,-0.0680147,2.44255
3266,20,-42,-14,31,13,1,7,22,0.0766602,-0.287598,0.848145,-5.375,12.375,-14.3125,-0.37141,-0.0680147,2.44255
3282,-3,-49,35,-32,-16,-10,-13,-10,0.090332,-0.237793,0.858398,-35.5,13.1875,-14.25,-0.380997,-0.0664075,2.43615
3282,12,110,12,28,22,3,0,-24,0.090332,-0.237793,0.858398,-35.5,13.1875,-14.25,-0.380997,-0.0664075,2.43615
3289,-43,-91,-49,12,-1,-6,-7,-6,0.090332,-0.237793,0.858398,-35.5,13.1875,-14.25,-0.380997,-0.0664075,2.43615
3289,27,72,14,4,-2,3,9,14,0.090332,-0.237793,0.858398,-35.5,13.1875,-14.25,-0.380997,-0.0664075,2.43615
3290,-5,18,4,-16,-12,-7,-1,-1,0.0810547,-0.422852,0.922363,-35.6875,6.3125,-5.25,-0.394107,-0.0653432,2.43367
3290,-15,-115,-25,-20,-9,-6,-10,1,0.0810547,-0.422852,0.922363,-35.6875,6.3125,-5.25,-0.394107,-0.0653432,2.43367
3312,-3,10,-5,-11,-7,-8,-8,-7,0.0810547,-0.422852,0.922363,-35.6875,6.3125,-5.25,-0.394107,-0.0653432,2.43367
3312,5,17,25,-16,-18,-9,-4,-4,0.0810547,-0.422852,0.922363,-35.6875,6.3125,-5.25,-0.394107,-0.0653432,2.43367
3314,-4,0,-20,-16,-7,1,4,5,0.0654297,-0.522461,0.825684,-32.25,1.5625,0,-0.409068,-0.064873,2.43361
3314,3,-15,-7,19,16,12,12,13,0.0654297,-0.522461,0.825684,-32.25,1.5625,0,-0.409068,-0.064873,2.43361
3326,22,6,9,31,21,7,15,19,0.0654297,-0.522461,0.825684,-32.25,1.5625,0,-0.409068,-0.064873,2.43361
3326,-14,-29,-13,-11,-8,-10,-23,-34,0.0654297,-0.522461,0.825684,-32.25,1.5625,0,-0.409068,-0.064873,2.43361
3342,-32,11,-10,-6,-6,-4,-8,-18,0.0874023,-0.521973,0.860352,9.8125,0.5625,-5.0625,-0.408875,-0.0659078,2.43216
3342,6,30,15,2,-1,-1,0,4,0.0874023,-0.521973,0.860352,9.8125,0.5625,-5.0625,-0.408875,-0.0659078,2.43216
3349,-11,-11,-1,-20,-15,-3,-2,-3,0.0874023,-0.521973,0.860352,9.8125,0.5625,-5.0625,-0.408875,-0.0659078,2.43216
3349,15,-14,3,-13,-1,5,6,10,0.0874023,-0.521973,0.860352,9.8125,0.5625,-5.0625,-0.408875,-0.0659078,2.43216
3351,-12,-13,-2,20,16,7,1,-2,0.097168,-0.374512,0.85498,24.5625,3,-1.0625,-0.400502,-0.0659759,2.43141
3351,7,14,4,6,6,3,-1,5,0.097168,-0.374512,0.85498,24.5625,3,-1.0625,-0.400502,-0.0659759,2.43141
3372,18,13,9,-3,0,2,5,15,0.097168,-0.374512,0.85498,24.5625,3,-1.0625,-0.400502,-0.0659759,2.43141
3372,-11,17,-5,-7,-6,-2,-3,-19,0.097168,-0.374512,0.85498,24.5625,3,-1.0625,-0.400502,-0.0659759,2.43141
3373,-1,3,-19,6,-1,0,-3,-2,0.0717773,-0.26416,0.888672,6.75,2.6875,2.5625,-0.395754,-0.0650346,2.43177
3373,-17,21,25,-16,-11,-6,-4,1,0.0717773,-0.26416,0.888672,6.75,2.6875,2.5625,-0.395754,-0.0650346,2.43177
3385,-2,-64,-13,2,7,-1,1,-1,0.0717773,-0.26416,0.888672,6.75,2.6875,2.5625,-0.395754,-0.0650346,2.43177
3385,5,70,-9,3,-4,2,1,6,0.0717773,-0.26416,0.888672,6.75,2.6875,2.5625,-0.395754,-0.0650346,2.43177
3402,15,7,-7,-7,-8,-5,3,11,0.0742188,-0.370605,0.897461,-9.625,1.25,6.8125,-0.398983,-0.0639836,2.43368
3402,-5,-16,-9,-3,-2,0,0,-29,0.0742188,-0.370605,0.897461,-9.625,1.25,6.8125,-0.398983,-0.0639836,2.43368
3409,4,6,9,17,18,-1,-9,-4,0.0742188,-0.370605,0.897461,-9.625,1.25,6.8125,-0.398983,-0.0639836,2.43368
3409,-10,-11,15,14,10,0,-1,-9,0.0742188,-0.370605,0.897461,-9.625,1.25,6.8125,-0.398983,-0.0639836,2.43368
3411,21,0,-4,7,1,2,4,21,0.0688477,-0.441895,0.914062,1.8125,3.625,7.8125,-0.399772,-0.0619646,2.43587
3411,8,0,-5,-13,-13,-6,-1,3,0.0688477,-0.441895,0.914062,1.8125,3.625,7.8125,-0.399772,-0.0619646,2.43587
3431,-28,5,2,-20,-17,-6,-9,-32,0.0688477,-0.441895,0.914062,1.8125,3.625,7.8125,-0.399772,-0.0619646,2.43587
3431,-15,-27,-13,-4,-4,-3,-1,-4,0.0688477,-0.441895,0.914062,1.8125,3.625,7.8125,-0.399772,-0.0619646,2.43587
3433,7,31,14,-2,0,0,2,9,0.0766602,-0.367188,0.917969,14.8125,8.5625,6.5,-0.394236,-0.0587676,2.43682
3433,10,-25,2,10,12,6,5,8,0.0766602,-0.367188,0.917969,14.8125,8.5625,6.5,-0.394236,-0.0587676,2.43682
3446,-1,-3,-18,-4,-6,-3,-3,-1,0.0766602,-0.367188,0.917969,14.8125,8.5625,6.5,-0.394236,-0.0587676,2.43682
3446,-4,10,6,-5,-2,0,-2,4,0.0766602,-0.367188,0.917969,14.8125,8.5625,6.5,-0.394236,-0.0587676,2.43682
3462,-1,-20,-16,0,-2,-2,2,-6,0.0537109,-0.272461,0.910156,11.5625,11.75,10.5625,-0.38805,-0.0536034,2.43848
3462,2,10,2,-5,-3,-3,-2,4,0.0537109,-0.272461,0.910156,11.5625,11.75,10.5625,-0.38805,-0.0536034,2.43848
3469,-2,-2,-4,-11,-5,-1,-1,-1,0.0537109,-0.272461,0.910156,11.5625,11.75,10.5625,-0.38805,-0.0536034,2.43848
3469,1,17,0,3,2,1,0,7,0.0537109,-0.272461,0.910156,11.5625,11.75,10.5625,-0.38805,-0.0536034,2.43848
3470,5,31,14,12,6,1,-1,-7,0.0229492,-0.289551,0.896484,-6.875,12.1875,12.9375,-0.388853,-0.0474213,2.44107
3470,-6,-25,-7,7,3,-3,-2,-4,0.0229492,-0.289551,0.896484,-6.875,12.1875,12.9375,-0.388853,-0.0474213,2.44107
3491,-8,-22,-6,-2,-6,-2,-2,0,0.00537109,-0.334473,0.901855,-12.625,12,13.75,-0.392501,-0.0409199,2.4438
3491,4,9,11,-3,-2,-3,1,3,0.00537109,-0.334473,0.901855,-12.625,12,13.75,-0.392501,-0.0409199,2.4438
3492,-1,-15,-13,-12,-11,-2,-2,-3,0.00537109,-0.334473,0.901855,-12.625,12,13.75,-0.392501,-0.0409199,2.4438
3492,3,9,0,-7,-5,-2,-1,11,0.00537109,-0.334473,0.901855,-12.625,12,13.75,-0.392501,-0.0409199,2.4438
3514,20,31,28,15,10,3,3,1,0.015625,-0.38916,0.902832,-6,10,7.375,-0.394839,-0.0361277,2.44491
3514,-9,-13,-11,10,3,0,-3,-12,0.015625,-0.38916,0.902832,-6,10,7.375,-0.394839,-0.0361277,2.44491
3515,0,71,48,8,6,3,6,6,0.015625,-0.38916,0.902832,-6,10,7.375,-0.394839,-0.0361277,2.44491
3515,4,-42,-37,-13,-10,-3,-1,10,0.015625,-0.38916,0.902832,-6,10,7.375,-0.394839,-0.0361277,2.44491
3528,-6,31,-3,-2,-1,3,-2,-14,0.0195312,-0.357422,0.898438,3.4375,10.75,5.0625,-0.393253,-0.0316773,2.44508
3528,-37,-1,-3,-4,-4,-11,-22,-44,0.0195312,-0.357422,0.898438,3.4375,10.75,5.0625,-0.393253,-0.0316773,2.44508
3529,21,30,19,7,5,0,1,4,0.0195312,-0.357422,0.898438,3.4375,10.75,5.0625,-0.393253,-0.0316773,2.44508
3529,-2,0,12,-1,1,-4,-1,1,0.0195312,-0.357422,0.898438,3.4375,10.75,5.0625,-0.393253,-0.0316773,2.44508
3551,-11,-6,-22,-8,-9,-3,2,17,0.0444336,-0.322266,0.882324,1.625,13.6875,4.375,-0.391695,-0.0272196,2.44467
3551,21,-14,4,-3,1,2,8,18,0.0444336,-0.322266,0.882324,1.625,13.6875,4.375,-0.391695,-0.0272196,2.44467
3551,-19,-5,-19,-4,-4,-3,-5,-19,0.0444336,-0.322266,0.882324,1.625,13.6875,4.375,-0.391695,-0.0272196,2.44467
3551,0,-38,17,-6,-3,-2,-4,4,0.0444336,-0.322266,0.882324,1.625,13.6875,4.375,-0.391695,-0.0272196,2.44467
3573,22,12,-9,4,1,2,2,6,0.0234375,-0.349121,0.881836,-6.625,13.6875,4.75,-0.393659,-0.0221823,2.44433
3573,-13,-11,6,0,1,5,8,16,0.0234375,-0.349121,0.881836,-6.625,13.6875,4.75,-0.393659,-0.0221823,2.44433
3574,-6,-25,-14,5,1,-2,-2,-6,0.0234375,-0.349121,0.881836,-6.625,13.6875,4.75,-0.393659,-0.0221823,2.44433
3574,-5,7,-6,6,2,-2,-8,-9,0.0234375,-0.349121,0.881836,-6.625,13.6875,4.75,-0.393659,-0.0221823,2.44433
3589,-5,12,7,-5,-7,-6,-7,-12,0.0136719,-0.390137,0.887207,-5.9375,12.125,4.1875,-0.39615,-0.0175764,2.44414
3589,6,0,7,-14,-11,-5,-1,9,0.0136719,-0.390137,0.887207,-5.9375,12.125,4.1875,-0.39615,-0.0175764,2.44414
3590,4,-11,-22,-3,-5,-2,4,10,0.0136719,-0.390137,0.887207,-5.9375,12.125,4.1875,-0.39615,-0.0175764,2.44414
3590,-3,24,3,12,8,2,0,-7,0.0136719,-0.390137,0.887207,-5.9375,12.125,4.1875,-0.39615,-0.0175764,2.44414
3619,-1,-1,17,12,9,0,1,1,0.00830078,-0.363281,0.884277,1.9375,10.6875,1.4375,-0.395304,-0.0139033,2.44312
3619,4,-2,-12,-2,1,3,3,5,0.00830078,-0.363281,0.884277,1.9375,10.6875,1.4375,-0.395304,-0.0139033,2.44312
3620,-1,11,9,2,1,0,-1,-3,0.00830078,-0.363281,0.884277,1.9375,10.6875,1.4375,-0.395304,-0.0139033,2.44312
3620,2,-9,-19,-6,-7,-1,1,-3,0.00830078,-0.363281,0.884277,1.9375,10.6875,1.4375,-0.395304,-0.0139033,2.44312
3634,-3,-3,-1,-17,-13,-5,-4,-2,0.0102539,-0.324219,0.899414,1.5625,11.0625,0.5,-0.393544,-0.0102113,2.4418
3634,6,30,13,-1,-1,1,-1,0,0.0102539,-0.324219,0.899414,1.5625,11.0625,0.5,-0.393544,-0.0102113,2.4418
3634,-14,-20,-12,4,4,1,-4,-7,0.0102539,-0.324219,0.899414,1.5625,11.0625,0.5,-0.393544,-0.0102113,2.4418
3634,3,30,16,10,5,2,1,3,0.0102539,-0.324219,0.899414,1.5625,11.0625,0.5,-0.393544,-0.0102113,2.4418
3650,-8,-16,-7,0,1,2,3,5,-0.0195312,-0.372559,0.883789,-4.5625,9.0625,3.625,-0.395253,-0.00620812,2.44173
3650,2,-9,-7,-5,-6,-3,0,2,-0.0195312,-0.372559,0.883789,-4.5625,9.0625,3.625,-0.395253,-0.00620812,2.44173
3650,11,-12,2,-5,-3,-1,-5,-2,-0.0195312,-0.372559,0.883789,-4.5625,9.0625,3.625,-0.395253,-0.00620812,2.44173
3650,-5,12,-5,-3,-3,-1,-6,-16,-0.0195312,-0.372559,0.883789,-4.5625,9.0625,3.625,-0.395253,-0.00620812,2.44173
3680,3,-8,-3,-4,-3,1,-2,0,-0.0507812,-0.39502,0.87207,-7.75,7.25,6.3125,-0.398582,-0.00164904,2.44279
3680,8,1,1,-5,-5,-3,-3,-5,-0.0507812,-0.39502,0.87207,-7.75,7.25,6.3125,-0.398582,-0.00164904,2.44279
3680,-12,-15,-9,-2,3,1,2,-1,-0.0507812,-0.39502,0.87207,-7.75,7.25,6.3125,-0.398582,-0.00164904,2.44279
3680,-2,-2,-6,0,3,-2,0,3,-0.0507812,-0.39502,0.87207,-7.75,7.25,6.3125,-0.398582,-0.00164904,2.44279
3693,-4,5,-14,4,0,1,-5,-3,-0.0239258,-0.378418,0.870605,-3.625,6.375,3.625,-0.400077,0.00144547,2.44308
3693,4,-10,13,-1,2,2,0,3,-0.0239258,-0.378418,0.870605,-3.625,6.375,3.625,-0.400077,0.00144547,2.44308
3694,-3,-3,0,-5,0,-1,-1,0,-0.0239258,-0.378418,0.870605,-3.625,6.375,3.625,-0.400077,0.00144547,2.44308
3694,-14,3,-10,-3,-3,-4,0,-3,-0.0239258,-0.378418,0.870605,-3.625,6.375,3.625,-0.400077,0.00144547,2.44308
3709,2,-4,0,-6,-6,-3,1,2,-0.0244141,-0.355469,0.869629,-4.75,7.5,1.3125,-0.401345,0.00444557,2.44249
3709,2,-2,-6,5,6,2,3,8,-0.0244141,-0.355469,0.869629,-4.75,7.5,1.3125,-0.401345,0.00444557,2.44249
3710,5,-8,-2,2,3,1,-3,-2,-0.0244141,-0.355469,0.869629,-4.75,7.5,1.3125,-0.401345,0.00444557,2.44249
3710,-9,4,-1,-1,-3,-1,-3,-9,-0.0244141,-0.355469,0.869629,-4.75,7.5,1.3125,-0.401345,0.00444557,2.44249
3731,1,11,10,-3,-2,-2,2,4,-0.0180664,-0.369141,0.865723,-13.4375,7.5,1.375,-0.405928,0.00743532,2.44192
3731,-7,7,-4,-5,-5,-4,-1,-1,-0.0180664,-0.369141,0.865723,-13.4375,7.5,1.375,-0.405928,0.00743532,2.44192
3731,0,7,-5,-15,-13,-4,-1,0,-0.0180664,-0.369141,0.865723,-13.4375,7.5,1.375,-0.405928,0.00743532,2.44192
3731,14,51,23,3,5,5,1,-2,-0.0180664,-0.369141,0.865723,-13.4375,7.5,1.375,-0.405928,0.00743532,2.44192
3753,0,-4,-11,4,6,1,-3,-2,-0.00634766,-0.371582,0.897461,-12.9375,7,0.8125,-0.409989,0.0096487,2.44116
3753,-5,-12,-3,10,5,-2,-1,-3,-0.00634766,-0.371582,0.897461,-12.9375,7,0.8125,-0.409989,0.0096487,2.44116
3754,0,-6,-7,-1,-5,-4,-4,1,-0.00634766,-0.371582,0.897461,-12.9375,7,0.8125,-0.409989,0.0096487,2.44116
3754,1,9,-2,-3,-4,-3,-2,1,-0.00634766,-0.371582,0.897461,-12.9375,7,0.8125,-0.409989,0.0096487,2.44116
3769,1,16,6,1,6,2,3,-3,-0.019043,-0.433105,0.88623,0.25,4.0625,-1.625,-0.410937,0.0109458,2.4401
3769,-3,-2,9,-4,-3,-2,-3,-4,-0.019043,-0.433105,0.88623,0.25,4.0625,-1.625,-0.410937,0.0109458,2.4401
3769,-2,3,0,-1,-3,-2,-2,-2,-0.019043,-0.433105,0.88623,0.25,4.0625,-1.625,-0.410937,0.0109458,2.4401
3769,-1,-13,1,-8,-10,-6,-2,3,-0.019043,-0.433105,0.88623,0.25,4.0625,-1.625,-0.410937,0.0109458,2.4401
3791,-5,-8,7,-7,-4,-2,0,0,-0.0102539,-0.396973,0.871582,3.4375,6.1875,1.3125,-0.410183,0.0131075,2.43959
3791,-5,0,-10,1,4,3,1,-2,-0.0102539,-0.396973,0.871582,3.4375,6.1875,1.3125,-0.410183,0.0131075,2.43959
3792,-3,-12,-6,6,7,3,1,-1,-0.0102539,-0.396973,0.871582,3.4375,6.1875,1.3125,-0.410183,0.0131075,2.43959
3792,-1,-10,-5,2,3,2,1,2,-0.0102539,-0.396973,0.871582,3.4375,6.1875,1.3125,-0.410183,0.0131075,2.43959
3813,-6,-13,-2,-3,-3,-3,-4,-3,-0.0185547,-0.348633,0.888184,2.875,5.6875,2.875,-0.408368,0.0154124,2.43984
3813,1,-1,-11,-9,-10,-5,-3,-2,-0.0185547,-0.348633,0.888184,2.875,5.6875,2.875,-0.408368,0.0154124,2.43984
3814,-1,5,2,-7,-3,0,-1,-2,-0.0185547,-0.348633,0.888184,2.875,5.6875,2.875,-0.408368,0.0154124,2.43984
3814,1,5,6,8,9,3,0,1,-0.0185547,-0.348633,0.888184,2.875,5.6875,2.875,-0.408368,0.0154124,2.43984
3828,1,-5,-3,7,1,-1,2,3,-0.0214844,-0.367188,0.867676,-4.625,3.6875,4.4375,-0.409787,0.0173388,2.44073
3828,-3,0,3,1,-1,-1,-2,-6,-0.0214844,-0.367188,0.867676,-4.625,3.6875,4.4375,-0.409787,0.0173388,2.44073
3836,-4,-15,-3,-3,-7,-6,0,-3,-0.0214844,-0.367188,0.867676,-4.625,3.6875,4.4375,-0.409787,0.0173388,2.44073
3836,-3,-11,-2,-2,-3,0,-2,-4,-0.0214844,-0.367188,0.867676,-4.625,3.6875,4.4375,-0.409787,0.0173388,2.44073
3851,4,6,4,0,-1,-1,2,0,-0.00634766,-0.397949,0.883301,-9.25,3.375,4.25,-0.413129,0.0186979,2.44162
3851,-1,-1,-5,-2,-1,0,-1,-3,-0.00634766,-0.397949,0.883301,-9.25,3.375,4.25,-0.413129,0.0186979,2.44162
3852,-5,-11,-3,2,1,0,0,2,-0.00634766,-0.397949,0.883301,-9.25,3.375,4.25,-0.413129,0.0186979,2.44162
3852,-4,22,-3,-7,-4,-2,-4,0,-0.00634766,-0.397949,0.883301,-9.25,3.375,4.25,-0.413129,0.0186979,2.44162
3873,-2,-6,3,-2,-3,0,-1,-1,0.00683594,-0.392578,0.867188,-10.1875,4.3125,4.25,-0.416871,0.0200172,2.44237
3873,7,-1,-8,1,0,-2,0,2,0.00683594,-0.392578,0.867188,-10.1875,4.3125,4.25,-0.416871,0.0200172,2.44237
3874,8,5,16,2,1,1,-1,-3,0.00683594,-0.392578,0.867188,-10.1875,4.3125,4.25,-0.416871,0.0200172,2.44237
3874,-2,-26,-24,-2,1,0,0,-2,0.00683594,-0.392578,0.867188,-10.1875,4.3125,4.25,-0.416871,0.0200172,2.44237
3889,-1,0,-2,-5,-4,1,-4,-5,-0.0273438,-0.373047,0.869141,-4.5,1.5,4.875,-0.418068,0.0214444,2.44363
3889,-4,-52,-2,-3,1,-1,-1,1,-0.0273438,-0.373047,0.869141,-4.5,1.5,4.875,-0.418068,0.0214444,2.44363
3889,4,-2,-19,4,4,0,-3,-14,-0.0273438,-0.373047,0.869141,-4.5,1.5,4.875,-0.418068,0.0214444,2.44363
3889,-1,-8,2,-2,-2,-3,1,1,-0.0273438,-0.373047,0.869141,-4.5,1.5,4.875,-0.418068,0.0214444,2.44363
3911,4,-2,-2,-1,-4,-4,-1,-1,-0.0405273,-0.412598,0.854004,3,-1.6875,1.625,-0.41779,0.0215829,2.44446
3911,1,2,-5,0,1,4,5,5,-0.0405273,-0.412598,0.854004,3,-1.6875,1.625,-0.41779,0.0215829,2.44446
3911,9,12,9,-1,1,0,0,5,-0.0405273,-0.412598,0.854004,3,-1.6875,1.625,-0.41779,0.0215829,2.44446
3911,-1,-19,-4,-1,-4,-3,-5,-4,-0.0405273,-0.412598,0.854004,3,-1.6875,1.625,-0.41779,0.0215829,2.44446
3933,-22,15,-3,-9,-7,-7,-6,-9,-0.0498047,-0.40332,0.857422,8.625,-3.1875,0.8125,-0.415288,0.0214531,2.44524
3933,-11,8,8,0,1,0,-2,-3,-0.0498047,-0.40332,0.857422,8.625,-3.1875,0.8125,-0.415288,0.0214531,2.44524
3934,-11,-1,-5,6,6,5,3,2,-0.0498047,-0.40332,0.857422,8.625,-3.1875,0.8125,-0.415288,0.0214531,2.44524
3934,1,13,8,6,3,2,1,3,-0.0498047,-0.40332,0.857422,8.625,-3.1875,0.8125,-0.415288,0.0214531,2.44524
3957,10,0,1,-2,0,0,-1,4,-0.0625,-0.382324,0.866699,9.5625,-6.5625,-3.25,-0.411975,0.0199562,2.44507
3957,-2,7,2,-2,-5,-2,-1,-2,-0.0625,-0.382324,0.866699,9.5625,-6.5625,-3.25,-0.411975,0.0199562,2.44507
3958,3,3,1,-6,-3,-1,-1,1,-0.0625,-0.382324,0.866699,9.5625,-6.5625,-3.25,-0.411975,0.0199562,2.44507
3958,11,7,-5,1,-1,-1,1,-1,-0.0625,-0.382324,0.866699,9.5625,-6.5625,-3.25,-0.411975,0.0199562,2.44507
3971,14,19,-7,4,2,2,1,0,-0.0478516,-0.368652,0.861816,4.125,-6.1875,-3.5625,-0.410428,0.0182234,2.44489
3971,-2,-19,-7,0,-2,-1,-1,-1,-0.0478516,-0.368652,0.861816,4.125,-6.1875,-3.5625,-0.410428,0.0182234,2.44489
3971,-13,-58,-41,-11,-7,-6,-6,-6,-0.0478516,-0.368652,0.861816,4.125,-6.1875,-3.5625,-0.410428,0.0182234,2.44489
3971,-6,-26,6,-2,-2,-2,-1,0,-0.0478516,-0.368652,0.861816,4.125,-6.1875,-3.5625,-0.410428,0.0182234,2.44489
3994,-6,8,21,1,-1,-2,-1,3,-0.0444336,-0.376953,0.897461,2.6875,-7,-3.0625,-0.409192,0.0162796,2.44489
3994,-5,19,1,2,1,1,-1,-2,-0.0444336,-0.376953,0.897461,2.6875,-7,-3.0625,-0.409192,0.0162796,2.44489
3994,-3,13,2,0,-3,-2,-2,0,-0.0444336,-0.376953,0.897461,2.6875,-7,-3.0625,-0.409192,0.0162796,2.44489
3994,-2,-1,-1,-2,-1,-4,1,-1,-0.0444336,-0.376953,0.897461,2.6875,-7,-3.0625,-0.409192,0.0162796,2.44489
4017,3,-9,-8,-4,-2,-3,-1,2,-0.050293,-0.408691,0.864258,-1.6875,-9.9375,-4,-0.410515,0.0134184,2.4449
4017,6,4,2,0,1,-3,-1,0,-0.050293,-0.408691,0.864258,-1.6875,-9.9375,-4,-0.410515,0.0134184,2.4449
4017,3,1,6,-1,1,0,-1,-1,-0.050293,-0.408691,0.864258,-1.6875,-9.9375,-4,-0.410515,0.0134184,2.4449
4017,3,-1,-2,4,4,2,2,0,-0.050293,-0.408691,0.864258,-1.6875,-9.9375,-4,-0.410515,0.0134184,2.4449
4031,7,-2,0,0,3,2,2,-1,-0.0239258,-0.404785,0.879883,6,-9.4375,-5.1875,-0.408933,0.0100731,2.44457
4031,9,8,1,-1,-2,-3,-2,-1,-0.0239258,-0.404785,0.879883,6,-9.4375,-5.1875,-0.408933,0.0100731,2.44457
4031,0,4,6,1,0,0,-2,-1,-0.0239258,-0.404785,0.879883,6,-9.4375,-5.1875,-0.408933,0.0100731,2.44457
4031,-6,8,2,-4,-5,-1,-3,0,-0.0239258,-0.404785,0.879883,6,-9.4375,-5.1875,-0.408933,0.0100731,2.44457
4054,-10,-8,-3,-3,-3,-2,-2,2,0.00683594,-0.363281,0.885254,4.8125,-8,-5.0625,-0.406749,0.00650822,2.44403
4054,-7,8,1,-4,-1,0,-1,-4,0.00683594,-0.363281,0.885254,4.8125,-8,-5.0625,-0.406749,0.00650822,2.44403
4054,-4,8,6,1,2,-1,1,2,0.00683594,-0.363281,0.885254,4.8125,-8,-5.0625,-0.406749,0.00650822,2.44403
4054,-6,1,3,0,-1,-1,-3,0,0.00683594,-0.363281,0.885254,4.8125,-8,-5.0625,-0.406749,0.00650822,2.44403
4068,-11,-26,-19,-4,-4,0,-3,-5,0.0185547,-0.33252,0.887695,-4,-6.6875,-3.625,-0.407049,0.00331012,2.44383
4068,-6,0,1,-2,-3,-2,-3,-1,0.0185547,-0.33252,0.887695,-4,-6.6875,-3.625,-0.407049,0.00331012,2.44383
4069,-3,5,6,0,-2,-2,1,-1,0.0185547,-0.33252,0.887695,-4,-6.6875,-3.625,-0.407049,0.00331012,2.44383
4069,4,46,23,-1,-1,-2,1,2,0.0185547,-0.33252,0.887695,-4,-6.6875,-3.625,-0.407049,0.00331012,2.44383
4091,-11,-57,-23,-4,-2,-3,-5,-6,0.0078125,-0.367676,0.900879,-7.25,-6.4375,-1.875,-0.409047,0.000789985,2.44417
4091,-8,-21,-9,-4,-2,-2,-4,-3,0.0078125,-0.367676,0.900879,-7.25,-6.4375,-1.875,-0.409047,0.000789985,2.44417
4092,-3,5,23,2,1,0,0,1,0.0078125,-0.367676,0.900879,-7.25,-6.4375,-1.875,-0.409047,0.000789985,2.44417
4092,-5,-5,-58,-2,-1,0,-2,0,0.0078125,-0.367676,0.900879,-7.25,-6.4375,-1.875,-0.409047,0.000789985,2.44417
4113,3,9,19,1,0,-2,1,1,0.00146484,-0.390137,0.902344,4.125,-8.6875,0.3125,-0.407582,-0.00185876,2.44544
4113,-2,18,34,1,-3,-1,-1,-2,0.00146484,-0.390137,0.902344,4.125,-8.6875,0.3125,-0.407582,-0.00185876,2.44544
4114,3,11,-12,-4,-2,-2,-2,1,0.00146484,-0.390137,0.902344,4.125,-8.6875,0.3125,-0.407582,-0.00185876,2.44544
4114,18,1,15,16,10,4,6,8,0.00146484,-0.390137,0.902344,4.125,-8.6875,0.3125,-0.407582,-0.00185876,2.44544
4129,0,-24,-28,-5,-5,-4,-6,-9,-0.015625,-0.355469,0.874023,11.6875,-9.8125,-0.5625,-0.403181,-0.00465302,2.44667
4129,0,20,2,-5,-5,-3,-5,-5,-0.015625,-0.355469,0.874023,11.6875,-9.8125,-0.5625,-0.403181,-0.00465302,2.44667
4129,6,7,17,-3,-4,-1,-1,1,-0.015625,-0.355469,0.874023,11.6875,-9.8125,-0.5625,-0.403181,-0.00465302,2.44667
4129,-4,9,2,-7,-6,0,-2,-2,-0.015625,-0.355469,0.874023,11.6875,-9.8125,-0.5625,-0.403181,-0.00465302,2.44667
4151,9,37,9,8,5,4,4,8,-0.0449219,-0.364258,0.861328,17.8125,-13.8125,-1.375,-0.396974,-0.00793781,2.44808
4151,0,-48,-26,-1,-1,-3,1,1,-0.0449219,-0.364258,0.861328,17.8125,-13.8125,-1.375,-0.396974,-0.00793781,2.44808
4152,1,34,3,0,0,1,-1,-1,-0.0449219,-0.364258,0.861328,17.8125,-13.8125,-1.375,-0.396974,-0.00793781,2.44808
4152,-14,-69,-15,-1,-1,-2,-2,-4,-0.0449219,-0.364258,0.861328,17.8125,-13.8125,-1.375,-0.396974,-0.00793781,2.44808
4174,-6,3,6,-3,-3,-2,-1,-2,-0.0522461,-0.321777,0.850098,7.6875,-18.25,-2,-0.393609,-0.0125647,2.44996
4174,-2,8,-8,-3,-2,0,-1,-2,-0.0522461,-0.321777,0.850098,7.6875,-18.25,-2,-0.393609,-0.0125647,2.44996
4175,3,19,-7,2,1,1,3,2,-0.0522461,-0.321777,0.850098,7.6875,-18.25,-2,-0.393609,-0.0125647,2.44996
4175,-3,-40,-8,-5,-4,0,-2,-3,-0.0522461,-0.321777,0.850098,7.6875,-18.25,-2,-0.393609,-0.0125647,2.44996
4188,0,50,9,-2,-4,0,-4,-3,-0.0625,-0.328125,0.847656,1.0625,-22.4375,-2.875,-0.392656,-0.0181779,2.45187
4188,3,-6,17,3,1,0,-1,2,-0.0625,-0.328125,0.847656,1.0625,-22.4375,-2.875,-0.392656,-0.0181779,2.45187
4203,-7,1,-16,-1,-2,-5,-1,-2,-0.0625,-0.328125,0.847656,1.0625,-22.4375,-2.875,-0.392656,-0.0181779,2.45187
4203,3,-18,4,-4,-4,-2,-2,-4,-0.0625,-0.328125,0.847656,1.0625,-22.4375,-2.875,-0.392656,-0.0181779,2.45187
4211,-1,14,-7,1,2,0,2,0,-0.0737305,-0.351074,0.831543,-6.0625,-31.0625,-7.75,-0.394897,-0.0268324,2.45358
4211,2,-20,-8,2,2,2,1,1,-0.0737305,-0.351074,0.831543,-6.0625,-31.0625,-7.75,-0.394897,-0.0268324,2.45358
4212,-8,-4,-1,-2,-1,1,-2,-3,-0.0737305,-0.351074,0.831543,-6.0625,-31.0625,-7.75,-0.394897,-0.0268324,2.45358
4212,-7,-22,6,-6,-3,-1,-1,-1,-0.0737305,-0.351074,0.831543,-6.0625,-31.0625,-7.75,-0.394897,-0.0268324,2.45358
4234,7,22,7,3,0,0,1,3,-0.0693359,-0.375488,0.808105,-11.6875,-36.8125,-13.4375,-0.39978,-0.0379591,2.45431
4234,-6,33,-4,-2,-1,-3,1,-2,-0.0693359,-0.375488,0.808105,-11.6875,-36.8125,-13.4375,-0.39978,-0.0379591,2.45431
4235,-4,-21,-3,2,2,2,-1,-1,-0.0693359,-0.375488,0.808105,-11.6875,-36.8125,-13.4375,-0.39978,-0.0379591,2.45431
4235,-6,20,7,-2,-3,-3,-2,-4,-0.0693359,-0.375488,0.808105,-11.6875,-36.8125,-13.4375,-0.39978,-0.0379591,2.45431
4248,1,-1,0,1,1,1,1,1,-0.0493164,-0.382324,0.801758,-11.125,-42.4375,-18.875,-0.404586,-0.051761,2.45414
4248,4,-9,-7,0,-1,1,0,0,-0.0493164,-0.382324,0.801758,-11.125,-42.4375,-18.875,-0.404586,-0.051761,2.45414
4263,5,17,9,1,-1,1,0,0,-0.0493164,-0.382324,0.801758,-11.125,-42.4375,-18.875,-0.404586,-0.051761,2.45414
4263,-5,-11,-12,-5,-4,-2,-4,-3,-0.0493164,-0.382324,0.801758,-11.125,-42.4375,-18.875,-0.404586,-0.051761,2.45414
4271,-2,-21,3,-1,0,0,-1,-1,-0.00439453,-0.375977,0.811523,-13.4375,-46.3125,-22,-0.409753,-0.0680484,2.45352
4271,4,7,0,3,0,4,-2,0,-0.00439453,-0.375977,0.811523,-13.4375,-46.3125,-22,-0.409753,-0.0680484,2.45352
4271,-4,-9,-6,-3,0,1,-2,-3,-0.00439453,-0.375977,0.811523,-13.4375,-46.3125,-22,-0.409753,-0.0680484,2.45352
4271,3,25,9,0,0,-3,0,0,-0.00439453,-0.375977,0.811523,-13.4375,-46.3125,-22,-0.409753,-0.0680484,2.45352
4294,-5,-17,-3,-3,-2,-2,-2,-2,0.0493164,-0.374023,0.818359,-16.8125,-48.375,-23.4375,-0.415776,-0.086137,2.4528
4294,0,0,-3,-1,-1,-2,0,1,0.0493164,-0.374023,0.818359,-16.8125,-48.375,-23.4375,-0.415776,-0.086137,2.4528
4294,0,-12,-6,-1,-1,-1,0,1,0.0493164,-0.374023,0.818359,-16.8125,-48.375,-23.4375,-0.415776,-0.086137,2.4528
4294,2,25,5,0,0,-2,0,1,0.0493164,-0.374023,0.818359,-16.8125,-48.375,-23.4375,-0.415776,-0.086137,2.4528
4308,-4,-13,5,-1,-4,-4,0,-1,0.131836,-0.388184,0.8125,-18.0625,-47.9375,-23.625,-0.422536,-0.105723,2.45206
4308,3,-13,-9,-1,0,-3,1,-1,0.131836,-0.388184,0.8125,-18.0625,-47.9375,-23.625,-0.422536,-0.105723,2.45206
4316,1,-7,-1,0,-3,-4,-3,-2,0.131836,-0.388184,0.8125,-18.0625,-47.9375,-23.625,-0.422536,-0.105723,2.45206
4316,-4,5,-14,-1,-1,-1,0,-1,0.131836,-0.388184,0.8125,-18.0625,-47.9375,-23.625,-0.422536,-0.105723,2.45206
4331,4,32,18,4,4,1,3,2,0.13916,-0.365723,0.862305,-17,-51.9375,-28.125,-0.427684,-0.126642,2.45055
4331,-2,-21,5,-4,-3,0,-4,-5,0.13916,-0.365723,0.862305,-17,-51.9375,-28.125,-0.427684,-0.126642,2.45055
4332,1,-8,-6,-2,0,1,0,-1,0.13916,-0.365723,0.862305,-17,-51.9375,-28.125,-0.427684,-0.126642,2.45055
4332,-2,0,2,-1,-1,0,-2,1,0.13916,-0.365723,0.862305,-17,-51.9375,-28.125,-0.427684,-0.126642,2.45055
4362,-1,9,-4,-1,1,-1,0,3,0.0952148,-0.438477,0.887207,-13.8125,-48.3125,-25.5,-0.432846,-0.144562,2.44956
4362,-4,3,-2,-1,-2,-4,6,7,0.0952148,-0.438477,0.887207,-13.8125,-48.3125,-25.5,-0.432846,-0.144562,2.44956
4362,-2,-23,-1,-3,-3,-4,-15,-10,0.0952148,-0.438477,0.887207,-13.8125,-48.3125,-25.5,-0.432846,-0.144562,2.44956
4362,1,15,4,-4,-2,-3,8,-14,0.0952148,-0.438477,0.887207,-13.8125,-48.3125,-25.5,-0.432846,-0.144562,2.44956
4368,2,-14,-4,0,-1,-4,-15,-1,0.144531,-0.480469,0.876953,-18.8125,-47.0625,-12.75,-0.441426,-0.160894,2.45276
4368,0,13,2,-1,0,-2,-1,-5,0.144531,-0.480469,0.876953,-18.8125,-47.0625,-12.75,-0.441426,-0.160894,2.45276
4376,-4,-9,-5,-2,-1,-3,-7,2,0.144531,-0.480469,0.876953,-18.8125,-47.0625,-12.75,-0.441426,-0.160894,2.45276
4376,6,12,0,-2,1,-1,-6,5,0.144531,-0.480469,0.876953,-18.8125,-47.0625,-12.75,-0.441426,-0.160894,2.45276
4391,1,0,-2,0,-1,2,16,7,0.201172,-0.47168,0.868164,-13,-44,-6.75,-0.447889,-0.176294,2.45746
4391,5,0,-5,0,-2,-2,9,23,0.201172,-0.47168,0.868164,-13,-44,-6.75,-0.447889,-0.176294,2.45746
4392,2,13,2,1,-1,6,24,-11,0.201172,-0.47168,0.868164,-13,-44,-6.75,-0.447889,-0.176294,2.45746
4392,-1,7,4,0,-5,-4,-77,-55,0.201172,-0.47168,0.868164,-13,-44,-6.75,-0.447889,-0.176294,2.45746
4414,4,-11,-10,-5,-3,-4,-6,6,0.219727,-0.447266,0.84375,-5.4375,-41.6875,-4.875,-0.451463,-0.191008,2.46253
4414,-20,8,-3,0,2,0,2,-5,0.219727,-0.447266,0.84375,-5.4375,-41.6875,-4.875,-0.451463,-0.191008,2.46253
4414,1,-10,-3,-1,0,-2,4,23,0.219727,-0.447266,0.84375,-5.4375,-41.6875,-4.875,-0.451463,-0.191008,2.46253
4414,-7,-16,-5,-1,1,1,12,0,0.219727,-0.447266,0.84375,-5.4375,-41.6875,-4.875,-0.451463,-0.191008,2.46253
4428,-1,-30,-2,-1,-1,0,3,11,0.223145,-0.384766,0.84375,-4,-41.125,-8.3125,-0.453057,-0.205872,2.46617
4428,4,18,3,0,1,3,-7,-11,0.223145,-0.384766,0.84375,-4,-41.125,-8.3125,-0.453057,-0.205872,2.46617
4436,1,-1,2,0,0,1,3,-3,0.223145,-0.384766,0.84375,-4,-41.125,-8.3125,-0.453057,-0.205872,2.46617
4436,-6,-13,-2,-1,-1,1,6,7,0.223145,-0.384766,0.84375,-4,-41.125,-8.3125,-0.453057,-0.205872,2.46617
4451,-2,15,-1,0,2,3,5,2,0.190918,-0.353027,0.84082,-7.3125,-40.25,-18.8125,-0.454389,-0.221056,2.4662
4451,2,6,-1,-1,0,-2,-4,0,0.190918,-0.353027,0.84082,-7.3125,-40.25,-18.8125,-0.454389,-0.221056,2.4662
4451,6,8,3,1,-4,-4,-6,21,0.190918,-0.353027,0.84082,-7.3125,-40.25,-18.8125,-0.454389,-0.221056,2.4662
4451,5,8,0,1,2,1,30,-4,0.190918,-0.353027,0.84082,-7.3125,-40.25,-18.8125,-0.454389,-0.221056,2.4662
4482,1,-28,1,0,-1,-2,-35,-15,0.164062,-0.400391,0.872559,-12.25,-38.1875,-21.625,-0.457678,-0.234784,2.46506
4482,-9,-30,1,-1,-2,-3,13,-5,0.164062,-0.400391,0.872559,-12.25,-38.1875,-21.625,-0.457678,-0.234784,2.46506
4483,-5,-25,-1,0,-1,-5,-47,-28,0.164062,-0.400391,0.872559,-12.25,-38.1875,-21.625,-0.457678,-0.234784,2.46506
4483,7,-9,2,1,-1,1,24,9,0.164062,-0.400391,0.872559,-12.25,-38.1875,-21.625,-0.457678,-0.234784,2.46506
4488,9,-6,-3,0,0,3,-4,5,0.151855,-0.449707,0.868652,-16.125,-40.25,-22.5625,-0.463426,-0.248559,2.4643
4488,-15,26,-6,-5,-3,-11,-20,-15,0.151855,-0.449707,0.868652,-16.125,-40.25,-22.5625,-0.463426,-0.248559,2.4643
4496,0,20,-3,0,-1,-4,12,-4,0.151855,-0.449707,0.868652,-16.125,-40.25,-22.5625,-0.463426,-0.248559,2.4643
4496,2,22,5,2,2,3,18,29,0.151855,-0.449707,0.868652,-16.125,-40.25,-22.5625,-0.463426,-0.248559,2.4643
4511,-8,16,-3,-1,-1,1,-1,0,0.193359,-0.445801,0.876953,-13.8125,-40.25,-26.6875,-0.467804,-0.263533,2.46223
4511,14,-3,1,1,-2,-1,-9,18,0.193359,-0.445801,0.876953,-13.8125,-40.25,-26.6875,-0.467804,-0.263533,2.46223
4512,6,-1,-1,-2,-1,0,9,-7,0.193359,-0.445801,0.876953,-13.8125,-40.25,-26.6875,-0.467804,-0.263533,2.46223
4512,-1,-9,1,-1,0,-1,-10,-5,0.193359,-0.445801,0.876953,-13.8125,-40.25,-26.6875,-0.467804,-0.263533,2.46223
4534,-10,-12,-1,-4,-2,-1,17,2,0.249512,-0.437012,0.859375,-6.4375,-37.375,-24.125,-0.469555,-0.278359,2.46055
4534,3,-7,-4,-2,1,2,-4,-14,0.249512,-0.437012,0.859375,-6.4375,-37.375,-24.125,-0.469555,-0.278359,2.46055
4534,1,-6,-1,-1,0,7,29,6,0.249512,-0.437012,0.859375,-6.4375,-37.375,-24.125,-0.469555,-0.278359,2.46055
4534,11,-3,0,-3,-5,-5,-17,-1,0.249512,-0.437012,0.859375,-6.4375,-37.375,-24.125,-0.469555,-0.278359,2.46055
4548,-5,16,-2,-1,-1,-3,-5,-8,0.257324,-0.371582,0.852539,-15,-35.625,-23.0625,-0.472869,-0.29257,2.45857
4548,-5,2,-4,0,0,0,4,-2,0.257324,-0.371582,0.852539,-15,-35.625,-23.0625,-0.472869,-0.29257,2.45857
4557,-5,-3,-2,-1,1,-1,4,-8,0.257324,-0.371582,0.852539,-15,-35.625,-23.0625,-0.472869,-0.29257,2.45857
4557,-1,8,2,2,1,5,-1,37,0.257324,-0.371582,0.852539,-15,-35.625,-23.0625,-0.472869,-0.29257,2.45857
4571,-7,-12,-5,-6,-3,-8,-7,-12,0.237793,-0.413574,0.821777,-20.0625,-38.75,-24.625,-0.479078,-0.307279,2.45702
4571,3,1,2,1,1,-1,-13,-17,0.237793,-0.413574,0.821777,-20.0625,-38.75,-24.625,-0.479078,-0.307279,2.45702
4571,0,-3,0,0,2,-3,4,5,0.237793,-0.413574,0.821777,-20.0625,-38.75,-24.625,-0.479078,-0.307279,2.45702
4571,5,15,0,0,2,1,5,15,0.237793,-0.413574,0.821777,-20.0625,-38.75,-24.625,-0.479078,-0.307279,2.45702
4594,-9,-3,2,-3,-5,-2,11,-7,0.29834,-0.473633,0.818848,-19.75,-39.125,-23.375,-0.486681,-0.322687,2.45641
4594,1,-16,-6,-3,-2,1,-16,-2,0.29834,-0.473633,0.818848,-19.75,-39.125,-23.375,-0.486681,-0.322687,2.45641
4594,2,-4,-1,-1,0,-5,-6,5,0.29834,-0.473633,0.818848,-19.75,-39.125,-23.375,-0.486681,-0.322687,2.45641
4594,-6,-6,-2,-4,-5,-4,-9,-17,0.29834,-0.473633,0.818848,-19.75,-39.125,-23.375,-0.486681,-0.322687,2.45641
4608,-9,-2,0,1,-1,1,5,-5,0.392578,-0.476074,0.850098,-12.3125,-34.4375,-18.6875,-0.491395,-0.337589,2.45646
4608,3,14,6,0,2,2,7,3,0.392578,-0.476074,0.850098,-12.3125,-34.4375,-18.6875,-0.491395,-0.337589,2.45646
4616,3,-2,2,-3,-3,1,-8,10,0.392578,-0.476074,0.850098,-12.3125,-34.4375,-18.6875,-0.491395,-0.337589,2.45646
4616,-12,-16,-3,-2,-1,-1,25,-15,0.392578,-0.476074,0.850098,-12.3125,-34.4375,-18.6875,-0.491395,-0.337589,2.45646
4631,4,2,-1,0,-1,-1,-24,-5,0.428223,-0.432129,0.837402,-7.3125,-29.9375,-15.875,-0.493538,-0.351278,2.45645
4631,-3,-2,2,-2,0,1,10,18,0.428223,-0.432129,0.837402,-7.3125,-29.9375,-15.875,-0.493538,-0.351278,2.45645
4638,-11,-17,-7,-3,-3,-3,-7,9,0.428223,-0.432129,0.837402,-7.3125,-29.9375,-15.875,-0.493538,-0.351278,2.45645
4638,3,14,-1,1,-1,-1,2,-13,0.428223,-0.432129,0.837402,-7.3125,-29.9375,-15.875,-0.493538,-0.351278,2.45645
4654,-2,1,-1,0,0,2,1,-9,0.453125,-0.440918,0.807129,-2.375,-25.375,-11.1875,-0.494766,-0.363292,2.45716
4654,3,5,-6,1,2,1,5,-5,0.453125,-0.440918,0.807129,-2.375,-25.375,-11.1875,-0.494766,-0.363292,2.45716
4655,-2,13,-1,-3,-2,-1,-7,-7,0.453125,-0.440918,0.807129,-2.375,-25.375,-11.1875,-0.494766,-0.363292,2.45716
4655,3,-1,-3,-1,-1,2,18,32,0.453125,-0.440918,0.807129,-2.375,-25.375,-11.1875,-0.494766,-0.363292,2.45716
4669,-1,1,-2,0,-3,-7,-17,-2,0.480957,-0.423828,0.815918,-2.6875,-20.6875,-1.3125,-0.496462,-0.372592,2.46038
4669,-2,1,3,3,0,-1,-3,10,0.480957,-0.423828,0.815918,-2.6875,-20.6875,-1.3125,-0.496462,-0.372592,2.46038
4676,1,5,-2,-1,-2,0,0,-12,0.480957,-0.423828,0.815918,-2.6875,-20.6875,-1.3125,-0.496462,-0.372592,2.46038
4676,-6,0,1,0,2,1,4,-8,0.480957,-0.423828,0.815918,-2.6875,-20.6875,-1.3125,-0.496462,-0.372592,2.46038
4691,6,4,0,-2,-2,-2,3,21,0.486328,-0.402344,0.789062,-8.0625,-16.375,2.6875,-0.499984,-0.380196,2.46393
4691,5,-2,-1,2,4,11,56,4,0.486328,-0.402344,0.789062,-8.0625,-16.375,2.6875,-0.499984,-0.380196,2.46393
4699,-7,-7,-6,-3,-5,-14,-40,-9,0.486328,-0.402344,0.789062,-8.0625,-16.375,2.6875,-0.499984,-0.380196,2.46393
4699,-2,1,-2,-1,-3,-2,-5,-2,0.486328,-0.402344,0.789062,-8.0625,-16.375,2.6875,-0.499984,-0.380196,2.46393
4715,10,6,2,0,-2,0,7,-6,0.474121,-0.402344,0.787598,-10.875,-12.0625,5.1875,-0.504387,-0.385605,2.46753
4715,-8,-2,1,-1,-2,0,3,-10,0.474121,-0.402344,0.787598,-10.875,-12.0625,5.1875,-0.504387,-0.385605,2.46753
4716,-5,-3,-3,-2,0,3,9,-9,0.474121,-0.402344,0.787598,-10.875,-12.0625,5.1875,-0.504387,-0.385605,2.46753
4716,8,-6,1,0,1,2,-7,4,0.474121,-0.402344,0.787598,-10.875,-12.0625,5.1875,-0.504387,-0.385605,2.46753
4737,-8,-14,1,0,2,2,22,-8,0.458984,-0.387207,0.775391,-12.4375,-9.4375,6,-0.509007,-0.389851,2.47083
4737,-4,11,1,-2,-2,-7,-23,0,0.458984,-0.387207,0.775391,-12.4375,-9.4375,6,-0.509007,-0.389851,2.47083
4737,4,-7,0,-1,1,0,-4,-1,0.458984,-0.387207,0.775391,-12.4375,-9.4375,6,-0.509007,-0.389851,2.47083
4737,-19,-12,-1,-2,0,-3,10,20,0.458984,-0.387207,0.775391,-12.4375,-9.4375,6,-0.509007,-0.389851,2.47083
4751,-1,-2,1,2,1,0,3,7,0.456543,-0.405762,0.773438,-12.8125,-7.3125,4.875,-0.513927,-0.3933,2.4735
4751,18,42,4,0,-6,-6,-12,3,0.456543,-0.405762,0.773438,-12.8125,-7.3125,4.875,-0.513927,-0.3933,2.4735
4751,-18,-18,-8,1,1,-2,-1,-17,0.456543,-0.405762,0.773438,-12.8125,-7.3125,4.875,-0.513927,-0.3933,2.4735
4751,4,1,-1,0,-1,0,3,-3,0.456543,-0.405762,0.773438,-12.8125,-7.3125,4.875,-0.513927,-0.3933,2.4735
4773,0,0,-4,-3,1,5,17,-7,0.458008,-0.433594,0.790039,-9,-5.5,8.8125,-0.518201,-0.395341,2.47736
4773,-22,-9,0,-4,-1,-8,-35,-23,0.458008,-0.433594,0.790039,-9,-5.5,8.8125,-0.518201,-0.395341,2.47736
4774,16,19,4,-1,-5,-4,-8,0,0.458008,-0.433594,0.790039,-9,-5.5,8.8125,-0.518201,-0.395341,2.47736
4774,-2,-9,-6,-5,-3,-1,-12,-8,0.458008,-0.433594,0.790039,-9,-5.5,8.8125,-0.518201,-0.395341,2.47736
4797,3,4,1,0,1,3,19,28,0.44043,-0.415039,0.781738,-11.375,-2.5,9.1875,-0.522618,-0.396034,2.48041
4797,10,-13,-2,0,0,2,12,5,0.44043,-0.415039,0.781738,-11.375,-2.5,9.1875,-0.522618,-0.396034,2.48041
4798,-4,0,4,-2,-1,-2,0,-21,0.44043,-0.415039,0.781738,-11.375,-2.5,9.1875,-0.522618,-0.396034,2.48041
4798,-10,-7,-2,0,1,-2,-15,-18,0.44043,-0.415039,0.781738,-11.375,-2.5,9.1875,-0.522618,-0.396034,2.48041
4811,-6,-4,-5,-2,-5,-4,-16,-13,0.421875,-0.397949,0.765137,-16.6875,-1.0625,8.8125,-0.528554,-0.396263,2.48311
4811,2,-23,-4,-2,-1,1,8,7,0.421875,-0.397949,0.765137,-16.6875,-1.0625,8.8125,-0.528554,-0.396263,2.48311
4812,-14,17,-2,1,3,4,16,7,0.421875,-0.397949,0.765137,-16.6875,-1.0625,8.8125,-0.528554,-0.396263,2.48311
4812,-4,10,1,0,-1,-5,8,-2,0.421875,-0.397949,0.765137,-16.6875,-1.0625,8.8125,-0.528554,-0.396263,2.48311
4834,-2,-1,0,1,3,1,-4,2,0.400879,-0.421875,0.783203,-16.6875,-2.5625,5,-0.534149,-0.396799,2.48482
4834,-11,-15,-6,-2,-3,-2,-4,2,0.400879,-0.421875,0.783203,-16.6875,-2.5625,5,-0.534149,-0.396799,2.48482
4834,-3,-5,-1,-1,-3,-1,12,9,0.400879,-0.421875,0.783203,-16.6875,-2.5625,5,-0.534149,-0.396799,2.48482
4834,0,-1,-3,1,-2,-3,-15,-19,0.400879,-0.421875,0.783203,-16.6875,-2.5625,5,-0.534149,-0.396799,2.48482
4856,-6,-1,-6,0,-3,-2,-7,-7,0.404297,-0.45752,0.776367,-13.25,-1.75,5.1875,-0.539459,-0.396977,2.48683
4856,4,-3,-3,-1,0,1,11,-2,0.404297,-0.45752,0.776367,-13.25,-1.75,5.1875,-0.539459,-0.396977,2.48683
4857,4,4,4,-1,0,-1,-2,15,0.404297,-0.45752,0.776367,-13.25,-1.75,5.1875,-0.539459,-0.396977,2.48683
4857,-2,2,2,-3,-2,-4,-4,12,0.404297,-0.45752,0.776367,-13.25,-1.75,5.1875,-0.539459,-0.396977,2.48683
4871,2,-11,-3,-1,0,0,-13,-3,0.40625,-0.437012,0.773438,-12.4375,-1.1875,5.5,-0.543788,-0.397123,2.4886
4871,1,-2,-2,-2,-2,2,4,-24,0.40625,-0.437012,0.773438,-12.4375,-1.1875,5.5,-0.543788,-0.397123,2.4886
4872,12,-2,1,-2,-3,-2,-15,8,0.40625,-0.437012,0.773438,-12.4375,-1.1875,5.5,-0.543788,-0.397123,2.4886
4872,9,11,2,0,-1,2,-5,-3,0.40625,-0.437012,0.773438,-12.4375,-1.1875,5.5,-0.543788,-0.397123,2.4886
4894,2,11,5,-1,-2,-3,10,6,0.402832,-0.43457,0.770508,-8.875,-1.25,5.5625,-0.54688,-0.397189,2.49034
4894,-14,-11,0,0,1,-1,-9,-2,0.402832,-0.43457,0.770508,-8.875,-1.25,5.5625,-0.54688,-0.397189,2.49034
4894,2,-9,-3,1,1,4,13,2,0.402832,-0.43457,0.770508,-8.875,-1.25,5.5625,-0.54688,-0.397189,2.49034
4894,12,-1,0,0,1,1,0,-7,0.402832,-0.43457,0.770508,-8.875,-1.25,5.5625,-0.54688,-0.397189,2.49034
4917,4,0,-2,-1,1,-2,-15,-3,0.396973,-0.42334,0.753906,-8.3125,-1.0625,4.9375,-0.549642,-0.397359,2.49181
4917,4,-3,-4,-3,0,-2,11,23,0.396973,-0.42334,0.753906,-8.3125,-1.0625,4.9375,-0.549642,-0.397359,2.49181
4918,-8,-12,-1,-3,-3,-2,-5,-29,0.396973,-0.42334,0.753906,-8.3125,-1.0625,4.9375,-0.549642,-0.397359,2.49181
4918,3,10,4,1,-2,0,4,22,0.396973,-0.42334,0.753906,-8.3125,-1.0625,4.9375,-0.549642,-0.397359,2.49181
4931,5,-1,-1,-1,-4,-2,-4,12,0.397461,-0.425781,0.753418,-9.125,-1.5,4.3125,-0.552583,-0.397751,2.49314
4931,-1,0,1,2,-2,-5,-28,0,0.397461,-0.425781,0.753418,-9.125,-1.5,4.3125,-0.552583,-0.397751,2.49314
4932,1,2,-1,0,0,-1,3,-4,0.397461,-0.425781,0.753418,-9.125,-1.5,4.3125,-0.552583,-0.397751,2.49314
4932,-11,-1,-1,-2,-3,-3,-6,-14,0.397461,-0.425781,0.753418,-9.125,-1.5,4.3125,-0.552583,-0.397751,2.49314
4953,2,4,1,1,3,-2,-9,-4,0.418945,-0.452148,0.750488,-10.375,-1.5625,3.6875,-0.556372,-0.398629,2.49443
4953,12,6,3,0,-2,0,10,10,0.418945,-0.452148,0.750488,-10.375,-1.5625,3.6875,-0.556372,-0.398629,2.49443
4954,-25,-7,-4,1,2,-2,-9,-10,0.418945,-0.452148,0.750488,-10.375,-1.5625,3.6875,-0.556372,-0.398629,2.49443
4954,0,-1,-1,-1,-2,2,15,3,0.418945,-0.452148,0.750488,-10.375,-1.5625,3.6875,-0.556372,-0.398629,2.49443
4977,1,-8,0,-3,-5,-8,-16,1,0.427246,-0.449707,0.762207,-9.625,-0.3125,3,-0.559456,-0.399411,2.49526
4977,-32,-15,-3,-1,0,-1,6,-23,0.427246,-0.449707,0.762207,-9.625,-0.3125,3,-0.559456,-0.399411,2.49526
4977,1,-3,-3,-3,-1,0,7,8,0.427246,-0.449707,0.762207,-9.625,-0.3125,3,-0.559456,-0.399411,2.49526
4977,21,9,2,1,1,3,-4,-8,0.427246,-0.449707,0.762207,-9.625,-0.3125,3,-0.559456,-0.399411,2.49526
4991,-4,-3,-4,-2,-1,-1,-5,-20,0.418457,-0.433105,0.751953,-5.8125,0.4375,3.4375,-0.560954,-0.399759,2.4959
4991,-1,8,3,0,0,-3,-15,-3,0.418457,-0.433105,0.751953,-5.8125,0.4375,3.4375,-0.560954,-0.399759,2.4959
4992,2,-3,-3,0,2,4,21,12,0.418457,-0.433105,0.751953,-5.8125,0.4375,3.4375,-0.560954,-0.399759,2.4959
4992,-5,-15,-8,-2,0,-5,-30,-9,0.418457,-0.433105,0.751953,-5.8125,0.4375,3.4375,-0.560954,-0.399759,2.4959
5013,-4,4,1,0,-1,2,4,-2,0.421387,-0.429688,0.747559,-7.625,1.4375,4.9375,-0.563151,-0.399744,2.49683
5013,9,3,0,-1,-4,1,8,7,0.421387,-0.429688,0.747559,-7.625,1.4375,4.9375,-0.563151,-0.399744,2.49683
5014,8,0,0,-3,-4,-2,-4,-1,0.421387,-0.429688,0.747559,-7.625,1.4375,4.9375,-0.563151,-0.399744,2.49683
5014,-2,13,1,-1,-2,-1,-3,-11,0.421387,-0.429688,0.747559,-7.625,1.4375,4.9375,-0.563151,-0.399744,2.49683
5037,0,-3,0,-2,0,2,9,-3,0.418945,-0.449707,0.755859,-10.875,2.1875,5.25,-0.566774,-0.399192,2.49784
5037,-4,-9,-7,-4,-3,-6,-20,-9,0.418945,-0.449707,0.755859,-10.875,2.1875,5.25,-0.566774,-0.399192,2.49784
5037,8,10,0,1,-1,-3,9,9,0.418945,-0.449707,0.755859,-10.875,2.1875,5.25,-0.566774,-0.399192,2.49784
5037,-14,-28,-6,-4,-1,-4,-3,-12,0.418945,-0.449707,0.755859,-10.875,2.1875,5.25,-0.566774,-0.399192,2.49784
5051,14,25,-3,-2,-4,-1,-1,9,0.407715,-0.48291,0.767578,-9.6875,2.3125,5.3125,-0.5704,-0.39813,2.49906
5051,11,-7,-5,-1,-2,1,18,16,0.407715,-0.48291,0.767578,-9.6875,2.3125,5.3125,-0.5704,-0.39813,2.49906
5051,5,4,3,1,-1,-5,-44,-2,0.407715,-0.48291,0.767578,-9.6875,2.3125,5.3125,-0.5704,-0.39813,2.49906
5051,-14,-13,-6,-4,-4,-5,-37,-2,0.407715,-0.48291,0.767578,-9.6875,2.3125,5.3125,-0.5704,-0.39813,2.49906
5074,-16,-14,-5,-3,1,2,14,0,0.390625,-0.475586,0.755371,-5.125,2.875,5.375,-0.572313,-0.396643,2.50003
5074,22,5,5,3,-3,-1,-3,2,0.390625,-0.475586,0.755371,-5.125,2.875,5.375,-0.572313,-0.396643,2.50003
5074,-9,24,0,0,1,1,7,2,0.390625,-0.475586,0.755371,-5.125,2.875,5.375,-0.572313,-0.396643,2.50003
5074,0,6,3,2,0,0,5,-5,0.390625,-0.475586,0.755371,-5.125,2.875,5.375,-0.572313,-0.396643,2.50003
5097,4,-3,1,0,1,-3,0,12,0.384277,-0.460449,0.757324,-4.5625,2.5625,4.1875,-0.573569,-0.39533,2.50055
5097,2,3,1,-1,2,0,-5,8,0.384277,-0.460449,0.757324,-4.5625,2.5625,4.1875,-0.573569,-0.39533,2.50055
5098,4,-14,1,-2,-3,1,33,-6,0.384277,-0.460449,0.757324,-4.5625,2.5625,4.1875,-0.573569,-0.39533,2.50055
5098,1,2,-2,-3,-4,-1,-24,12,0.384277,-0.460449,0.757324,-4.5625,2.5625,4.1875,-0.573569,-0.39533,2.50055
5111,-16,-7,-5,1,4,0,2,-17,0.382812,-0.473633,0.763672,-6.3125,2.625,4.4375,-0.575532,-0.393949,2.5012
5111,1,-9,-4,0,1,2,22,16,0.382812,-0.473633,0.763672,-6.3125,2.625,4.4375,-0.575532,-0.393949,2.5012
5112,-33,-18,-3,-1,0,0,3,5,0.382812,-0.473633,0.763672,-6.3125,2.625,4.4375,-0.575532,-0.393949,2.5012
5112,4,14,2,2,1,1,26,12,0.382812,-0.473633,0.763672,-6.3125,2.625,4.4375,-0.575532,-0.393949,2.5012
5134,1,-10,1,-2,-2,2,7,10,0.374512,-0.490234,0.751465,-6.375,3.6875,4.5625,-0.578115,-0.392024,2.50192
5134,-4,4,-1,-1,-1,-5,-17,-24,0.374512,-0.490234,0.751465,-6.375,3.6875,4.5625,-0.578115,-0.392024,2.50192
5134,11,-4,-1,-3,-3,-5,-9,-3,0.374512,-0.490234,0.751465,-6.375,3.6875,4.5625,-0.578115,-0.392024,2.50192
5134,-6,-15,-2,0,0,0,9,3,0.374512,-0.490234,0.751465,-6.375,3.6875,4.5625,-0.578115,-0.392024,2.50192
5157,-9,-9,-1,-1,0,0,-4,-14,0.376465,-0.484863,0.750488,-5.375,4.8125,4.625,-0.580005,-0.389925,2.50234
5157,2,4,4,1,0,1,1,-34,0.376465,-0.484863,0.750488,-5.375,4.8125,4.625,-0.580005,-0.389925,2.50234
5158,7,3,2,1,0,3,-1,17,0.376465,-0.484863,0.750488,-5.375,4.8125,4.625,-0.580005,-0.389925,2.50234
5158,-14,0,-2,-3,-2,-3,18,4,0.376465,-0.484863,0.750488,-5.375,4.8125,4.625,-0.580005,-0.389925,2.50234
5171,-2,-7,-8,0,-3,-6,-3,-20,0.37793,-0.500977,0.761719,-5.375,6.5625,6.4375,-0.58198,-0.386928,2.50296
5171,3,9,2,-1,-3,0,-9,-13,0.37793,-0.500977,0.761719,-5.375,6.5625,6.4375,-0.58198,-0.386928,2.50296
5172,8,-1,-2,0,-3,-3,-1,-1,0.37793,-0.500977,0.761719,-5.375,6.5625,6.4375,-0.58198,-0.386928,2.50296
5172,-5,4,-2,-1,1,3,1,9,0.37793,-0.500977,0.761719,-5.375,6.5625,6.4375,-0.58198,-0.386928,2.50296
5193,4,-6,-1,-1,-2,0,-2,1,0.382324,-0.509277,0.761719,-4.6875,8.625,7.25,-0.584037,-0.383387,2.50356
5193,-1,-8,-4,-3,-1,-6,-7,8,0.382324,-0.509277,0.761719,-4.6875,8.625,7.25,-0.584037,-0.383387,2.50356
5194,2,6,0,0,-4,-5,-27,-20,0.382324,-0.509277,0.761719,-4.6875,8.625,7.25,-0.584037,-0.383387,2.50356
5194,-1,-9,-1,0,3,0,-2,3,0.382324,-0.509277,0.761719,-4.6875,8.625,7.25,-0.584037,-0.383387,2.50356
5224,-14,17,-4,-5,-4,-4,-3,-26,0.366211,-0.499023,0.772461,-3.625,9.875,7.9375,-0.585167,-0.378844,2.50389
5224,-2,-2,-8,-5,-11,-6,-35,-6,0.366211,-0.499023,0.772461,-3.625,9.875,7.9375,-0.585167,-0.378844,2.50389
5225,-8,-3,-5,-2,2,-1,-3,-12,0.366211,-0.499023,0.772461,-3.625,9.875,7.9375,-0.585167,-0.378844,2.50389
5225,19,30,5,1,2,1,3,1,0.366211,-0.499023,0.772461,-3.625,9.875,7.9375,-0.585167,-0.378844,2.50389
5231,13,5,4,-1,1,-1,-6,4,0.362305,-0.503418,0.766602,-4.6875,10.25,8.9375,-0.58679,-0.374169,2.50443
5231,-11,1,-3,0,-1,-4,9,11,0.362305,-0.503418,0.766602,-4.6875,10.25,8.9375,-0.58679,-0.374169,2.50443
5232,15,7,5,1,-1,2,1,24,0.362305,-0.503418,0.766602,-4.6875,10.25,8.9375,-0.58679,-0.374169,2.50443
5232,-4,-30,-12,-5,-7,-4,-19,-35,0.362305,-0.503418,0.766602,-4.6875,10.25,8.9375,-0.58679,-0.374169,2.50443
5253,6,-5,-2,2,-3,2,5,39,0.328125,-0.48584,0.745605,-6.6875,8.8125,9.3125,-0.589288,-0.369516,2.50545
5253,-6,-2,1,-3,0,1,-2,-30,0.328125,-0.48584,0.745605,-6.6875,8.8125,9.3125,-0.589288,-0.369516,2.50545
5254,-4,-5,-3,-1,-5,-18,4,4,0.328125,-0.48584,0.745605,-6.6875,8.8125,9.3125,-0.589288,-0.369516,2.50545
5254,8,5,3,0,-1,3,13,0,0.328125,-0.48584,0.745605,-6.6875,8.8125,9.3125,-0.589288,-0.369516,2.50545
5277,-11,2,-5,-6,-1,1,-45,-8,0.310547,-0.45459,0.696777,-13.75,4.4375,5.75,-0.593984,-0.366873,2.50618
5277,-14,-26,-11,-6,-3,-9,-5,-3,0.310547,-0.45459,0.696777,-13.75,4.4375,5.75,-0.593984,-0.366873,2.50618
5277,19,-1,10,3,2,11,2,-7,0.310547,-0.45459,0.696777,-13.75,4.4375,5.75,-0.593984,-0.366873,2.50618
5277,-11,-23,-7,-1,-18,-61,-19,-7,0.310547,-0.45459,0.696777,-13.75,4.4375,5.75,-0.593984,-0.366873,2.50618
5290,-26,-19,-13,-9,7,41,-11,-64,0.35791,-0.498047,0.726562,-14.75,0.5,-1,-0.599002,-0.367319,2.50581
5290,-3,13,1,-1,-5,-4,-3,-20,0.35791,-0.498047,0.726562,-14.75,0.5,-1,-0.599002,-0.367319,2.50581
5299,-19,-1,2,-1,-3,3,4,-8,0.35791,-0.498047,0.726562,-14.75,0.5,-1,-0.599002,-0.367319,2.50581
5299,-10,3,-6,-5,-2,-15,19,58,0.35791,-0.498047,0.726562,-14.75,0.5,-1,-0.599002,-0.367319,2.50581
5313,20,8,7,3,-3,7,3,-7,0.334961,-0.535645,0.739258,3.25,-0.0625,-6.875,-0.59789,-0.368274,2.5039
5313,6,15,4,2,3,2,-7,8,0.334961,-0.535645,0.739258,3.25,-0.0625,-6.875,-0.59789,-0.368274,2.5039
5314,-29,-15,-3,-2,2,3,-3,2,0.334961,-0.535645,0.739258,3.25,-0.0625,-6.875,-0.59789,-0.368274,2.5039
5314,18,17,6,-1,-3,4,-8,-13,0.334961,-0.535645,0.739258,3.25,-0.0625,-6.875,-0.59789,-0.368274,2.5039
5337,7,11,16,12,4,-6,19,24,0.35498,-0.508789,0.761719,13.625,-3.375,-9.8125,-0.592129,-0.37108,2.5015
5337,10,-13,1,4,6,8,3,55,0.35498,-0.508789,0.761719,13.625,-3.375,-9.8125,-0.592129,-0.37108,2.5015
5338,23,0,-7,-2,-2,7,31,18,0.35498,-0.508789,0.761719,13.625,-3.375,-9.8125,-0.592129,-0.37108,2.5015
5338,-3,-3,0,-2,2,14,-7,11,0.35498,-0.508789,0.761719,13.625,-3.375,-9.8125,-0.592129,-0.37108,2.5015
5350,7,7,4,2,1,-10,4,-1,0.460449,-0.478516,0.756348,9,-0.8125,-1.75,-0.588266,-0.374232,2.50095
5350,-14,-12,-12,-6,-8,-1,5,19,0.460449,-0.478516,0.756348,9,-0.8125,-1.75,-0.588266,-0.374232,2.50095
5359,12,6,0,-3,-2,-9,-14,-23,0.460449,-0.478516,0.756348,9,-0.8125,-1.75,-0.588266,-0.374232,2.50095
5359,-2,-8,-4,-1,2,12,8,-9,0.460449,-0.478516,0.756348,9,-0.8125,-1.75,-0.588266,-0.374232,2.50095
5373,-8,-7,-2,-1,1,-10,-11,2,0.447266,-0.445801,0.763672,-5.375,7.75,12,-0.589451,-0.371994,2.50247
5373,9,11,3,1,4,1,14,-11,0.447266,-0.445801,0.763672,-5.375,7.75,12,-0.589451,-0.371994,2.50247
5374,-2,-3,-4,-7,-3,-2,-14,-11,0.447266,-0.445801,0.763672,-5.375,7.75,12,-0.589451,-0.371994,2.50247
5374,-1,8,5,-3,-3,5,2,-13,0.447266,-0.445801,0.763672,-5.375,7.75,12,-0.589451,-0.371994,2.50247
5396,2,0,1,-2,-4,-19,10,18,0.324707,-0.518066,0.739746,-19.625,9.625,15.5625,-0.597607,-0.365675,2.50551
5396,2,-33,-9,-5,-1,3,-23,-49,0.324707,-0.518066,0.739746,-19.625,9.625,15.5625,-0.597607,-0.365675,2.50551
5397,2,-18,0,9,9,-6,35,24,0.324707,-0.518066,0.739746,-19.625,9.625,15.5625,-0.597607,-0.365675,2.50551
5397,14,34,3,4,6,67,65,73,0.324707,-0.518066,0.739746,-19.625,9.625,15.5625,-0.597607,-0.365675,2.50551
5410,-7,-7,-8,-10,-12,-21,-20,-46,0.305664,-0.591797,0.766602,-27.8125,9.75,11.625,-0.609038,-0.359222,2.50746
5410,-14,-19,-3,-5,-2,2,29,-3,0.305664,-0.591797,0.766602,-27.8125,9.75,11.625,-0.609038,-0.359222,2.50746
5418,11,-2,1,5,-2,-17,-21,21,0.305664,-0.591797,0.766602,-27.8125,9.75,11.625,-0.609038,-0.359222,2.50746
5418,-15,-25,-6,-1,2,-7,-40,-48,0.305664,-0.591797,0.766602,-27.8125,9.75,11.625,-0.609038,-0.359222,2.50746
5433,-5,-4,-2,-11,-8,34,-5,2,0.243164,-0.603516,0.779297,-14.5625,9.3125,4.25,-0.6151,-0.352904,2.50716
5433,1,13,7,4,-6,-9,-11,15,0.243164,-0.603516,0.779297,-14.5625,9.3125,4.25,-0.6151,-0.352904,2.50716
5434,-7,26,9,7,8,30,-12,0,0.243164,-0.603516,0.779297,-14.5625,9.3125,4.25,-0.6151,-0.352904,2.50716
5434,8,17,9,9,8,-7,-13,-16,0.243164,-0.603516,0.779297,-14.5625,9.3125,4.25,-0.6151,-0.352904,2.50716
5457,-48,-12,-10,10,24,-7,4,36,0.314941,-0.595703,0.768066,-5.125,11.5625,5.25,-0.617605,-0.347715,2.50663
5457,-4,5,4,1,-15,-4,-73,70,0.314941,-0.595703,0.768066,-5.125,11.5625,5.25,-0.617605,-0.347715,2.50663
5457,-25,7,-3,-9,5,-7,77,-96,0.314941,-0.595703,0.768066,-5.125,11.5625,5.25,-0.617605,-0.347715,2.50663
5457,11,-18,-12,-24,15,38,-120,-16,0.314941,-0.595703,0.768066,-5.125,11.5625,5.25,-0.617605,-0.347715,2.50663
5471,10,28,1,-10,-4,9,48,13,0.466797,-0.615723,0.733887,-12.75,13.25,7.875,-0.623785,-0.345143,2.50682
5471,55,7,11,38,14,-34,46,40,0.466797,-0.615723,0.733887,-12.75,13.25,7.875,-0.623785,-0.345143,2.50682
5479,80,14,8,11,14,29,45,-21,0.466797,-0.615723,0.733887,-12.75,13.25,7.875,-0.623785,-0.345143,2.50682
5479,53,1,-4,-12,-24,-18,-41,0,0.466797,-0.615723,0.733887,-12.75,13.25,7.875,-0.623785,-0.345143,2.50682
5494,55,-40,-19,-44,-51,-63,73,-11,0.299316,-0.534668,0.708496,-25.5,4.9375,-4,-0.632134,-0.344154,2.50456
5494,17,23,-3,-33,7,8,-33,-59,0.299316,-0.534668,0.708496,-25.5,4.9375,-4,-0.632134,-0.344154,2.50456
5494,7,-55,-21,16,-40,-19,-70,28,0.299316,-0.534668,0.708496,-25.5,4.9375,-4,-0.632134,-0.344154,2.50456
5494,-4,-9,5,17,30,-80,36,19,0.299316,-0.534668,0.708496,-25.5,4.9375,-4,-0.632134,-0.344154,2.50456
5517,-42,2,28,68,62,56,-66,-36,0.223145,-0.484863,0.80127,-18.625,6.125,-13.375,-0.634525,-0.342665,2.49843
5517,-111,-8,-19,-28,-39,-35,53,22,0.223145,-0.484863,0.80127,-18.625,6.125,-13.375,-0.634525,-0.342665,2.49843
5517,-128,-16,-20,-49,-29,-12,-20,-2,0.223145,-0.484863,0.80127,-18.625,6.125,-13.375,-0.634525,-0.342665,2.49843
5517,-87,-9,15,48,52,113,28,17,0.223145,-0.484863,0.80127,-18.625,6.125,-13.375,-0.634525,-0.342665,2.49843
5530,-48,15,11,41,11,-60,-13,38,0.332031,-0.489258,0.824219,-18.9375,6.0625,-5.1875,-0.637616,-0.341868,2.49481
5530,50,12,17,33,42,54,-24,-56,0.332031,-0.489258,0.824219,-18.9375,6.0625,-5.1875,-0.637616,-0.341868,2.49481
5538,63,40,9,-17,-13,-52,39,78,0.332031,-0.489258,0.824219,-18.9375,6.0625,-5.1875,-0.637616,-0.341868,2.49481
5538,89,-39,-29,-53,-35,46,3,-35,0.332031,-0.489258,0.824219,-18.9375,6.0625,-5.1875,-0.637616,-0.341868,2.49481
5562,34,24,-14,-53,-30,-27,-43,-60,0.342773,-0.458496,0.829102,-28.1875,3.5,-9.375,-0.642887,-0.342998,2.49009
5562,47,21,2,-35,5,19,5,0,0.342773,-0.458496,0.829102,-28.1875,3.5,-9.375,-0.642887,-0.342998,2.49009
5563,26,-10,-3,40,23,-29,-74,-14,0.342773,-0.458496,0.829102,-28.1875,3.5,-9.375,-0.642887,-0.342998,2.49009
5563,-2,17,16,33,7,-50,-32,-103,0.342773,-0.458496,0.829102,-28.1875,3.5,-9.375,-0.642887,-0.342998,2.49009
5577,55,-23,-4,-13,-12,60,-85,9,0.242676,-0.489258,0.808105,-11.375,0.875,-8.0625,-0.643598,-0.342278,2.48672
5577,17,-13,-15,-29,-56,-23,70,-9,0.242676,-0.489258,0.808105,-11.375,0.875,-8.0625,-0.643598,-0.342278,2.48672
5578,-8,40,3,-45,3,53,-16,28,0.242676,-0.489258,0.808105,-11.375,0.875,-8.0625,-0.643598,-0.342278,2.48672
5578,2,3,15,67,28,-59,5,24,0.242676,-0.489258,0.808105,-11.375,0.875,-8.0625,-0.643598,-0.342278,2.48672
5591,-7,-8,13,29,32,20,12,-13,0.3125,-0.54541,0.807617,-2.625,-4.9375,-2.9375,-0.64325,-0.343456,2.48648
5591,8,7,7,14,-1,-17,-31,11,0.3125,-0.54541,0.807617,-2.625,-4.9375,-2.9375,-0.64325,-0.343456,2.48648
5599,22,-9,2,-6,1,58,-11,3,0.3125,-0.54541,0.807617,-2.625,-4.9375,-2.9375,-0.64325,-0.343456,2.48648
5599,-3,-19,-28,-69,-88,-52,34,-19,0.3125,-0.54541,0.807617,-2.625,-4.9375,-2.9375,-0.64325,-0.343456,2.48648
5613,-7,2,-12,-47,-4,52,9,44,0.308105,-0.532227,0.69873,4,-6.9375,-2.875,-0.642205,-0.34575,2.48717
5613,19,-10,20,69,65,27,-20,10,0.308105,-0.532227,0.69873,4,-6.9375,-2.875,-0.642205,-0.34575,2.48717
5614,-52,9,6,31,45,27,12,-31,0.308105,-0.532227,0.69873,4,-6.9375,-2.875,-0.642205,-0.34575,2.48717
5614,-30,16,-7,-50,-22,-9,-16,-10,0.308105,-0.532227,0.69873,4,-6.9375,-2.875,-0.642205,-0.34575,2.48717
5636,15,-37,-29,-67,-79,-40,32,-3,0.318848,-0.54834,0.714355,5.5,-7.0625,-2.375,-0.640902,-0.348105,2.4882
5636,-3,-13,2,20,11,-17,-55,-9,0.318848,-0.54834,0.714355,5.5,-7.0625,-2.375,-0.640902,-0.348105,2.4882
5637,9,-15,9,51,55,24,-22,-16,0.318848,-0.54834,0.714355,5.5,-7.0625,-2.375,-0.640902,-0.348105,2.4882
5637,12,6,28,78,44,25,41,50,0.318848,-0.54834,0.714355,5.5,-7.0625,-2.375,-0.640902,-0.348105,2.4882
5660,8,22,2,-7,-18,-18,-24,-31,0.326172,-0.574707,0.729492,-0.25,-5.1875,-2.625,-0.641719,-0.349674,2.48872
5660,-5,-6,-13,-48,-48,1,15,-3,0.326172,-0.574707,0.729492,-0.25,-5.1875,-2.625,-0.641719,-0.349674,2.48872
5660,46,0,10,16,-18,-68,21,-12,0.326172,-0.574707,0.729492,-0.25,-5.1875,-2.625,-0.641719,-0.349674,2.48872
5660,0,-27,-11,3,-3,79,-54,45,0.326172,-0.574707,0.729492,-0.25,-5.1875,-2.625,-0.641719,-0.349674,2.48872
5673,-9,10,-16,-37,-46,-32,121,49,0.368164,-0.523926,0.656738,0.4375,-3.625,-1,-0.642429,-0.352349,2.48955
5673,-20,-15,-18,-42,-46,-39,-27,-28,0.368164,-0.523926,0.656738,0.4375,-3.625,-1,-0.642429,-0.352349,2.48955
5674,-22,-23,4,-2,29,51,35,-28,0.368164,-0.523926,0.656738,0.4375,-3.625,-1,-0.642429,-0.352349,2.48955
5674,-12,-27,1,10,4,-82,-34,3,0.368164,-0.523926,0.656738,0.4375,-3.625,-1,-0.642429,-0.352349,2.48955
5696,-21,-3,7,54,27,76,54,-10,0.369629,-0.51123,0.725586,1,-1.6875,0.375,-0.641487,-0.353678,2.48968
5696,-17,23,-13,-14,-17,-23,29,19,0.369629,-0.51123,0.725586,1,-1.6875,0.375,-0.641487,-0.353678,2.48968
5697,-3,18,-15,-48,-52,-103,-44,6,0.369629,-0.51123,0.725586,1,-1.6875,0.375,-0.641487,-0.353678,2.48968
5697,22,30,23,-2,33,39,3,33,0.369629,-0.51123,0.725586,1,-1.6875,0.375,-0.641487,-0.353678,2.48968
5719,-21,-19,-2,65,31,-31,-21,11,0.319824,-0.53418,0.76123,-2.6875,-0.3125,-0.0625,-0.641763,-0.353204,2.48947
5719,-59,16,7,51,43,-47,41,-13,0.319824,-0.53418,0.76123,-2.6875,-0.3125,-0.0625,-0.641763,-0.353204,2.48947
5719,2,32,-4,-32,-12,-6,-46,13,0.319824,-0.53418,0.76123,-2.6875,-0.3125,-0.0625,-0.641763,-0.353204,2.48947
5719,-28,12,-24,-77,-54,3,-3,-17,0.319824,-0.53418,0.76123,-2.6875,-0.3125,-0.0625,-0.641763,-0.353204,2.48947
5734,33,-9,-4,-25,-8,-12,1,40,0.342773,-0.539062,0.745117,-3.9375,-0.0625,2.375,-0.643023,-0.352885,2.49016
5734,35,-21,13,22,47,64,-12,-3,0.342773,-0.539062,0.745117,-3.9375,-0.0625,2.375,-0.643023,-0.352885,2.49016
5734,-29,-18,-4,40,-14,39,60,14,0.342773,-0.539062,0.745117,-3.9375,-0.0625,2.375,-0.643023,-0.352885,2.49016
5734,-13,10,-18,-36,-43,-38,82,37,0.342773,-0.539062,0.745117,-3.9375,-0.0625,2.375,-0.643023,-0.352885,2.49016
5756,19,14,0,-36,31,-14,-21,-18,0.342773,-0.549316,0.735352,0.375,-0.0625,0.8125,-0.643023,-0.352885,2.49016
5756,-11,-39,21,86,41,1,-66,-41,0.342773,-0.549316,0.735352,0.375,-0.0625,0.8125,-0.643023,-0.352885,2.49016
5757,-12,15,4,-29,-3,47,-3,-37,0.342773,-0.549316,0.735352,0.375,-0.0625,0.8125,-0.643023,-0.352885,2.49016
5757,-4,44,4,13,-2,4,75,-17,0.342773,-0.549316,0.735352,0.375,-0.0625,0.8125,-0.643023,-0.352885,2.49016
5779,11,-9,-12,-45,-43,24,-56,34,0.337891,-0.541992,0.744629,-1.8125,-0.5625,2.3125,-0.643498,-0.352427,2.49083
5779,3,-9,-14,-24,33,-30,26,16,0.337891,-0.541992,0.744629,-1.8125,-0.5625,2.3125,-0.643498,-0.352427,2.49083
5779,-8,-10,9,49,24,34,56,68,0.337891,-0.541992,0.744629,-1.8125,-0.5625,2.3125,-0.643498,-0.352427,2.49083
5779,-6,0,2,-5,-6,-12,-29,-32,0.337891,-0.541992,0.744629,-1.8125,-0.5625,2.3125,-0.643498,-0.352427,2.49083
5794,19,-7,-11,-48,-77,-13,-84,-23,0.330078,-0.553711,0.73877,-0.8125,-0.1875,1.625,-0.643936,-0.351961,2.49139
5794,3,11,-2,-41,-8,-3,-37,15,0.330078,-0.553711,0.73877,-0.8125,-0.1875,1.625,-0.643936,-0.351961,2.49139
5794,-16,-18,13,57,29,-3,-57,-14,0.330078,-0.553711,0.73877,-0.8125,-0.1875,1.625,-0.643936,-0.351961,2.49139
5794,-15,0,3,33,28,1,50,-19,0.330078,-0.553711,0.73877,-0.8125,-0.1875,1.625,-0.643936,-0.351961,2.49139
5817,9,11,14,39,23,-24,26,-11,0.290527,-0.532715,0.748047,2.125,-0.3125,1.8125,-0.6428,-0.350564,2.49175
5817,-11,0,-18,-36,-58,33,25,23,0.290527,-0.532715,0.748047,2.125,-0.3125,1.8125,-0.6428,-0.350564,2.49175
5818,18,8,-20,-55,-38,37,-27,3,0.290527,-0.532715,0.748047,2.125,-0.3125,1.8125,-0.6428,-0.350564,2.49175
5818,-13,-17,-12,-58,10,17,72,36,0.290527,-0.532715,0.748047,2.125,-0.3125,1.8125,-0.6428,-0.350564,2.49175
