0,-1,9,4,-11,-2,-1,-3,-2,1.05322,0.131836,-0.0561523,30.4375,11.8125,-20.3125,2.72964,-1.48985,-3.05012
0,-1,2,1,-6,-2,-2,-2,0,1.05322,0.131836,-0.0561523,30.4375,11.8125,-20.3125,2.72964,-1.48985,-3.05012
0,-2,-9,-4,4,-1,1,1,0,1.05322,0.131836,-0.0561523,30.4375,11.8125,-20.3125,2.72964,-1.48985,-3.05012
0,-3,-5,-4,5,0,1,0,1,1.05322,0.131836,-0.0561523,30.4375,11.8125,-20.3125,2.72964,-1.48985,-3.05012
1,-2,5,-1,-6,-2,-1,-1,-3,1.05322,0.131836,-0.0561523,30.4375,11.8125,-20.3125,2.72964,-1.48985,-3.05012
1,-1,6,2,-6,0,-1,-2,-3,1.05322,0.131836,-0.0561523,30.4375,11.8125,-20.3125,2.72964,-1.48985,-3.05012
13,-1,-5,-4,2,-2,0,-2,1,1.05322,0.131836,-0.0561523,30.4375,11.8125,-20.3125,2.72964,-1.48985,-3.05012
13,-1,-6,-3,1,1,0,-2,-1,1.05322,0.131836,-0.0561523,30.4375,11.8125,-20.3125,2.72964,-1.48985,-3.05012
17,-1,4,1,-2,-1,-2,-1,-2,1.03271,0.0771484,0.0200195,25.5625,26.8125,-18.9375,2.58261,-1.49676,-2.89376
17,-1,1,1,-5,-1,-2,-1,-2,1.03271,0.0771484,0.0200195,25.5625,26.8125,-18.9375,2.58261,-1.49676,-2.89376
19,-2,-8,-2,2,0,-3,0,-2,1.03271,0.0771484,0.0200195,25.5625,26.8125,-18.9375,2.58261,-1.49676,-2.89376
19,-1,-6,-4,4,-1,-2,-1,-1,1.03271,0.0771484,0.0200195,25.5625,26.8125,-18.9375,2.58261,-1.49676,-2.89376
37,-1,2,1,-5,-1,0,-1,-1,0.991699,0.0327148,0.0761719,15.0625,36.5,-21.5625,2.36646,-1.5055,-2.67165
37,2,2,2,-5,-1,0,-1,-1,0.991699,0.0327148,0.0761719,15.0625,36.5,-21.5625,2.36646,-1.5055,-2.67165
41,-2,-5,-4,4,-1,-1,0,-1,0.991699,0.0327148,0.0761719,15.0625,36.5,-21.5625,2.36646,-1.5055,-2.67165
41,-2,-5,-2,0,-2,-1,0,-1,0.991699,0.0327148,0.0761719,15.0625,36.5,-21.5625,2.36646,-1.5055,-2.67165
61,-2,2,1,-6,-2,-3,-2,-2,0.947754,-0.0253906,0.135742,5.1875,41.8125,-24.5625,2.06487,-1.51128,-2.36783
61,-3,-2,1,-2,-1,-2,-2,0,0.947754,-0.0253906,0.135742,5.1875,41.8125,-24.5625,2.06487,-1.51128,-2.36783
61,0,-3,-1,1,0,0,-1,-1,0.947754,-0.0253906,0.135742,5.1875,41.8125,-24.5625,2.06487,-1.51128,-2.36783
61,-2,0,-2,1,0,2,-1,-1,0.947754,-0.0253906,0.135742,5.1875,41.8125,-24.5625,2.06487,-1.51128,-2.36783
88,-1,3,-1,-3,0,-3,-1,-2,0.933594,-0.0761719,0.166992,-4.4375,45.625,-29.8125,1.70528,-1.51071,-2.00929
88,0,2,1,-2,-3,-1,2,0,0.933594,-0.0761719,0.166992,-4.4375,45.625,-29.8125,1.70528,-1.51071,-2.00929
89,-5,-2,-1,2,2,0,-1,0,0.933594,-0.0761719,0.166992,-4.4375,45.625,-29.8125,1.70528,-1.51071,-2.00929
89,0,-1,-1,0,-2,0,0,-2,0.933594,-0.0761719,0.166992,-4.4375,45.625,-29.8125,1.70528,-1.51071,-2.00929
91,-1,1,-2,-2,0,0,-1,-1,0.92334,-0.0766602,0.187988,-17.9375,51.3125,-33.3125,1.35966,-1.50259,-1.66959
91,-1,-1,-3,-2,-1,-1,-3,-3,0.92334,-0.0766602,0.187988,-17.9375,51.3125,-33.3125,1.35966,-1.50259,-1.66959
103,2,-3,1,-1,-2,-1,-1,0,0.92334,-0.0766602,0.187988,-17.9375,51.3125,-33.3125,1.35966,-1.50259,-1.66959
103,-1,-1,-2,1,0,-1,-1,-1,0.92334,-0.0766602,0.187988,-17.9375,51.3125,-33.3125,1.35966,-1.50259,-1.66959
110,0,-1,0,-2,-1,0,0,0,0.882812,-0.0512695,0.208008,-31.875,56.9375,-33.0625,1.09292,-1.48579,-1.41368
110,-1,-1,1,0,0,-2,-2,-1,0.882812,-0.0512695,0.208008,-31.875,56.9375,-33.0625,1.09292,-1.48579,-1.41368
125,-1,0,-2,-2,-2,-1,-1,-3,0.882812,-0.0512695,0.208008,-31.875,56.9375,-33.0625,1.09292,-1.48579,-1.41368
125,-2,1,-2,-1,-3,0,-1,-1,0.882812,-0.0512695,0.208008,-31.875,56.9375,-33.0625,1.09292,-1.48579,-1.41368
133,-2,0,2,-1,-3,-1,-1,-1,0.84375,-0.0498047,0.23584,-45.75,58.5625,-31.9375,0.904868,-1.46507,-1.24131
133,-1,1,-1,0,-1,0,-2,0,0.84375,-0.0498047,0.23584,-45.75,58.5625,-31.9375,0.904868,-1.46507,-1.24131
140,-1,0,0,1,0,-1,-1,-1,0.84375,-0.0498047,0.23584,-45.75,58.5625,-31.9375,0.904868,-1.46507,-1.24131
140,-1,-1,-2,1,-2,0,-1,-1,0.84375,-0.0498047,0.23584,-45.75,58.5625,-31.9375,0.904868,-1.46507,-1.24131
180,-1,8,4,-9,0,-3,-1,-1,0.877441,-0.0380859,0.248535,-58.625,54.875,-31.9375,0.692104,-1.42005,-1.06778
180,1,0,-1,-4,-2,-3,-2,0,0.877441,-0.0380859,0.248535,-58.625,54.875,-31.9375,0.692104,-1.42005,-1.06778
181,-1,-9,-5,6,0,-3,1,0,0.877441,-0.0380859,0.248535,-58.625,54.875,-31.9375,0.692104,-1.42005,-1.06778
181,-1,-2,-2,0,-2,-2,-2,0,0.877441,-0.0380859,0.248535,-58.625,54.875,-31.9375,0.692104,-1.42005,-1.06778
184,0,3,1,-7,-2,-3,0,-1,0.877441,-0.0380859,0.248535,-58.625,54.875,-31.9375,0.692104,-1.42005,-1.06778
184,-2,2,1,-5,0,-1,-2,-1,0.877441,-0.0380859,0.248535,-58.625,54.875,-31.9375,0.692104,-1.42005,-1.06778
185,0,-6,-3,4,-1,1,0,-1,0.877441,-0.0380859,0.248535,-58.625,54.875,-31.9375,0.692104,-1.42005,-1.06778
185,-1,-2,-4,4,-2,1,0,-1,0.877441,-0.0380859,0.248535,-58.625,54.875,-31.9375,0.692104,-1.42005,-1.06778
192,0,6,0,-6,-3,-2,0,-2,0.893555,-0.034668,0.254883,-53.5,51,-31.9375,0.632883,-1.39878,-1.02747
192,1,3,4,-3,1,0,-1,-1,0.893555,-0.034668,0.254883,-53.5,51,-31.9375,0.632883,-1.39878,-1.02747
198,-3,-9,-4,4,0,-1,0,-1,0.893555,-0.034668,0.254883,-53.5,51,-31.9375,0.632883,-1.39878,-1.02747
198,-2,-3,-1,0,-1,-1,-1,-1,0.893555,-0.034668,0.254883,-53.5,51,-31.9375,0.632883,-1.39878,-1.02747
207,1,6,0,-4,-3,-1,-2,0,0.914551,-0.0112305,0.240234,-41.8125,45.9375,-29.75,0.594155,-1.37945,-1.00364
207,-1,2,-3,-2,-1,-1,0,-1,0.914551,-0.0112305,0.240234,-41.8125,45.9375,-29.75,0.594155,-1.37945,-1.00364
230,-2,-6,-3,3,0,-1,-1,0,0.914551,-0.0112305,0.240234,-41.8125,45.9375,-29.75,0.594155,-1.37945,-1.00364
230,0,-2,-2,-1,-3,-1,-1,-1,0.914551,-0.0112305,0.240234,-41.8125,45.9375,-29.75,0.594155,-1.37945,-1.00364
232,-2,3,1,-5,-3,-1,-2,-2,0.958008,0.0444336,0.19873,-31.3125,39.9375,-25.5625,0.573369,-1.36302,-0.993894
232,-1,-2,-1,-1,-1,1,-1,0,0.958008,0.0444336,0.19873,-31.3125,39.9375,-25.5625,0.573369,-1.36302,-0.993894
237,1,-3,-3,2,0,2,0,1,0.958008,0.0444336,0.19873,-31.3125,39.9375,-25.5625,0.573369,-1.36302,-0.993894
237,0,-3,-2,0,1,-1,-1,-1,0.958008,0.0444336,0.19873,-31.3125,39.9375,-25.5625,0.573369,-1.36302,-0.993894
253,0,1,1,-2,-1,-1,-1,0,0.962891,0.09375,0.186035,-25.9375,35.1875,-17.875,0.556062,-1.3495,-0.985536
253,-1,-1,0,0,-1,-1,0,0,0.962891,0.09375,0.186035,-25.9375,35.1875,-17.875,0.556062,-1.3495,-0.985536
259,-2,-4,-2,1,-1,-2,-1,-1,0.962891,0.09375,0.186035,-25.9375,35.1875,-17.875,0.556062,-1.3495,-0.985536
259,-1,-1,-2,-1,0,-1,-2,-2,0.962891,0.09375,0.186035,-25.9375,35.1875,-17.875,0.556062,-1.3495,-0.985536
267,-1,-1,1,0,-3,0,-2,0,0.925781,0.121582,0.15918,-20.5,31.4375,-9.5,0.539122,-1.33912,-0.975475
267,0,-2,0,-2,2,0,-1,0,0.925781,0.121582,0.15918,-20.5,31.4375,-9.5,0.539122,-1.33912,-0.975475
290,-1,-1,-1,0,-1,0,-2,-2,0.925781,0.121582,0.15918,-20.5,31.4375,-9.5,0.539122,-1.33912,-0.975475
290,-3,-3,-2,-1,-2,0,-1,-1,0.925781,0.121582,0.15918,-20.5,31.4375,-9.5,0.539122,-1.33912,-0.975475
291,-2,2,-1,-1,0,0,0,-2,0.891113,0.112305,0.149414,-10.5,28.6875,-2.5625,0.520191,-1.33059,-0.95949
291,-1,-1,-2,-1,-2,-1,-1,0,0.891113,0.112305,0.149414,-10.5,28.6875,-2.5625,0.520191,-1.33059,-0.95949
313,1,-1,-2,0,0,0,0,1,0.891113,0.112305,0.149414,-10.5,28.6875,-2.5625,0.520191,-1.33059,-0.95949
313,-2,2,-2,1,1,-2,-2,-2,0.891113,0.112305,0.149414,-10.5,28.6875,-2.5625,0.520191,-1.33059,-0.95949
314,0,2,1,-4,0,-1,-2,0,0.884277,0.104004,0.129395,1.5,27.8125,1.6875,0.501796,-1.32357,-0.939773
314,-3,-1,0,-2,-2,-2,-1,-2,0.884277,0.104004,0.129395,1.5,27.8125,1.6875,0.501796,-1.32357,-0.939773
319,-4,0,-1,1,0,0,1,0,0.884277,0.104004,0.129395,1.5,27.8125,1.6875,0.501796,-1.32357,-0.939773
319,-2,0,-1,-2,2,1,-1,-1,0.884277,0.104004,0.129395,1.5,27.8125,1.6875,0.501796,-1.32357,-0.939773
335,-2,-2,1,-3,0,-1,-2,-1,0.861816,0.128418,0.135254,8.75,29,5.4375,0.484959,-1.31689,-0.919034
335,1,-3,0,-2,-1,-1,0,-1,0.861816,0.128418,0.135254,8.75,29,5.4375,0.484959,-1.31689,-0.919034
342,-2,-3,-1,-1,-1,-2,-2,-1,0.861816,0.128418,0.135254,8.75,29,5.4375,0.484959,-1.31689,-0.919034
342,0,1,-1,-2,-2,-2,-1,0,0.861816,0.128418,0.135254,8.75,29,5.4375,0.484959,-1.31689,-0.919034
358,2,2,-2,-2,1,-2,0,-1,0.819336,0.121582,0.153809,13.8125,27.625,9.1875,0.465893,-1.31033,-0.89398
358,-4,-2,-2,0,-1,-1,-2,-3,0.819336,0.121582,0.153809,13.8125,27.625,9.1875,0.465893,-1.31033,-0.89398
364,-2,-2,0,1,-1,0,-1,0,0.819336,0.121582,0.153809,13.8125,27.625,9.1875,0.465893,-1.31033,-0.89398
364,-3,0,-1,-2,-3,-1,0,0,0.819336,0.121582,0.153809,13.8125,27.625,9.1875,0.465893,-1.31033,-0.89398
380,0,1,0,-2,0,0,-1,0,0.823242,0.102051,0.176758,16.75,24.125,11.1875,0.446347,-1.30478,-0.867609
380,1,0,-1,0,-1,-2,-1,-1,0.823242,0.102051,0.176758,16.75,24.125,11.1875,0.446347,-1.30478,-0.867609
381,0,-1,0,1,-1,-2,-3,-2,0.823242,0.102051,0.176758,16.75,24.125,11.1875,0.446347,-1.30478,-0.867609
381,1,2,-2,-1,-1,-3,1,0,0.823242,0.102051,0.176758,16.75,24.125,11.1875,0.446347,-1.30478,-0.867609
387,-2,-2,-2,-4,-2,-2,-1,-1,0.865234,0.0957031,0.180176,19.4375,21.5,12.75,0.428006,-1.30089,-0.841513
387,-1,1,0,1,-1,0,0,-1,0.865234,0.0957031,0.180176,19.4375,21.5,12.75,0.428006,-1.30089,-0.841513
402,-3,-2,-3,-2,-2,0,-1,-1,0.865234,0.0957031,0.180176,19.4375,21.5,12.75,0.428006,-1.30089,-0.841513
402,0,-1,0,-3,-1,0,-1,0,0.865234,0.0957031,0.180176,19.4375,21.5,12.75,0.428006,-1.30089,-0.841513
410,-1,-2,-1,1,0,1,-1,-2,0.899414,0.104004,0.20459,19.0625,19,12.375,0.411958,-1.29709,-0.817835
410,1,-2,1,-1,-2,-3,0,-1,0.899414,0.104004,0.20459,19.0625,19,12.375,0.411958,-1.29709,-0.817835
424,2,-1,-2,-1,-1,-1,0,-1,0.899414,0.104004,0.20459,19.0625,19,12.375,0.411958,-1.29709,-0.817835
424,1,1,2,-1,-1,-1,0,-4,0.899414,0.104004,0.20459,19.0625,19,12.375,0.411958,-1.29709,-0.817835
433,-2,-2,-1,-3,-3,0,-1,-2,0.875977,0.116211,0.209961,15.0625,15.75,14.3125,0.395733,-1.29421,-0.795281
433,-1,-3,-1,1,-1,0,0,0,0.875977,0.116211,0.209961,15.0625,15.75,14.3125,0.395733,-1.29421,-0.795281
439,1,-1,-2,0,-1,1,-2,-1,0.875977,0.116211,0.209961,15.0625,15.75,14.3125,0.395733,-1.29421,-0.795281
439,-1,0,-1,0,1,1,0,0,0.875977,0.116211,0.209961,15.0625,15.75,14.3125,0.395733,-1.29421,-0.795281
447,0,-1,0,-1,1,-1,0,0,0.873047,0.128906,0.211914,10.875,11.0625,15,0.381086,-1.29261,-0.775835
447,-2,-3,-2,1,-1,-1,0,0,0.873047,0.128906,0.211914,10.875,11.0625,15,0.381086,-1.29261,-0.775835
461,0,-1,0,-1,-1,-2,-2,0,0.873047,0.128906,0.211914,10.875,11.0625,15,0.381086,-1.29261,-0.775835
461,-3,-1,-1,-1,0,-2,0,-1,0.873047,0.128906,0.211914,10.875,11.0625,15,0.381086,-1.29261,-0.775835
470,-1,-2,0,-1,-2,-1,1,-2,0.904297,0.133301,0.226562,8.5,8.4375,15.5,0.366315,-1.2918,-0.757028
470,1,-3,-2,-2,0,-2,-2,0,0.904297,0.133301,0.226562,8.5,8.4375,15.5,0.366315,-1.2918,-0.757028
483,-1,-2,-1,1,-1,0,1,-1,0.904297,0.133301,0.226562,8.5,8.4375,15.5,0.366315,-1.2918,-0.757028
483,1,6,1,-1,-2,0,-2,0,0.904297,0.133301,0.226562,8.5,8.4375,15.5,0.366315,-1.2918,-0.757028
509,1,-1,0,-2,-2,1,-2,-1,0.888672,0.138184,0.237793,5.3125,7,14.25,0.353399,-1.29096,-0.741306
509,-1,-3,-2,1,0,-3,1,-1,0.888672,0.138184,0.237793,5.3125,7,14.25,0.353399,-1.29096,-0.741306
510,-1,0,-1,0,1,-2,-1,-2,0.888672,0.138184,0.237793,5.3125,7,14.25,0.353399,-1.29096,-0.741306
510,-2,0,-1,-2,-1,-2,0,-2,0.888672,0.138184,0.237793,5.3125,7,14.25,0.353399,-1.29096,-0.741306
513,3,2,-1,1,0,0,-1,1,0.859375,0.142578,0.23877,-1.5,4.1875,13.125,0.34066,-1.29055,-0.728327
513,3,-1,-2,0,-2,1,-1,0,0.859375,0.142578,0.23877,-1.5,4.1875,13.125,0.34066,-1.29055,-0.728327
521,-4,0,-3,0,0,0,1,-1,0.859375,0.142578,0.23877,-1.5,4.1875,13.125,0.34066,-1.29055,-0.728327
521,-2,-2,5,-2,-2,0,0,0,0.859375,0.142578,0.23877,-1.5,4.1875,13.125,0.34066,-1.29055,-0.728327
530,-1,-1,-4,-4,0,-1,-1,-2,0.842285,0.150879,0.243164,-7.875,1.6875,14.5625,0.326477,-1.29092,-0.715849
530,-2,-2,2,-1,-1,-2,-2,0,0.842285,0.150879,0.243164,-7.875,1.6875,14.5625,0.326477,-1.29092,-0.715849
544,0,-1,0,0,-2,-1,-1,0,0.842285,0.150879,0.243164,-7.875,1.6875,14.5625,0.326477,-1.29092,-0.715849
544,2,0,0,-2,-2,-1,-1,-1,0.842285,0.150879,0.243164,-7.875,1.6875,14.5625,0.326477,-1.29092,-0.715849
568,-1,1,1,-1,-4,-1,1,0,0.821289,0.137207,0.237793,-5.75,0.5625,16.125,0.310722,-1.29149,-0.701164
568,-1,1,0,1,-2,0,0,0,0.821289,0.137207,0.237793,-5.75,0.5625,16.125,0.310722,-1.29149,-0.701164
570,-6,-5,-3,-2,-2,-2,-2,-3,0.821289,0.137207,0.237793,-5.75,0.5625,16.125,0.310722,-1.29149,-0.701164
570,-4,-2,-2,0,0,-1,0,-3,0.821289,0.137207,0.237793,-5.75,0.5625,16.125,0.310722,-1.29149,-0.701164
574,0,-1,0,-1,0,-2,-1,-1,0.837891,0.126953,0.265625,-1.5625,0.3125,16.375,0.294934,-1.29193,-0.684972
574,-3,0,0,-2,-1,-1,-1,0,0.837891,0.126953,0.265625,-1.5625,0.3125,16.375,0.294934,-1.29193,-0.684972
590,4,4,0,0,-3,-1,0,0,0.837891,0.126953,0.265625,-1.5625,0.3125,16.375,0.294934,-1.29193,-0.684972
590,3,1,-2,-4,0,-3,-1,0,0.837891,0.126953,0.265625,-1.5625,0.3125,16.375,0.294934,-1.29193,-0.684972
591,-1,0,1,-2,-1,-2,-1,-1,0.839844,0.102539,0.275879,1.5625,-1.1875,16.3125,0.278401,-1.29263,-0.667071
591,-1,-1,-2,-2,-1,2,-1,-4,0.839844,0.102539,0.275879,1.5625,-1.1875,16.3125,0.278401,-1.29263,-0.667071
612,-1,-3,0,0,-1,0,0,-1,0.839844,0.102539,0.275879,1.5625,-1.1875,16.3125,0.278401,-1.29263,-0.667071
612,0,1,-1,-2,-1,0,-2,-1,0.839844,0.102539,0.275879,1.5625,-1.1875,16.3125,0.278401,-1.29263,-0.667071
615,0,1,0,-1,1,-2,-1,-2,0.831543,0.0908203,0.26709,4.0625,-3.5625,16.375,0.263377,-1.29441,-0.649812
615,1,-1,1,1,1,0,-1,-2,0.831543,0.0908203,0.26709,4.0625,-3.5625,16.375,0.263377,-1.29441,-0.649812
619,1,0,-1,0,0,-1,0,0,0.831543,0.0908203,0.26709,4.0625,-3.5625,16.375,0.263377,-1.29441,-0.649812
619,0,0,-1,-3,-1,0,-1,-1,0.831543,0.0908203,0.26709,4.0625,-3.5625,16.375,0.263377,-1.29441,-0.649812
634,1,-1,1,0,-1,-1,0,-1,0.826172,0.0878906,0.266602,5.375,-4.5,15.4375,0.249939,-1.29603,-0.633704
634,-4,-5,-2,1,-2,-1,-1,-1,0.826172,0.0878906,0.266602,5.375,-4.5,15.4375,0.249939,-1.29603,-0.633704
641,-2,-2,-2,0,-2,0,-1,-2,0.826172,0.0878906,0.266602,5.375,-4.5,15.4375,0.249939,-1.29603,-0.633704
641,0,-2,-3,-2,-1,-1,-1,1,0.826172,0.0878906,0.266602,5.375,-4.5,15.4375,0.249939,-1.29603,-0.633704
650,1,0,0,-2,0,0,-1,-1,0.831055,0.0869141,0.25,3.0625,-3.75,13.75,0.23788,-1.29757,-0.619883
650,-3,-5,-3,-2,-2,-1,0,-2,0.831055,0.0869141,0.25,3.0625,-3.75,13.75,0.23788,-1.29757,-0.619883
663,-1,-1,0,-1,-3,-1,-1,-1,0.831055,0.0869141,0.25,3.0625,-3.75,13.75,0.23788,-1.29757,-0.619883
663,-1,0,1,-2,-1,0,-2,-3,0.831055,0.0869141,0.25,3.0625,-3.75,13.75,0.23788,-1.29757,-0.619883
672,-1,3,0,-2,-1,-1,0,-1,0.824707,0.0913086,0.248047,0.6875,-2.9375,14.3125,0.224217,-1.29884,-0.605181
672,3,1,2,1,-1,1,-2,0,0.824707,0.0913086,0.248047,0.6875,-2.9375,14.3125,0.224217,-1.29884,-0.605181
678,-1,-2,0,0,1,-3,-1,-1,0.824707,0.0913086,0.248047,0.6875,-2.9375,14.3125,0.224217,-1.29884,-0.605181
678,1,2,0,-2,-1,-2,-1,0,0.824707,0.0913086,0.248047,0.6875,-2.9375,14.3125,0.224217,-1.29884,-0.605181
694,-3,-2,-1,-2,-1,-3,0,-1,0.82959,0.0771484,0.239258,2.25,-3.375,15.0625,0.210025,-1.30057,-0.589427
694,1,0,-1,-2,-1,-1,-1,0,0.82959,0.0771484,0.239258,2.25,-3.375,15.0625,0.210025,-1.30057,-0.589427
702,-2,1,-3,-1,0,0,-1,-3,0.82959,0.0771484,0.239258,2.25,-3.375,15.0625,0.210025,-1.30057,-0.589427
702,1,2,-1,-2,0,1,-1,0,0.82959,0.0771484,0.239258,2.25,-3.375,15.0625,0.210025,-1.30057,-0.589427
710,-2,-3,0,-1,-1,-1,-3,-2,0.845215,0.065918,0.231445,3.9375,-3.9375,13.9375,0.196928,-1.30284,-0.574358
710,0,-3,-2,1,0,-1,1,0,0.845215,0.065918,0.231445,3.9375,-3.9375,13.9375,0.196928,-1.30284,-0.574358
724,0,-4,0,-1,2,-1,-1,0,0.845215,0.065918,0.231445,3.9375,-3.9375,13.9375,0.196928,-1.30284,-0.574358
724,-6,-2,-3,-2,-1,0,-2,-3,0.845215,0.065918,0.231445,3.9375,-3.9375,13.9375,0.196928,-1.30284,-0.574358
732,-4,-1,-1,-1,-2,-1,-1,-2,0.851074,0.0620117,0.217773,2.875,-3.875,13.5,0.18375,-1.30515,-0.559515
732,0,-6,-3,0,-1,-1,-1,-1,0.851074,0.0620117,0.217773,2.875,-3.875,13.5,0.18375,-1.30515,-0.559515
739,-1,0,-2,0,0,1,-1,-2,0.851074,0.0620117,0.217773,2.875,-3.875,13.5,0.18375,-1.30515,-0.559515
739,2,3,1,-1,-2,-1,-1,0,0.851074,0.0620117,0.217773,2.875,-3.875,13.5,0.18375,-1.30515,-0.559515
754,-4,-4,-4,-4,-3,0,-3,-3,0.847656,0.0678711,0.229004,0.5,-3.5625,13.75,0.170139,-1.30709,-0.544985
754,-3,-4,-3,-1,0,0,-1,0,0.847656,0.0678711,0.229004,0.5,-3.5625,13.75,0.170139,-1.30709,-0.544985
761,0,-2,-1,0,-1,-1,0,3,0.847656,0.0678711,0.229004,0.5,-3.5625,13.75,0.170139,-1.30709,-0.544985
761,-4,-3,-3,-1,-2,-1,-1,-3,0.847656,0.0678711,0.229004,0.5,-3.5625,13.75,0.170139,-1.30709,-0.544985
777,1,4,0,-1,0,-1,-1,1,0.855957,0.0351562,0.238281,0.6875,-4.3125,13.5,0.153547,-1.30918,-0.527686
777,0,1,1,2,0,-3,-1,-1,0.855957,0.0351562,0.238281,0.6875,-4.3125,13.5,0.153547,-1.30918,-0.527686
784,-4,-5,0,1,-1,0,-1,-1,0.855957,0.0351562,0.238281,0.6875,-4.3125,13.5,0.153547,-1.30918,-0.527686
784,0,4,3,-2,-1,-2,0,-2,0.855957,0.0351562,0.238281,0.6875,-4.3125,13.5,0.153547,-1.30918,-0.527686
793,-1,1,-3,-3,-1,-2,0,-1,0.885742,0.0336914,0.223633,-1.5625,-4.3125,10.4375,0.140599,-1.31131,-0.514757
793,0,-2,-3,1,0,0,-2,-2,0.885742,0.0336914,0.223633,-1.5625,-4.3125,10.4375,0.140599,-1.31131,-0.514757
799,1,0,-2,0,1,-1,-1,-4,0.885742,0.0336914,0.223633,-1.5625,-4.3125,10.4375,0.140599,-1.31131,-0.514757
799,2,4,1,-2,-1,-1,0,0,0.885742,0.0336914,0.223633,-1.5625,-4.3125,10.4375,0.140599,-1.31131,-0.514757
822,0,7,-1,-2,-1,-1,-2,0,0.900879,0.0390625,0.219238,-3.6875,-3.875,10,0.127991,-1.3133,-0.50296
822,2,3,1,0,-1,0,-1,-1,0.900879,0.0390625,0.219238,-3.6875,-3.875,10,0.127991,-1.3133,-0.50296
822,-6,-2,-4,0,-1,-2,-2,-3,0.900879,0.0390625,0.219238,-3.6875,-3.875,10,0.127991,-1.3133,-0.50296
822,-3,-1,-3,-3,1,1,-1,-2,0.900879,0.0390625,0.219238,-3.6875,-3.875,10,0.127991,-1.3133,-0.50296
830,3,21,8,2,1,1,1,1,0.88916,0.0395508,0.217285,-4.0625,-3.75,9.8125,0.115483,-1.31532,-0.491386
830,0,-27,-7,2,0,0,0,-1,0.88916,0.0395508,0.217285,-4.0625,-3.75,9.8125,0.115483,-1.31532,-0.491386
844,-2,-1,0,-4,-3,-2,-3,-3,0.88916,0.0395508,0.217285,-4.0625,-3.75,9.8125,0.115483,-1.31532,-0.491386
844,6,-2,1,0,-2,0,-1,0,0.88916,0.0395508,0.217285,-4.0625,-3.75,9.8125,0.115483,-1.31532,-0.491386
869,-13,-8,-5,-5,-3,-4,-3,-4,0.881348,0.0180664,0.224609,0,-3.9375,10.5,0.10154,-1.31732,-0.477095
869,-2,6,3,3,1,1,2,0,0.881348,0.0180664,0.224609,0,-3.9375,10.5,0.10154,-1.31732,-0.477095
870,3,-3,2,3,1,0,1,1,0.881348,0.0180664,0.224609,0,-3.9375,10.5,0.10154,-1.31732,-0.477095
870,-2,-8,-10,-1,-1,-1,-1,0,0.881348,0.0180664,0.224609,0,-3.9375,10.5,0.10154,-1.31732,-0.477095
874,1,17,9,-2,-3,-1,-1,-1,0.915039,0.0161133,0.205078,0.5,-2.5625,8.625,0.0903526,-1.31887,-0.46524
874,-1,14,13,4,0,0,0,-1,0.915039,0.0161133,0.205078,0.5,-2.5625,8.625,0.0903526,-1.31887,-0.46524
890,-11,-59,-24,-6,-3,-2,0,-1,0.915039,0.0161133,0.205078,0.5,-2.5625,8.625,0.0903526,-1.31887,-0.46524
890,-2,5,2,-3,-3,-1,-2,-1,0.915039,0.0161133,0.205078,0.5,-2.5625,8.625,0.0903526,-1.31887,-0.46524
892,0,-32,-10,-4,-1,0,-1,-1,0.953613,0.0161133,0.230469,8.0625,-3.3125,7.375,0.0827758,-1.32089,-0.45461
892,-3,6,-7,-2,-2,-2,-1,-2,0.953613,0.0161133,0.230469,8.0625,-3.3125,7.375,0.0827758,-1.32089,-0.45461
913,2,8,0,1,0,-1,0,0,0.953613,0.0161133,0.230469,8.0625,-3.3125,7.375,0.0827758,-1.32089,-0.45461
913,0,13,1,-1,1,-1,1,0,0.953613,0.0161133,0.230469,8.0625,-3.3125,7.375,0.0827758,-1.32089,-0.45461
914,2,6,9,1,0,1,0,-2,1.00342,0.0336914,0.183594,2.1875,-2.3125,5,0.0791807,-1.32316,-0.449901
914,2,-2,1,3,2,0,-2,0,1.00342,0.0336914,0.183594,2.1875,-2.3125,5,0.0791807,-1.32316,-0.449901
918,9,60,-26,14,7,6,3,5,1.00342,0.0336914,0.183594,2.1875,-2.3125,5,0.0791807,-1.32316,-0.449901
918,-11,-29,40,-26,-13,-8,-9,-10,1.00342,0.0336914,0.183594,2.1875,-2.3125,5,0.0791807,-1.32316,-0.449901
936,-12,11,-4,-7,-6,-5,-4,-6,0.995605,0.0439453,0.241211,2.625,-0.6875,6.4375,0.0739211,-1.32392,-0.443447
936,-3,-52,-2,8,5,3,1,2,0.995605,0.0439453,0.241211,2.625,-0.6875,6.4375,0.0739211,-1.32392,-0.443447
942,-2,32,-20,-11,-6,-3,-3,-2,0.995605,0.0439453,0.241211,2.625,-0.6875,6.4375,0.0739211,-1.32392,-0.443447
942,-6,-20,-54,-2,1,1,0,-1,0.995605,0.0439453,0.241211,2.625,-0.6875,6.4375,0.0739211,-1.32392,-0.443447
957,4,-3,-12,3,1,1,1,1,1.02686,0.0419922,0.149414,-0.9375,-2.125,6,0.0687244,-1.3273,-0.4382
957,-5,-19,-9,-7,-6,-4,-1,-3,1.02686,0.0419922,0.149414,-0.9375,-2.125,6,0.0687244,-1.3273,-0.4382
964,4,-13,27,10,2,2,9,4,1.02686,0.0419922,0.149414,-0.9375,-2.125,6,0.0687244,-1.3273,-0.4382
964,1,32,-21,1,0,-1,-14,-2,1.02686,0.0419922,0.149414,-0.9375,-2.125,6,0.0687244,-1.3273,-0.4382
972,5,19,19,-4,-1,-2,-4,0,1.03613,0.0263672,0.128418,-6.6875,-1.625,3.1875,0.0637497,-1.33078,-0.435298
972,2,-2,-15,4,2,1,-1,1,1.03613,0.0263672,0.128418,-6.6875,-1.625,3.1875,0.0637497,-1.33078,-0.435298
987,12,41,37,3,0,2,-4,7,1.03613,0.0263672,0.128418,-6.6875,-1.625,3.1875,0.0637497,-1.33078,-0.435298
987,-3,-56,-25,1,-1,2,5,-3,1.03613,0.0263672,0.128418,-6.6875,-1.625,3.1875,0.0637497,-1.33078,-0.435298
993,-2,9,13,-5,-1,-1,0,-3,1.02002,-0.00537109,0.17627,-9.75,-2.5,5.5,0.0510359,-1.33316,-0.425717
993,29,75,-4,23,10,4,3,8,1.02002,-0.00537109,0.17627,-9.75,-2.5,5.5,0.0510359,-1.33316,-0.425717
1001,-3,-26,42,-19,-8,-3,0,-2,1.02002,-0.00537109,0.17627,-9.75,-2.5,5.5,0.0510359,-1.33316,-0.425717
1001,-32,112,23,-7,-4,-6,-4,-13,1.02002,-0.00537109,0.17627,-9.75,-2.5,5.5,0.0510359,-1.33316,-0.425717
1011,10,-45,0,10,6,4,2,8,1.02832,-0.0209961,0.256348,5.75,-3.1875,6.5625,0.0403647,-1.33419,-0.412905
1011,-10,51,36,-18,-13,-8,-6,-8,1.02832,-0.0209961,0.256348,5.75,-3.1875,6.5625,0.0403647,-1.33419,-0.412905
1023,2,-74,-11,4,-3,-3,-4,-2,1.02832,-0.0209961,0.256348,5.75,-3.1875,6.5625,0.0403647,-1.33419,-0.412905
1023,17,49,-8,3,1,0,2,8,1.02832,-0.0209961,0.256348,5.75,-3.1875,6.5625,0.0403647,-1.33419,-0.412905
1033,-9,13,6,-9,-5,-3,3,-5,1.04688,-0.0131836,0.141602,16.1875,-0.8125,6,0.0355712,-1.3377,-0.402398
1033,0,12,16,10,5,4,8,-3,1.04688,-0.0131836,0.141602,16.1875,-0.8125,6,0.0355712,-1.3377,-0.402398
1038,3,-19,-29,6,1,1,-7,6,1.04688,-0.0131836,0.141602,16.1875,-0.8125,6,0.0355712,-1.3377,-0.402398
1038,4,39,27,-3,-1,0,-2,0,1.04688,-0.0131836,0.141602,16.1875,-0.8125,6,0.0355712,-1.3377,-0.402398
1063,1,0,-22,-1,-1,-2,0,1,1.03809,0.0581055,0.137695,26.1875,-2.0625,4.625,0.0434535,-1.34068,-0.400742
1063,1,-63,-20,-5,-2,1,-3,2,1.03809,0.0581055,0.137695,26.1875,-2.0625,4.625,0.0434535,-1.34068,-0.400742
1064,-13,23,-38,0,0,0,10,-7,1.03809,0.0581055,0.137695,26.1875,-2.0625,4.625,0.0434535,-1.34068,-0.400742
1064,0,-66,-10,1,2,1,-6,-7,1.03809,0.0581055,0.137695,26.1875,-2.0625,4.625,0.0434535,-1.34068,-0.400742
1070,3,52,2,0,-2,-1,3,1,1.06396,0.108887,0.143555,13.375,-6.5,-1.75,0.0620582,-1.34486,-0.414426
1070,-11,-84,-32,-9,-6,-6,-13,-8,1.06396,0.108887,0.143555,13.375,-6.5,-1.75,0.0620582,-1.34486,-0.414426
1084,4,0,60,5,0,0,-2,-8,1.06396,0.108887,0.143555,13.375,-6.5,-1.75,0.0620582,-1.34486,-0.414426
1084,-6,12,-13,-5,-4,0,-3,-14,1.06396,0.108887,0.143555,13.375,-6.5,-1.75,0.0620582,-1.34486,-0.414426
1092,10,29,-17,5,4,1,6,8,1.06055,0.206055,0.158203,-9.25,-10.8125,-8.4375,0.0941863,-1.35019,-0.449601
1092,-19,-59,3,-12,-5,-4,4,7,1.06055,0.206055,0.158203,-9.25,-10.8125,-8.4375,0.0941863,-1.35019,-0.449601
1098,-9,11,1,-1,-3,-3,-3,-5,1.06055,0.206055,0.158203,-9.25,-10.8125,-8.4375,0.0941863,-1.35019,-0.449601
1098,16,29,30,6,4,3,4,9,1.06055,0.206055,0.158203,-9.25,-10.8125,-8.4375,0.0941863,-1.35019,-0.449601
1121,-1,14,7,-10,-6,-4,-5,-16,1.03125,0.253418,0.143555,-22.0625,-10.25,-13.8125,0.136,-1.35428,-0.499029
1121,-3,-39,-7,6,3,1,0,10,1.03125,0.253418,0.143555,-22.0625,-10.25,-13.8125,0.136,-1.35428,-0.499029
1122,0,-16,-8,-1,1,-2,-5,-3,1.03125,0.253418,0.143555,-22.0625,-10.25,-13.8125,0.136,-1.35428,-0.499029
1122,3,52,2,1,0,1,7,7,1.03125,0.253418,0.143555,-22.0625,-10.25,-13.8125,0.136,-1.35428,-0.499029
1131,-1,-35,-33,0,1,0,-4,-2,1.03271,0.194824,0.109863,-24.5,-9,-15.1875,0.173379,-1.35857,-0.54506
1131,-2,0,43,-1,-3,-4,-4,-3,1.03271,0.194824,0.109863,-24.5,-9,-15.1875,0.173379,-1.35857,-0.54506
1144,-2,-19,-11,-2,-1,-1,-1,-2,1.03271,0.194824,0.109863,-24.5,-9,-15.1875,0.173379,-1.35857,-0.54506
1144,3,23,4,-1,-2,-3,3,2,1.03271,0.194824,0.109863,-24.5,-9,-15.1875,0.173379,-1.35857,-0.54506
1153,-8,9,6,-1,0,-1,-5,1,1.04639,0.132812,0.106445,-30.8125,-7.25,-14.5,0.200504,-1.36247,-0.583298
1153,-4,4,-16,-2,-2,-1,-3,-8,1.04639,0.132812,0.106445,-30.8125,-7.25,-14.5,0.200504,-1.36247,-0.583298
1167,-2,-4,-12,-1,-2,-1,-2,1,1.04639,0.132812,0.106445,-30.8125,-7.25,-14.5,0.200504,-1.36247,-0.583298
1167,-11,-4,-18,-8,-3,0,6,1,1.04639,0.132812,0.106445,-30.8125,-7.25,-14.5,0.200504,-1.36247,-0.583298
1173,0,4,15,1,-1,-1,-19,-7,1.04932,0.11377,0.14209,-36.5625,-7.0625,-15.4375,0.225017,-1.36529,-0.621061
1173,4,-22,-4,2,-3,1,2,-3,1.04932,0.11377,0.14209,-36.5625,-7.0625,-15.4375,0.225017,-1.36529,-0.621061
1191,-3,-2,17,1,1,-1,-2,0,1.04932,0.11377,0.14209,-36.5625,-7.0625,-15.4375,0.225017,-1.36529,-0.621061
1191,2,20,-27,-7,2,-1,-1,4,1.04932,0.11377,0.14209,-36.5625,-7.0625,-15.4375,0.225017,-1.36529,-0.621061
1192,0,-18,-1,0,0,0,2,3,1.06494,0.065918,0.150391,-24.75,-7.375,-21.3125,0.256996,-1.36739,-0.66238
1192,5,32,-4,0,1,0,2,-1,1.06494,0.065918,0.150391,-24.75,-7.375,-21.3125,0.256996,-1.36739,-0.66238
1213,-5,1,11,2,-4,-2,-3,-2,1.06494,0.065918,0.150391,-24.75,-7.375,-21.3125,0.256996,-1.36739,-0.66238
1213,-3,28,6,-2,0,-2,-1,-2,1.06494,0.065918,0.150391,-24.75,-7.375,-21.3125,0.256996,-1.36739,-0.66238
1214,2,-26,14,1,-2,0,4,2,1.11621,0.0854492,0.142578,-5.4375,-6.8125,-27.1875,0.307433,-1.36858,-0.715531
1214,-3,-36,-39,-5,0,0,-1,-2,1.11621,0.0854492,0.142578,-5.4375,-6.8125,-27.1875,0.307433,-1.36858,-0.715531
1235,-1,-4,-40,-3,-1,1,0,-1,1.11621,0.0854492,0.142578,-5.4375,-6.8125,-27.1875,0.307433,-1.36858,-0.715531
1235,2,-14,-1,1,0,0,0,1,1.11621,0.0854492,0.142578,-5.4375,-6.8125,-27.1875,0.307433,-1.36858,-0.715531
1236,4,18,4,0,3,1,4,4,1.12939,0.167969,0.142578,6.125,-8.5,-31,0.376193,-1.36864,-0.783058
1236,-12,-20,29,0,-5,-3,-5,-6,1.12939,0.167969,0.142578,6.125,-8.5,-31,0.376193,-1.36864,-0.783058
1258,3,16,-17,1,0,0,0,3,1.12939,0.167969,0.142578,6.125,-8.5,-31,0.376193,-1.36864,-0.783058
1258,3,18,18,-3,-3,-2,-3,0,1.12939,0.167969,0.142578,6.125,-8.5,-31,0.376193,-1.36864,-0.783058
1259,0,19,16,1,1,0,1,0,1.10254,0.15332,0.11377,-2.625,-6.125,-31.5,0.439401,-1.36789,-0.848058
1259,4,-35,1,1,-2,-1,0,-2,1.10254,0.15332,0.11377,-2.625,-6.125,-31.5,0.439401,-1.36789,-0.848058
1264,-5,3,-2,-5,0,0,-1,-2,1.10254,0.15332,0.11377,-2.625,-6.125,-31.5,0.439401,-1.36789,-0.848058
1264,2,6,6,0,-2,-1,-2,0,1.10254,0.15332,0.11377,-2.625,-6.125,-31.5,0.439401,-1.36789,-0.848058
1272,0,-12,18,-1,-2,0,1,3,1.09766,0.0507812,0.043457,-23.25,0.8125,-22.375,0.467583,-1.36789,-0.88495
1272,-6,-23,8,2,1,0,-1,-1,1.09766,0.0507812,0.043457,-23.25,0.8125,-22.375,0.467583,-1.36789,-0.88495
1287,0,7,8,0,-1,-1,-1,-1,1.09766,0.0507812,0.043457,-23.25,0.8125,-22.375,0.467583,-1.36789,-0.88495
1287,0,46,-39,-7,-2,-2,-1,-1,1.09766,0.0507812,0.043457,-23.25,0.8125,-22.375,0.467583,-1.36789,-0.88495
1294,-11,-12,-14,-1,-4,-1,0,-1,1.07227,-0.00244141,0.105957,-17.9375,6.5625,-17.875,0.476672,-1.36624,-0.900873
1294,-2,-28,-4,3,-2,-2,-3,-6,1.07227,-0.00244141,0.105957,-17.9375,6.5625,-17.875,0.476672,-1.36624,-0.900873
1310,5,10,27,2,0,-1,0,2,1.07227,-0.00244141,0.105957,-17.9375,6.5625,-17.875,0.476672,-1.36624,-0.900873
1310,0,29,18,-2,0,-2,-2,-1,1.07227,-0.00244141,0.105957,-17.9375,6.5625,-17.875,0.476672,-1.36624,-0.900873
1311,-2,0,-8,-5,-2,-2,-2,-2,1.08008,-0.0146484,0.0996094,-11.375,13.6875,-15.4375,0.477586,-1.36287,-0.906144
1311,3,-26,-7,1,1,1,2,2,1.08008,-0.0146484,0.0996094,-11.375,13.6875,-15.4375,0.477586,-1.36287,-0.906144
1323,-3,17,-8,-1,0,-2,1,-1,1.08008,-0.0146484,0.0996094,-11.375,13.6875,-15.4375,0.477586,-1.36287,-0.906144
1323,-2,31,5,0,0,-1,-2,-3,1.08008,-0.0146484,0.0996094,-11.375,13.6875,-15.4375,0.477586,-1.36287,-0.906144
1332,0,-18,-15,-3,-1,-2,-1,1,1.07617,0.0356445,0.131348,0.3125,20.6875,-13.0625,0.477907,-1.35733,-0.906673
1332,1,-7,-2,3,0,0,-2,0,1.07617,0.0356445,0.131348,0.3125,20.6875,-13.0625,0.477907,-1.35733,-0.906673
1347,2,13,-3,-1,-3,0,-1,-1,1.07617,0.0356445,0.131348,0.3125,20.6875,-13.0625,0.477907,-1.35733,-0.906673
1347,-8,16,2,-7,-2,-1,-2,-3,1.07617,0.0356445,0.131348,0.3125,20.6875,-13.0625,0.477907,-1.35733,-0.906673
1354,-2,-4,4,-1,1,0,5,1,1.05908,0.0961914,0.204102,10.375,24.0625,-11.125,0.478636,-1.34798,-0.903598
1354,1,-14,-15,1,-1,-2,-10,0,1.05908,0.0961914,0.204102,10.375,24.0625,-11.125,0.478636,-1.34798,-0.903598
1377,-3,7,-5,0,-1,1,-2,-2,1.05908,0.0961914,0.204102,10.375,24.0625,-11.125,0.478636,-1.34798,-0.903598
1377,0,12,22,1,0,-1,-3,0,1.05908,0.0961914,0.204102,10.375,24.0625,-11.125,0.478636,-1.34798,-0.903598
1379,4,-5,-2,1,0,0,-1,4,1.05029,0.103516,0.208984,10.5,20.4375,-8.8125,0.479359,-1.34074,-0.900644
1379,-8,-2,-9,0,0,1,5,3,1.05029,0.103516,0.208984,10.5,20.4375,-8.8125,0.479359,-1.34074,-0.900644
1384,-4,4,-11,-7,-4,-4,-4,-6,1.05029,0.103516,0.208984,10.5,20.4375,-8.8125,0.479359,-1.34074,-0.900644
1384,4,10,10,-1,-2,-1,-1,-3,1.05029,0.103516,0.208984,10.5,20.4375,-8.8125,0.479359,-1.34074,-0.900644
1400,2,2,0,0,-1,-1,-2,-6,1.06934,0.140137,0.212402,-2.375,17.875,-8.0625,0.4793,-1.33386,-0.901243
1400,8,3,-12,7,1,2,4,9,1.06934,0.140137,0.212402,-2.375,17.875,-8.0625,0.4793,-1.33386,-0.901243
1407,-3,-13,10,-3,0,-1,-3,-1,1.06934,0.140137,0.212402,-2.375,17.875,-8.0625,0.4793,-1.33386,-0.901243
1407,-1,8,6,-4,-3,-4,-2,1,1.06934,0.140137,0.212402,-2.375,17.875,-8.0625,0.4793,-1.33386,-0.901243
1421,1,1,-1,-8,-4,-4,-3,-1,1.10742,0.0961914,0.246094,-11.3125,16.25,-6.3125,0.470416,-1.32777,-0.896181
1421,-7,-7,-5,0,-1,1,-1,-5,1.10742,0.0961914,0.246094,-11.3125,16.25,-6.3125,0.470416,-1.32777,-0.896181
1431,6,12,-4,0,0,1,4,5,1.10742,0.0961914,0.246094,-11.3125,16.25,-6.3125,0.470416,-1.32777,-0.896181
1431,-1,3,-4,-1,1,1,-2,-3,1.10742,0.0961914,0.246094,-11.3125,16.25,-6.3125,0.470416,-1.32777,-0.896181
1432,-1,-13,-6,0,0,-3,-1,1,1.08496,0.0292969,0.187012,-13.875,16.4375,-3.5,0.454034,-1.32457,-0.884771
1432,2,9,4,0,-3,-4,-1,-1,1.08496,0.0292969,0.187012,-13.875,16.4375,-3.5,0.454034,-1.32457,-0.884771
1444,-2,-9,-6,-2,-1,-1,0,-2,1.08496,0.0292969,0.187012,-13.875,16.4375,-3.5,0.454034,-1.32457,-0.884771
1444,2,1,5,-2,-1,1,-1,3,1.08496,0.0292969,0.187012,-13.875,16.4375,-3.5,0.454034,-1.32457,-0.884771
1452,-3,-3,-8,0,1,0,-2,-3,1.02148,0.0385742,0.166504,-9.8125,16.375,-2.625,0.440577,-1.32109,-0.874481
1452,5,-1,6,3,5,5,5,2,1.02148,0.0385742,0.166504,-9.8125,16.375,-2.625,0.440577,-1.32109,-0.874481
1466,-1,10,9,0,-7,-6,-3,0,1.02148,0.0385742,0.166504,-9.8125,16.375,-2.625,0.440577,-1.32109,-0.874481
1466,4,-9,2,-5,-2,-1,1,2,1.02148,0.0385742,0.166504,-9.8125,16.375,-2.625,0.440577,-1.32109,-0.874481
1474,-2,14,-7,-1,-2,0,-1,-1,0.999512,0.0776367,0.160156,-2.375,15.4375,-3.1875,0.434568,-1.31755,-0.869154
1474,-7,-5,-17,-4,-5,-6,-5,-6,0.999512,0.0776367,0.160156,-2.375,15.4375,-3.1875,0.434568,-1.31755,-0.869154
1490,-1,6,-8,-1,1,1,0,0,0.999512,0.0776367,0.160156,-2.375,15.4375,-3.1875,0.434568,-1.31755,-0.869154
1490,-8,13,12,1,1,1,1,-2,0.999512,0.0776367,0.160156,-2.375,15.4375,-3.1875,0.434568,-1.31755,-0.869154
1492,-3,-16,-5,-2,-2,0,-2,1,0.981445,0.09375,0.160156,7.125,9.4375,-7.5625,0.44285,-1.31554,-0.875043
1492,12,-2,0,-1,-1,2,1,3,0.981445,0.09375,0.160156,7.125,9.4375,-7.5625,0.44285,-1.31554,-0.875043
1512,-9,16,5,0,0,1,-4,-11,0.981445,0.09375,0.160156,7.125,9.4375,-7.5625,0.44285,-1.31554,-0.875043
1512,-8,-9,-9,-5,-4,-3,-3,-4,0.981445,0.09375,0.160156,7.125,9.4375,-7.5625,0.44285,-1.31554,-0.875043
1514,-7,-11,-1,1,1,-3,0,-6,1.00781,0.0991211,0.118652,0,8.3125,-3.5,0.445969,-1.31488,-0.878047
1514,9,-2,-1,1,-1,1,0,8,1.00781,0.0991211,0.118652,0,8.3125,-3.5,0.445969,-1.31488,-0.878047
1535,16,6,-5,-2,-2,0,3,11,1.00781,0.0991211,0.118652,0,8.3125,-3.5,0.445969,-1.31488,-0.878047
1535,-20,6,2,0,1,0,-3,-15,1.00781,0.0991211,0.118652,0,8.3125,-3.5,0.445969,-1.31488,-0.878047
1536,-9,-7,-5,0,0,0,13,16,1.02588,0.14209,0.126953,-6.6875,10.25,2.1875,0.442314,-1.31435,-0.876228
1536,-3,-1,-2,1,-2,-3,0,-24,1.02588,0.14209,0.126953,-6.6875,10.25,2.1875,0.442314,-1.31435,-0.876228
1550,-8,6,-4,-2,-3,-2,-14,-15,1.02588,0.14209,0.126953,-6.6875,10.25,2.1875,0.442314,-1.31435,-0.876228
1550,-4,-3,-1,-1,-1,-1,3,-13,1.02588,0.14209,0.126953,-6.6875,10.25,2.1875,0.442314,-1.31435,-0.876228
1556,14,-6,6,3,0,1,-5,22,1.0166,0.115723,0.151367,-15.125,15.1875,6.5625,0.42458,-1.31219,-0.86302
1556,-1,1,-1,2,0,-1,10,17,1.0166,0.115723,0.151367,-15.125,15.1875,6.5625,0.42458,-1.31219,-0.86302
1563,7,17,4,0,2,-2,1,-5,1.0166,0.115723,0.151367,-15.125,15.1875,6.5625,0.42458,-1.31219,-0.86302
1563,-7,-4,-6,-6,-2,0,10,1,1.0166,0.115723,0.151367,-15.125,15.1875,6.5625,0.42458,-1.31219,-0.86302
1572,5,-21,-6,0,3,5,23,-1,0.972168,0.0351562,0.17627,-19.0625,18.625,16.5,0.385387,-1.31072,-0.829573
1572,1,5,1,2,-2,-3,-12,4,0.972168,0.0351562,0.17627,-19.0625,18.625,16.5,0.385387,-1.31072,-0.829573
1587,10,9,1,-1,-3,-7,-18,3,0.972168,0.0351562,0.17627,-19.0625,18.625,16.5,0.385387,-1.31072,-0.829573
1587,-17,-3,-1,0,-3,-4,-8,50,0.972168,0.0351562,0.17627,-19.0625,18.625,16.5,0.385387,-1.31072,-0.829573
1593,-4,9,0,-2,-5,-6,-30,-55,0.965332,0.0527344,0.20459,-19.1875,19.5,17.5,0.346641,-1.3077,-0.796541
1593,6,1,2,-1,1,4,20,-4,0.965332,0.0527344,0.20459,-19.1875,19.5,17.5,0.346641,-1.3077,-0.796541
1609,17,1,5,-1,2,3,-12,25,0.965332,0.0527344,0.20459,-19.1875,19.5,17.5,0.346641,-1.3077,-0.796541
1609,-13,-1,-1,-2,0,-4,-24,-28,0.965332,0.0527344,0.20459,-19.1875,19.5,17.5,0.346641,-1.3077,-0.796541
1617,-3,-14,-5,1,-2,0,4,4,0.942383,0.0356445,0.20752,-17,19,15.0625,0.311529,-1.30436,-0.766567
1617,-3,5,-1,0,3,11,71,11,0.942383,0.0356445,0.20752,-17,19,15.0625,0.311529,-1.30436,-0.766567
1633,-15,-2,-3,-2,-1,-5,-11,-11,0.942383,0.0356445,0.20752,-17,19,15.0625,0.311529,-1.30436,-0.766567
1633,25,0,8,0,-2,-8,-34,-5,0.942383,0.0356445,0.20752,-17,19,15.0625,0.311529,-1.30436,-0.766567
1634,-5,-5,-4,-3,-3,-3,-21,-12,0.94873,0.0673828,0.233887,-21.9375,20.625,13.5,0.279859,-1.29903,-0.741489
1634,-18,17,3,-2,-1,-7,-30,-16,0.94873,0.0673828,0.233887,-21.9375,20.625,13.5,0.279859,-1.29903,-0.741489
1655,-5,-9,-7,-5,0,5,33,7,0.94873,0.0673828,0.233887,-21.9375,20.625,13.5,0.279859,-1.29903,-0.741489
1655,17,-27,-2,4,5,15,103,11,0.94873,0.0673828,0.233887,-21.9375,20.625,13.5,0.279859,-1.29903,-0.741489
1656,-7,-38,-4,2,-4,-3,-42,4,0.900391,0.0244141,0.247559,-29.375,18.375,15.8125,0.241574,-1.29445,-0.712556
1656,-1,8,1,-3,-3,-8,-42,-21,0.900391,0.0244141,0.247559,-29.375,18.375,15.8125,0.241574,-1.29445,-0.712556
1677,-4,5,-1,-1,0,1,35,18,0.900391,0.0244141,0.247559,-29.375,18.375,15.8125,0.241574,-1.29445,-0.712556
1677,4,3,-2,-1,-3,-9,-55,-10,0.900391,0.0244141,0.247559,-29.375,18.375,15.8125,0.241574,-1.29445,-0.712556
1679,8,16,-1,0,3,4,50,14,0.899902,-0.00439453,0.232422,-31.625,12.875,20.0625,0.19863,-1.29252,-0.679809
1679,-10,22,-2,0,-3,-4,-29,-4,0.899902,-0.00439453,0.232422,-31.625,12.875,20.0625,0.19863,-1.29252,-0.679809
1683,-7,40,3,-11,-7,-13,-78,-64,0.899902,-0.00439453,0.232422,-31.625,12.875,20.0625,0.19863,-1.29252,-0.679809
1683,-2,-6,3,-3,0,3,31,-42,0.899902,-0.00439453,0.232422,-31.625,12.875,20.0625,0.19863,-1.29252,-0.679809
1701,3,17,-1,1,2,3,21,17,0.873535,-0.0351562,0.255859,-31.6875,10.125,19,0.156068,-1.29031,-0.64755
1701,-3,6,-2,2,-3,-1,-7,18,0.873535,-0.0351562,0.255859,-31.6875,10.125,19,0.156068,-1.29031,-0.64755
1707,-3,22,1,0,2,1,38,16,0.873535,-0.0351562,0.255859,-31.6875,10.125,19,0.156068,-1.29031,-0.64755
1707,13,0,3,3,3,3,-6,9,0.873535,-0.0351562,0.255859,-31.6875,10.125,19,0.156068,-1.29031,-0.64755
1722,-13,-23,-7,-4,-3,-2,-3,-1,0.909668,-0.0166016,0.323242,-32.5,15.1875,9.1875,0.126122,-1.28448,-0.628681
1722,-2,3,-7,-6,-1,-2,-7,3,0.909668,-0.0166016,0.323242,-32.5,15.1875,9.1875,0.126122,-1.28448,-0.628681
1730,-6,-13,-2,-4,1,1,10,7,0.909668,-0.0166016,0.323242,-32.5,15.1875,9.1875,0.126122,-1.28448,-0.628681
1730,7,-6,-2,-1,-2,0,-7,2,0.909668,-0.0166016,0.323242,-32.5,15.1875,9.1875,0.126122,-1.28448,-0.628681
1744,-1,4,-5,5,1,-2,-11,33,0.845215,-0.0229492,0.318359,-31.5,18.5625,11,0.0952808,-1.27703,-0.6082
1744,-5,21,9,0,0,-1,7,-15,0.845215,-0.0229492,0.318359,-31.5,18.5625,11,0.0952808,-1.27703,-0.6082
1753,10,-2,-5,-2,-3,-3,-5,4,0.845215,-0.0229492,0.318359,-31.5,18.5625,11,0.0952808,-1.27703,-0.6082
1753,13,-19,-11,0,0,-3,-14,20,0.845215,-0.0229492,0.318359,-31.5,18.5625,11,0.0952808,-1.27703,-0.6082
1754,-2,8,-4,-1,-2,-3,4,-25,0.829102,-0.0175781,0.355469,-32.375,14.25,15,0.0621666,-1.27018,-0.585809
1754,-30,13,-1,-4,-4,1,1,-6,0.829102,-0.0175781,0.355469,-32.375,14.25,15,0.0621666,-1.27018,-0.585809
1768,-4,6,24,1,2,3,2,-7,0.829102,-0.0175781,0.355469,-32.375,14.25,15,0.0621666,-1.27018,-0.585809
1768,18,-2,-19,-6,-3,-2,-6,-8,0.829102,-0.0175781,0.355469,-32.375,14.25,15,0.0621666,-1.27018,-0.585809
1774,-4,-40,1,2,3,-1,-2,11,0.868652,-0.0957031,0.382812,-25.3125,6.3125,19.875,0.0220829,-1.26563,-0.553715
1774,-1,2,-12,-3,0,3,8,-14,0.868652,-0.0957031,0.382812,-25.3125,6.3125,19.875,0.0220829,-1.26563,-0.553715
1790,-29,23,6,-5,-3,-5,-12,-38,0.868652,-0.0957031,0.382812,-25.3125,6.3125,19.875,0.0220829,-1.26563,-0.553715
1790,25,7,8,8,3,4,26,63,0.868652,-0.0957031,0.382812,-25.3125,6.3125,19.875,0.0220829,-1.26563,-0.553715
1796,20,21,6,7,2,1,1,-13,0.973145,-0.109863,0.408691,-12.875,3.9375,16.3125,-0.00930798,-1.26212,-0.526418
1796,39,-25,-7,2,-1,1,1,22,0.973145,-0.109863,0.408691,-12.875,3.9375,16.3125,-0.00930798,-1.26212,-0.526418
1812,-59,-2,-11,-12,-5,-2,12,11,0.973145,-0.109863,0.408691,-12.875,3.9375,16.3125,-0.00930798,-1.26212,-0.526418
1812,-21,-1,32,0,1,-2,-24,-30,0.973145,-0.109863,0.408691,-12.875,3.9375,16.3125,-0.00930798,-1.26212,-0.526418
1815,-41,-22,-26,-8,-7,-5,-23,-27,1.04736,-0.0795898,0.476074,-8.1875,8.1875,16.875,-0.0351515,-1.25598,-0.502795
1815,3,42,-1,-2,-3,-6,-4,24,1.04736,-0.0795898,0.476074,-8.1875,8.1875,16.875,-0.0351515,-1.25598,-0.502795
1827,69,8,-2,2,2,8,44,28,1.04736,-0.0795898,0.476074,-8.1875,8.1875,16.875,-0.0351515,-1.25598,-0.502795
1827,-37,-63,-13,-1,-2,-1,-12,-21,1.04736,-0.0795898,0.476074,-8.1875,8.1875,16.875,-0.0351515,-1.25598,-0.502795
1834,10,18,38,18,7,5,13,9,1.03174,-0.0976562,0.496094,3.375,8.375,19.4375,-0.0595658,-1.24884,-0.476203
1834,-36,-34,-25,-8,-9,-7,-8,-24,1.03174,-0.0976562,0.496094,3.375,8.375,19.4375,-0.0595658,-1.24884,-0.476203
1850,-20,39,-6,-11,-8,-5,-16,-8,1.03174,-0.0976562,0.496094,3.375,8.375,19.4375,-0.0595658,-1.24884,-0.476203
1850,43,32,4,-1,0,-4,1,10,1.03174,-0.0976562,0.496094,3.375,8.375,19.4375,-0.0595658,-1.24884,-0.476203
1856,27,-42,2,7,3,6,11,-7,1.07764,-0.0751953,0.504883,16.1875,5.3125,21.6875,-0.078862,-1.24316,-0.450343
1856,11,-2,6,-2,-3,1,3,36,1.07764,-0.0751953,0.504883,16.1875,5.3125,21.6875,-0.078862,-1.24316,-0.450343
1873,21,2,10,2,3,-1,7,6,1.07764,-0.0751953,0.504883,16.1875,5.3125,21.6875,-0.078862,-1.24316,-0.450343
1873,-31,-59,-20,-1,2,0,-12,-28,1.07764,-0.0751953,0.504883,16.1875,5.3125,21.6875,-0.078862,-1.24316,-0.450343
1874,-25,19,-16,-2,-3,3,20,-2,1.30029,-0.00585938,0.443848,31.75,11.6875,33.5625,-0.0980787,-1.23835,-0.418063
1874,39,31,-1,-5,-6,-4,18,2,1.30029,-0.00585938,0.443848,31.75,11.6875,33.5625,-0.0980787,-1.23835,-0.418063
1886,48,17,-8,-6,-1,-1,-40,65,1.30029,-0.00585938,0.443848,31.75,11.6875,33.5625,-0.0980787,-1.23835,-0.418063
1886,-23,15,22,-9,-8,-11,-32,-43,1.30029,-0.00585938,0.443848,31.75,11.6875,33.5625,-0.0980787,-1.23835,-0.418063
1895,45,-80,16,-4,-1,-5,-5,20,1.3833,0.0458984,0.513672,30.8125,30.3125,38.1875,-0.11382,-1.22601,-0.388884
1895,-9,8,-26,5,1,10,7,-2,1.3833,0.0458984,0.513672,30.8125,30.3125,38.1875,-0.11382,-1.22601,-0.388884
1910,42,38,4,13,13,26,1,8,1.3833,0.0458984,0.513672,30.8125,30.3125,38.1875,-0.11382,-1.22601,-0.388884
1910,-12,-27,55,27,1,-11,22,22,1.3833,0.0458984,0.513672,30.8125,30.3125,38.1875,-0.11382,-1.22601,-0.388884
1916,8,27,-91,-23,-12,-6,4,32,1.41455,0.133301,0.489258,30.5,38.5625,48.4375,-0.13008,-1.21198,-0.358395
1916,35,2,59,-50,-37,-11,49,48,1.41455,0.133301,0.489258,30.5,38.5625,48.4375,-0.13008,-1.21198,-0.358395
1932,60,-27,-47,-14,-3,5,-8,-38,1.41455,0.133301,0.489258,30.5,38.5625,48.4375,-0.13008,-1.21198,-0.358395
1932,-77,28,-74,12,11,-15,-78,-10,1.41455,0.133301,0.489258,30.5,38.5625,48.4375,-0.13008,-1.21198,-0.358395
1935,-25,-27,41,33,24,-20,-50,-57,1.43164,0.26709,0.631836,7.8125,52.875,60.625,-0.1503,-1.1902,-0.330365
1935,67,27,20,34,50,33,57,74,1.43164,0.26709,0.631836,7.8125,52.875,60.625,-0.1503,-1.1902,-0.330365
1955,42,1,91,9,-81,-50,-34,-64,1.43164,0.26709,0.631836,7.8125,52.875,60.625,-0.1503,-1.1902,-0.330365
1955,-22,-30,-45,-78,-5,30,30,-58,1.43164,0.26709,0.631836,7.8125,52.875,60.625,-0.1503,-1.1902,-0.330365
1957,49,-7,-97,66,69,2,30,40,0.746582,0.294922,0.90625,36.3125,65.25,83.375,-0.169327,-1.15134,-0.291308
1957,25,17,21,64,40,17,-72,10,0.746582,0.294922,0.90625,36.3125,65.25,83.375,-0.169327,-1.15134,-0.291308
1977,111,-70,98,-13,-19,18,108,102,0.746582,0.294922,0.90625,36.3125,65.25,83.375,-0.169327,-1.15134,-0.291308
1977,-47,54,-98,-70,-80,-46,-83,-77,0.746582,0.294922,0.90625,36.3125,65.25,83.375,-0.169327,-1.15134,-0.291308
1979,36,21,22,-128,-110,-68,-64,-6,0.19043,0.0932617,0.636719,-51.75,41.5,31.4375,-0.193066,-1.12383,-0.282674
1979,81,-24,35,41,79,8,70,-6,0.19043,0.0932617,0.636719,-51.75,41.5,31.4375,-0.193066,-1.12383,-0.282674
2000,-43,30,71,127,119,25,29,-30,0.19043,0.0932617,0.636719,-51.75,41.5,31.4375,-0.193066,-1.12383,-0.282674
2000,77,2,49,100,17,28,49,86,0.19043,0.0932617,0.636719,-51.75,41.5,31.4375,-0.193066,-1.12383,-0.282674
2002,71,-49,8,-31,-16,-12,-41,65,-0.0478516,-0.331055,-0.265625,-82.375,-56.625,-4.875,-0.249297,-1.14698,-0.256684
2002,22,53,-35,-24,-34,9,33,-81,-0.0478516,-0.331055,-0.265625,-82.375,-56.625,-4.875,-0.249297,-1.14698,-0.256684
2006,-120,45,-35,-52,-6,-29,-13,-52,-0.0478516,-0.331055,-0.265625,-82.375,-56.625,-4.875,-0.249297,-1.14698,-0.256684
2006,-89,-22,1,-19,-22,-26,9,-37,-0.0478516,-0.331055,-0.265625,-82.375,-56.625,-4.875,-0.249297,-1.14698,-0.256684
2021,-11,-17,-5,-49,-28,25,-20,-50,2.41113,-0.407715,-0.491211,136.812,-37.125,-32.25,-0.183177,-1.16209,-0.276786
2021,35,1,9,19,-6,-14,-104,-3,2.41113,-0.407715,-0.491211,136.812,-37.125,-32.25,-0.183177,-1.16209,-0.276786
2029,-76,32,-61,-41,7,19,58,0,2.41113,-0.407715,-0.491211,136.812,-37.125,-32.25,-0.183177,-1.16209,-0.276786
2029,116,-21,19,10,-3,0,-21,51,2.41113,-0.407715,-0.491211,136.812,-37.125,-32.25,-0.183177,-1.16209,-0.276786
2044,46,-32,52,-9,-1,8,48,-41,1.10449,0.484375,-0.508301,179.188,22.75,38.5,-0.1418,-1.15787,-0.25259
2044,-128,-8,0,-17,4,-1,-23,-38,1.10449,0.484375,-0.508301,179.188,22.75,38.5,-0.1418,-1.15787,-0.25259
2053,2,43,-79,38,32,10,-1,3,1.10449,0.484375,-0.508301,179.188,22.75,38.5,-0.1418,-1.15787,-0.25259
2053,31,25,8,-73,-76,-23,11,49,1.10449,0.484375,-0.508301,179.188,22.75,38.5,-0.1418,-1.15787,-0.25259
2055,-14,-54,-18,-53,-46,12,4,-16,1.43652,0.487305,-0.112793,11.9375,13.375,20.875,-0.123581,-1.17004,-0.262912
2055,-7,4,13,56,74,-9,76,-7,1.43652,0.487305,-0.112793,11.9375,13.375,20.875,-0.123581,-1.17004,-0.262912
2067,-36,52,9,-6,-31,-19,-128,-30,1.43652,0.487305,-0.112793,11.9375,13.375,20.875,-0.123581,-1.17004,-0.262912
2067,-13,10,44,19,40,42,18,10,1.43652,0.487305,-0.112793,11.9375,13.375,20.875,-0.123581,-1.17004,-0.262912
2075,35,19,79,127,82,40,72,6,1.44727,0.0385742,0.394531,-39,37.375,21.6875,-0.144796,-1.16153,-0.253611
2075,-37,65,-43,-79,-2,-14,-70,4,1.44727,0.0385742,0.394531,-39,37.375,21.6875,-0.144796,-1.16153,-0.253611
2090,92,19,-70,-76,-78,-10,18,6,1.44727,0.0385742,0.394531,-39,37.375,21.6875,-0.144796,-1.16153,-0.253611
2090,89,-106,9,-91,-79,-80,-82,14,1.44727,0.0385742,0.394531,-39,37.375,21.6875,-0.144796,-1.16153,-0.253611
2097,-27,-33,-45,-73,-33,63,102,21,1.18262,0.0327148,0.572266,-29.75,59,12.4375,-0.150826,-1.14034,-0.257153
2097,-90,32,23,38,42,7,-30,-41,1.18262,0.0327148,0.572266,-29.75,59,12.4375,-0.150826,-1.14034,-0.257153
2112,15,6,106,95,91,29,2,-12,1.18262,0.0327148,0.572266,-29.75,59,12.4375,-0.150826,-1.14034,-0.257153
2112,-17,26,-15,-49,-23,-10,-7,14,1.18262,0.0327148,0.572266,-29.75,59,12.4375,-0.150826,-1.14034,-0.257153
2120,-44,0,-52,60,37,-13,27,-8,0.914062,-0.134766,0.619141,-47.375,70.875,4.375,-0.164004,-1.11145,-0.261112
2120,-49,-24,-39,-18,-18,-14,-82,-13,0.914062,-0.134766,0.619141,-47.375,70.875,4.375,-0.164004,-1.11145,-0.261112
2126,-39,-4,-55,-128,-76,-22,-3,35,0.914062,-0.134766,0.619141,-47.375,70.875,4.375,-0.164004,-1.11145,-0.261112
2126,-29,-36,72,87,22,22,18,-17,0.914062,-0.134766,0.619141,-47.375,70.875,4.375,-0.164004,-1.11145,-0.261112
2143,4,13,8,56,51,-25,-17,34,0.865723,-0.316895,0.614746,-50.1875,73.875,4.8125,-0.186762,-1.08137,-0.257683
2143,72,-32,-71,24,-44,1,53,5,0.865723,-0.316895,0.614746,-50.1875,73.875,4.8125,-0.186762,-1.08137,-0.257683
2150,-115,12,40,-51,-11,41,-36,-76,0.865723,-0.316895,0.614746,-50.1875,73.875,4.8125,-0.186762,-1.08137,-0.257683
2150,-57,-7,-17,11,32,18,90,12,0.865723,-0.316895,0.614746,-50.1875,73.875,4.8125,-0.186762,-1.08137,-0.257683
2164,86,115,57,56,-9,-2,-51,56,0.859375,-0.324219,0.590332,-29.5625,75.875,15.5625,-0.207302,-1.05111,-0.248631
2164,-71,-35,-41,-114,-92,-57,3,-74,0.859375,-0.324219,0.590332,-29.5625,75.875,15.5625,-0.207302,-1.05111,-0.248631
2173,99,-57,-28,41,88,10,-52,36,0.859375,-0.324219,0.590332,-29.5625,75.875,15.5625,-0.207302,-1.05111,-0.248631
2173,95,-45,52,96,89,55,99,41,0.859375,-0.324219,0.590332,-29.5625,75.875,15.5625,-0.207302,-1.05111,-0.248631
2174,-99,25,43,-80,-71,-26,-65,-65,0.780762,-0.329102,0.529297,-7.5,77.8125,16.9375,-0.219815,-1.02098,-0.240166
2174,14,-32,-34,-109,-2,-25,-10,3,0.780762,-0.329102,0.529297,-7.5,77.8125,16.9375,-0.219815,-1.02098,-0.240166
2186,43,-58,50,68,45,3,42,39,0.780762,-0.329102,0.529297,-7.5,77.8125,16.9375,-0.219815,-1.02098,-0.240166
2186,-64,12,6,-43,47,12,-56,-28,0.780762,-0.329102,0.529297,-7.5,77.8125,16.9375,-0.219815,-1.02098,-0.240166
2196,58,1,19,-17,-2,1,5,42,0.804199,-0.19043,0.465332,-6.5625,80.5,7.4375,-0.220435,-0.993692,-0.243487
2196,-35,16,-14,-39,-102,-31,32,-19,0.804199,-0.19043,0.465332,-6.5625,80.5,7.4375,-0.220435,-0.993692,-0.243487
2210,-13,-87,-60,-128,-92,-96,-90,-42,0.804199,-0.19043,0.465332,-6.5625,80.5,7.4375,-0.220435,-0.993692,-0.243487
2210,6,47,14,127,127,97,47,66,0.804199,-0.19043,0.465332,-6.5625,80.5,7.4375,-0.220435,-0.993692,-0.243487
2217,19,102,17,46,12,12,11,-27,0.822266,-0.21875,0.381348,-23.8125,83.6875,1.75,-0.225415,-0.967935,-0.249546
2217,-11,88,42,-17,29,21,-23,-43,0.822266,-0.21875,0.381348,-23.8125,83.6875,1.75,-0.225415,-0.967935,-0.249546
2232,63,-4,-38,52,-49,15,68,33,0.822266,-0.21875,0.381348,-23.8125,83.6875,1.75,-0.225415,-0.967935,-0.249546
2232,-59,-18,-17,-128,-48,-67,-26,-20,0.822266,-0.21875,0.381348,-23.8125,83.6875,1.75,-0.225415,-0.967935,-0.249546
2234,30,-12,56,44,-39,-8,-20,-11,0.764648,-0.208984,0.394531,-43.6875,81.5625,-5.75,-0.233574,-0.94313,-0.260136
2234,34,-11,-28,-7,-8,7,-35,29,0.764648,-0.208984,0.394531,-43.6875,81.5625,-5.75,-0.233574,-0.94313,-0.260136
2256,-28,-57,58,-54,-11,-10,85,42,0.764648,-0.208984,0.394531,-43.6875,81.5625,-5.75,-0.233574,-0.94313,-0.260136
2256,24,-37,-3,81,27,0,-48,-6,0.764648,-0.208984,0.394531,-43.6875,81.5625,-5.75,-0.233574,-0.94313,-0.260136
2257,-40,-3,-38,15,108,51,54,1,0.786621,-0.260742,0.474121,-58.375,81.125,-13.8125,-0.244441,-0.918165,-0.2746
2257,32,42,115,127,27,23,-23,12,0.786621,-0.260742,0.474121,-58.375,81.125,-13.8125,-0.244441,-0.918165,-0.2746
2278,20,-5,-7,-37,-89,-10,2,67,0.786621,-0.260742,0.474121,-58.375,81.125,-13.8125,-0.244441,-0.918165,-0.2746
2278,-4,-24,-84,-128,-128,-50,-22,-109,0.786621,-0.260742,0.474121,-58.375,81.125,-13.8125,-0.244441,-0.918165,-0.2746
2279,-93,-32,-80,-17,-55,-32,16,-28,0.722656,-0.286621,0.472656,-63.5,82.875,-14.375,-0.257495,-0.892357,-0.289144
2279,22,-13,-10,15,88,-25,-11,24,0.722656,-0.286621,0.472656,-63.5,82.875,-14.375,-0.257495,-0.892357,-0.289144
2308,39,24,25,106,105,79,3,-7,0.722656,-0.286621,0.472656,-63.5,82.875,-14.375,-0.257495,-0.892357,-0.289144
2308,23,-1,-29,26,-55,7,20,-4,0.722656,-0.286621,0.472656,-63.5,82.875,-14.375,-0.257495,-0.892357,-0.289144
2310,45,38,3,-103,18,-19,-44,0,0.593262,-0.277344,0.5,-65.875,87.1875,-19.625,-0.268032,-0.863713,-0.307925
2310,22,28,50,47,-27,-2,36,-15,0.593262,-0.277344,0.5,-65.875,87.1875,-19.625,-0.268032,-0.863713,-0.307925
2310,-108,-15,-99,-102,-98,-29,-17,-58,0.593262,-0.277344,0.5,-65.875,87.1875,-19.625,-0.268032,-0.863713,-0.307925
2310,50,-19,-9,-39,65,1,19,7,0.593262,-0.277344,0.5,-65.875,87.1875,-19.625,-0.268032,-0.863713,-0.307925
2322,3,10,45,77,68,8,-44,26,0.39502,-0.322754,0.537109,-64.1875,92.3125,-25.625,-0.276957,-0.830737,-0.329472
2322,8,48,56,-98,-73,7,16,52,0.39502,-0.322754,0.537109,-64.1875,92.3125,-25.625,-0.276957,-0.830737,-0.329472
2329,23,-6,-10,-29,-4,-23,-22,-41,0.39502,-0.322754,0.537109,-64.1875,92.3125,-25.625,-0.276957,-0.830737,-0.329472
2329,9,-30,14,23,-63,-5,7,7,0.39502,-0.322754,0.537109,-64.1875,92.3125,-25.625,-0.276957,-0.830737,-0.329472
2344,42,-21,-108,-115,-39,-5,5,18,0.351562,-0.335938,0.617188,-58.0625,94.625,-32,-0.281457,-0.796005,-0.354588
2344,-27,19,33,52,16,8,-10,-12,0.351562,-0.335938,0.617188,-58.0625,94.625,-32,-0.281457,-0.796005,-0.354588
2353,-29,13,77,81,46,-1,9,12,0.351562,-0.335938,0.617188,-58.0625,94.625,-32,-0.281457,-0.796005,-0.354588
2353,-28,-15,-11,-35,29,-18,23,-53,0.351562,-0.335938,0.617188,-58.0625,94.625,-32,-0.281457,-0.796005,-0.354588
2354,-25,18,49,127,28,32,-13,18,0.371094,-0.282227,0.632324,-50.75,95.5625,-27.5,-0.284014,-0.761472,-0.378325
2354,22,7,6,-4,49,11,8,-26,0.371094,-0.282227,0.632324,-50.75,95.5625,-27.5,-0.284014,-0.761472,-0.378325
2366,-35,-10,-55,-96,-109,12,12,-22,0.371094,-0.282227,0.632324,-50.75,95.5625,-27.5,-0.284014,-0.761472,-0.378325
2366,13,-12,-7,33,44,-21,-42,9,0.371094,-0.282227,0.632324,-50.75,95.5625,-27.5,-0.284014,-0.761472,-0.378325
2375,-38,-11,-5,-41,21,20,50,4,0.398438,-0.27002,0.632812,-47.75,94.375,-19.125,-0.288665,-0.727989,-0.39803
2375,6,15,19,76,76,13,-8,-10,0.398438,-0.27002,0.632812,-47.75,94.375,-19.125,-0.288665,-0.727989,-0.39803
2389,65,15,7,89,25,-20,21,31,0.398438,-0.27002,0.632812,-47.75,94.375,-19.125,-0.288665,-0.727989,-0.39803
2389,27,9,22,-66,-48,33,-11,-14,0.398438,-0.27002,0.632812,-47.75,94.375,-19.125,-0.288665,-0.727989,-0.39803
2396,-92,-95,-9,27,-118,-42,-57,-39,0.397461,-0.324219,0.655273,-42.9375,94.6875,-15.9375,-0.294791,-0.693981,-0.415038
2396,22,-122,-3,-74,-46,-18,5,59,0.397461,-0.324219,0.655273,-42.9375,94.6875,-15.9375,-0.294791,-0.693981,-0.415038
2412,51,-124,42,21,101,6,-18,-23,0.397461,-0.324219,0.655273,-42.9375,94.6875,-15.9375,-0.294791,-0.693981,-0.415038
2412,65,-68,-32,72,-11,10,-18,20,0.397461,-0.324219,0.655273,-42.9375,94.6875,-15.9375,-0.294791,-0.693981,-0.415038
2414,-84,23,18,-119,-30,-19,29,-91,0.374512,-0.273438,0.648926,-28.5625,95.125,-13.5,-0.295553,-0.660354,-0.431909
2414,16,69,14,60,62,14,-10,44,0.374512,-0.273438,0.648926,-28.5625,95.125,-13.5,-0.295553,-0.660354,-0.431909
2426,-16,110,25,68,72,16,0,5,0.374512,-0.273438,0.648926,-28.5625,95.125,-13.5,-0.295553,-0.660354,-0.431909
2426,26,123,-24,-71,-60,-12,23,45,0.374512,-0.273438,0.648926,-28.5625,95.125,-13.5,-0.295553,-0.660354,-0.431909
2450,-6,127,18,-83,-113,-38,1,2,0.333496,-0.221191,0.65918,-32.875,89.625,-14.4375,-0.297062,-0.628393,-0.448943
2450,-50,80,-38,19,13,-46,19,-14,0.333496,-0.221191,0.65918,-32.875,89.625,-14.4375,-0.297062,-0.628393,-0.448943
2451,19,55,-25,-65,4,58,-17,30,0.333496,-0.221191,0.65918,-32.875,89.625,-14.4375,-0.297062,-0.628393,-0.448943
2451,-12,31,26,127,80,96,13,-21,0.333496,-0.221191,0.65918,-32.875,89.625,-14.4375,-0.297062,-0.628393,-0.448943
2463,-30,62,-14,0,15,-31,-17,11,0.375,-0.189453,0.711426,-31.875,86.4375,-12.375,-0.298188,-0.5983,-0.465359
2463,8,37,-24,-85,-66,-13,-6,-8,0.375,-0.189453,0.711426,-31.875,86.4375,-12.375,-0.298188,-0.5983,-0.465359
2471,-3,29,-8,10,-37,-43,-68,-3,0.375,-0.189453,0.711426,-31.875,86.4375,-12.375,-0.298188,-0.5983,-0.465359
2471,14,7,20,-116,-45,-4,88,26,0.375,-0.189453,0.711426,-31.875,86.4375,-12.375,-0.298188,-0.5983,-0.465359
2487,45,12,13,88,63,12,-62,3,0.323242,-0.214844,0.790527,-30.625,78.625,-11.5625,-0.300136,-0.569201,-0.480158
2487,-80,-11,-31,-4,-54,-14,-13,-34,0.323242,-0.214844,0.790527,-30.625,78.625,-11.5625,-0.300136,-0.569201,-0.480158
2488,7,-7,6,-66,41,-2,3,-17,0.323242,-0.214844,0.790527,-30.625,78.625,-11.5625,-0.300136,-0.569201,-0.480158
2488,-6,-10,21,107,17,-19,-23,33,0.323242,-0.214844,0.790527,-30.625,78.625,-11.5625,-0.300136,-0.569201,-0.480158
2495,24,-19,-37,-84,-34,-7,14,5,0.171387,-0.148926,0.781738,-17.1875,73.75,-9.1875,-0.297072,-0.539135,-0.493907
2495,-8,-13,45,64,26,23,7,-34,0.171387,-0.148926,0.781738,-17.1875,73.75,-9.1875,-0.297072,-0.539135,-0.493907
2510,5,8,81,57,29,19,57,49,0.171387,-0.148926,0.781738,-17.1875,73.75,-9.1875,-0.297072,-0.539135,-0.493907
2510,-35,-42,-84,-51,-19,-25,-50,-36,0.171387,-0.148926,0.781738,-17.1875,73.75,-9.1875,-0.297072,-0.539135,-0.493907
2517,23,-14,-40,43,24,0,7,-11,0.161621,-0.128418,0.79248,-13.625,61.8125,-7.1875,-0.293594,-0.513085,-0.505614
2517,15,-12,-44,-120,-88,9,-14,17,0.161621,-0.128418,0.79248,-13.625,61.8125,-7.1875,-0.293594,-0.513085,-0.505614
2531,-7,-37,-32,-106,-94,-51,-10,-8,0.161621,-0.128418,0.79248,-13.625,61.8125,-7.1875,-0.293594,-0.513085,-0.505614
2531,48,14,78,26,80,-24,6,33,0.161621,-0.128418,0.79248,-13.625,61.8125,-7.1875,-0.293594,-0.513085,-0.505614
2539,-48,-29,25,110,74,66,18,7,0.328613,-0.116211,0.779785,-7.625,57.25,0.9375,-0.290132,-0.491903,-0.513249
2539,44,0,-5,-3,-41,14,33,19,0.328613,-0.116211,0.779785,-7.625,57.25,0.9375,-0.290132,-0.491903,-0.513249
2555,52,-21,-37,-25,40,20,29,-25,0.328613,-0.116211,0.779785,-7.625,57.25,0.9375,-0.290132,-0.491903,-0.513249
2555,-55,-2,29,14,-27,-40,-12,5,0.328613,-0.116211,0.779785,-7.625,57.25,0.9375,-0.290132,-0.491903,-0.513249
2557,23,-14,-18,-76,-24,3,-25,14,0.255371,-0.177734,0.769531,-13.8125,49.5,4.625,-0.291709,-0.471716,-0.517775
2557,19,-12,24,96,64,5,50,-19,0.255371,-0.177734,0.769531,-13.8125,49.5,4.625,-0.291709,-0.471716,-0.517775
2577,16,-18,-28,8,13,28,22,7,0.255371,-0.177734,0.769531,-13.8125,49.5,4.625,-0.291709,-0.471716,-0.517775
2577,-40,-5,-2,-52,-78,-31,-18,4,0.255371,-0.177734,0.769531,-13.8125,49.5,4.625,-0.291709,-0.471716,-0.517775
2585,-17,-2,23,-10,-16,-1,-8,-31,0.289062,-0.237305,0.753418,-6.4375,51.625,0.5,-0.291854,-0.452362,-0.523242
2585,51,26,66,12,25,0,-26,38,0.289062,-0.237305,0.753418,-6.4375,51.625,0.5,-0.291854,-0.452362,-0.523242
2599,13,-24,-50,8,-24,-20,-22,0,0.289062,-0.237305,0.753418,-6.4375,51.625,0.5,-0.291854,-0.452362,-0.523242
2599,-94,-11,-28,-25,-32,8,17,-23,0.289062,-0.237305,0.753418,-6.4375,51.625,0.5,-0.291854,-0.452362,-0.523242
2608,-7,-5,-24,-7,22,-13,-2,6,0.290039,-0.216797,0.733887,3.5625,55.0625,-0.0625,-0.287941,-0.432424,-0.529241
2608,57,-9,-43,-56,-66,-30,-15,30,0.290039,-0.216797,0.733887,3.5625,55.0625,-0.0625,-0.287941,-0.432424,-0.529241
2631,-61,-3,7,12,28,19,-59,-73,0.290039,-0.216797,0.733887,3.5625,55.0625,-0.0625,-0.287941,-0.432424,-0.529241
2631,15,10,25,109,86,20,-4,14,0.290039,-0.216797,0.733887,3.5625,55.0625,-0.0625,-0.287941,-0.432424,-0.529241
2633,17,29,56,42,59,12,14,13,0.241699,-0.279297,0.800781,-4.75,50.375,1.1875,-0.288527,-0.412543,-0.533915
2633,-17,-24,-114,-101,-91,-18,-36,-5,0.241699,-0.279297,0.800781,-4.75,50.375,1.1875,-0.288527,-0.412543,-0.533915
2634,-16,-1,8,29,18,-31,-36,-17,0.241699,-0.279297,0.800781,-4.75,50.375,1.1875,-0.288527,-0.412543,-0.533915
2634,57,-14,-10,-10,-62,-43,82,10,0.241699,-0.279297,0.800781,-4.75,50.375,1.1875,-0.288527,-0.412543,-0.533915
2654,-44,1,10,26,93,68,52,13,0.296875,-0.264648,0.8125,-10.5625,50,0.1875,-0.290697,-0.394537,-0.539018
2654,-12,5,17,-75,-21,28,-96,-2,0.296875,-0.264648,0.8125,-10.5625,50,0.1875,-0.290697,-0.394537,-0.539018
2655,-31,12,30,97,2,36,89,9,0.296875,-0.264648,0.8125,-10.5625,50,0.1875,-0.290697,-0.394537,-0.539018
2655,8,5,0,19,74,-13,-4,7,0.296875,-0.264648,0.8125,-10.5625,50,0.1875,-0.290697,-0.394537,-0.539018
2659,16,-12,-24,-38,-65,-35,-30,-22,0.26123,-0.291504,0.830078,-8.9375,48.625,4.375,-0.293425,-0.375836,-0.542325
2659,16,7,13,-70,-38,-3,13,-9,0.26123,-0.291504,0.830078,-8.9375,48.625,4.375,-0.293425,-0.375836,-0.542325
2676,17,-4,-21,-55,-34,-37,1,21,0.26123,-0.291504,0.830078,-8.9375,48.625,4.375,-0.293425,-0.375836,-0.542325
2676,-83,-10,21,-12,-9,14,-25,-67,0.26123,-0.291504,0.830078,-8.9375,48.625,4.375,-0.293425,-0.375836,-0.542325
2677,74,-9,-56,80,56,-1,30,33,0.294434,-0.237305,0.832031,0.1875,49.5,2.8125,-0.291453,-0.358275,-0.546794
2677,-2,4,23,36,44,48,22,0,0.294434,-0.237305,0.832031,0.1875,49.5,2.8125,-0.291453,-0.358275,-0.546794
2697,-41,9,-8,-9,-28,-16,-9,8,0.294434,-0.237305,0.832031,0.1875,49.5,2.8125,-0.291453,-0.358275,-0.546794
2697,40,-7,35,-32,1,6,-33,-16,0.294434,-0.237305,0.832031,0.1875,49.5,2.8125,-0.291453,-0.358275,-0.546794
2699,-19,0,-58,-128,-81,-21,1,-6,0.275879,-0.225098,0.845703,-1.8125,48.0625,3.3125,-0.290074,-0.341076,-0.550879
2699,-2,-17,19,88,84,4,-25,-15,0.275879,-0.225098,0.845703,-1.8125,48.0625,3.3125,-0.290074,-0.341076,-0.550879
2720,63,11,13,25,12,-33,-6,25,0.275879,-0.225098,0.845703,-1.8125,48.0625,3.3125,-0.290074,-0.341076,-0.550879
2720,-25,-4,18,0,6,-25,-45,21,0.275879,-0.225098,0.845703,-1.8125,48.0625,3.3125,-0.290074,-0.341076,-0.550879
2726,0,0,-7,-88,-67,57,68,-1,0.294434,-0.208984,0.872559,-4.875,46.6875,0.4375,-0.288973,-0.325218,-0.556129
2726,-28,0,-2,67,80,44,30,-4,0.294434,-0.208984,0.872559,-4.875,46.6875,0.4375,-0.288973,-0.325218,-0.556129
2743,-45,8,24,-4,-14,-30,-35,-57,0.294434,-0.208984,0.872559,-4.875,46.6875,0.4375,-0.288973,-0.325218,-0.556129
2743,23,9,38,-31,-9,6,-4,28,0.294434,-0.208984,0.872559,-4.875,46.6875,0.4375,-0.288973,-0.325218,-0.556129
2744,36,4,39,40,-18,-46,-49,-7,0.282715,-0.236328,0.895996,-3.5,45.75,0.1875,-0.287954,-0.30958,-0.561087
2744,17,3,-62,-114,-58,-19,-31,13,0.282715,-0.236328,0.895996,-3.5,45.75,0.1875,-0.287954,-0.30958,-0.561087
2749,0,-9,39,122,95,27,38,10,0.282715,-0.236328,0.895996,-3.5,45.75,0.1875,-0.287954,-0.30958,-0.561087
2749,41,-8,-63,-42,-9,-1,-7,-4,0.282715,-0.236328,0.895996,-3.5,45.75,0.1875,-0.287954,-0.30958,-0.561087
2764,-18,-19,-61,-14,-7,-8,-19,23,0.26123,-0.257324,0.900391,2.0625,43.1875,0.875,-0.285794,-0.29445,-0.56518
2764,19,5,14,-7,-39,-16,5,-8,0.26123,-0.257324,0.900391,2.0625,43.1875,0.875,-0.285794,-0.29445,-0.56518
2772,-72,-16,24,-16,33,-3,-46,-30,0.26123,-0.257324,0.900391,2.0625,43.1875,0.875,-0.285794,-0.29445,-0.56518
2772,78,9,-23,47,23,23,28,20,0.26123,-0.257324,0.900391,2.0625,43.1875,0.875,-0.285794,-0.29445,-0.56518
2786,37,6,47,-38,-63,-20,-6,12,0.220215,-0.244629,0.885254,5.75,38.5625,4.8125,-0.282823,-0.280051,-0.567635
2786,28,-22,-24,-36,-33,-49,0,1,0.220215,-0.244629,0.885254,5.75,38.5625,4.8125,-0.282823,-0.280051,-0.567635
2795,-27,7,33,49,25,21,-31,24,0.220215,-0.244629,0.885254,5.75,38.5625,4.8125,-0.282823,-0.280051,-0.567635
2795,-17,-5,-37,-30,24,20,-17,-16,0.220215,-0.244629,0.885254,5.75,38.5625,4.8125,-0.282823,-0.280051,-0.567635
2796,14,10,15,108,60,21,12,16,0.244141,-0.246094,0.879883,4.375,37.3125,7.25,-0.280733,-0.266746,-0.568931
2796,34,4,16,23,24,14,-41,-3,0.244141,-0.246094,0.879883,4.375,37.3125,7.25,-0.280733,-0.266746,-0.568931
2809,-48,-3,-16,-65,-28,10,37,31,0.244141,-0.246094,0.879883,4.375,37.3125,7.25,-0.280733,-0.266746,-0.568931
2809,-60,0,21,23,-18,-8,-40,-21,0.244141,-0.246094,0.879883,4.375,37.3125,7.25,-0.280733,-0.266746,-0.568931
2833,-42,5,37,-71,-28,-25,70,2,0.25293,-0.274902,0.875977,4.125,36.375,7.1875,-0.279556,-0.254169,-0.569807
2833,-11,-2,8,-35,-21,-15,-56,-33,0.25293,-0.274902,0.875977,4.125,36.375,7.1875,-0.279556,-0.254169,-0.569807
2855,32,-3,-18,79,75,11,-8,16,0.25293,-0.274902,0.875977,4.125,36.375,7.1875,-0.279556,-0.254169,-0.569807
2855,11,12,21,-91,-32,-4,15,2,0.25293,-0.274902,0.875977,4.125,36.375,7.1875,-0.279556,-0.254169,-0.569807
2857,-6,-26,-29,22,-16,-11,-22,0,0.254395,-0.285156,0.870117,6.25,34.25,6.875,-0.278126,-0.242664,-0.570613
2857,0,8,61,43,15,-4,59,-9,0.254395,-0.285156,0.870117,6.25,34.25,6.875,-0.278126,-0.242664,-0.570613
2884,5,-11,6,-32,-30,26,7,-32,0.254395,-0.285156,0.870117,6.25,34.25,6.875,-0.278126,-0.242664,-0.570613
2884,-27,0,11,-5,15,-15,-2,10,0.254395,-0.285156,0.870117,6.25,34.25,6.875,-0.278126,-0.242664,-0.570613
2910,17,-13,-13,-23,-31,-19,-23,-23,0.233398,-0.266602,0.862305,1.0625,28.5625,8.0625,-0.277864,-0.222517,-0.570668
2910,-17,2,4,79,86,26,38,7,0.233398,-0.266602,0.862305,1.0625,28.5625,8.0625,-0.277864,-0.222517,-0.570668
2911,34,7,-22,-91,-120,-24,-9,18,0.233398,-0.266602,0.862305,1.0625,28.5625,8.0625,-0.277864,-0.222517,-0.570668
2911,-24,-19,-47,16,34,-1,-5,-38,0.233398,-0.266602,0.862305,1.0625,28.5625,8.0625,-0.277864,-0.222517,-0.570668
2931,3,7,22,-24,4,-14,-33,-4,0.194336,-0.269043,0.876465,1.0625,26.6875,5.875,-0.277831,-0.212823,-0.571231
2931,-35,-14,-65,-109,-45,6,7,-8,0.194336,-0.269043,0.876465,1.0625,26.6875,5.875,-0.277831,-0.212823,-0.571231
2932,30,-6,13,73,63,41,77,34,0.194336,-0.269043,0.876465,1.0625,26.6875,5.875,-0.277831,-0.212823,-0.571231
2932,-1,15,66,111,85,16,-14,-65,0.194336,-0.269043,0.876465,1.0625,26.6875,5.875,-0.277831,-0.212823,-0.571231
2938,61,17,-20,0,-57,3,18,39,0.206543,-0.279785,0.869141,-0.875,24.875,2.9375,-0.278611,-0.204655,-0.572459
2938,-37,7,61,-24,-17,-38,-3,-27,0.206543,-0.279785,0.869141,-0.875,24.875,2.9375,-0.278611,-0.204655,-0.572459
2953,30,2,-22,-42,-15,-21,-18,12,0.188477,-0.285156,0.873535,0.1875,20.5625,4.0625,-0.279181,-0.197456,-0.572966
2953,29,-4,-35,-97,-74,12,-14,8,0.188477,-0.285156,0.873535,0.1875,20.5625,4.0625,-0.279181,-0.197456,-0.572966
2954,61,7,68,109,127,-3,32,25,0.203613,-0.253418,0.870117,1,17.0625,4.8125,-0.27894,-0.191851,-0.572949
2954,-95,-10,-74,0,-4,4,-10,-35,0.203613,-0.253418,0.870117,1,17.0625,4.8125,-0.27894,-0.191851,-0.572949
2974,9,-2,10,-109,-57,-23,-44,-9,0.203613,-0.253418,0.870117,1,17.0625,4.8125,-0.27894,-0.191851,-0.572949
2974,5,-8,-4,107,-7,26,38,30,0.203613,-0.253418,0.870117,1,17.0625,4.8125,-0.27894,-0.191851,-0.572949
2998,-6,4,11,-5,3,-7,-15,-15,0.171875,-0.251953,0.873047,-0.875,16.125,4.75,-0.279291,-0.186043,-0.572948
2998,34,4,5,-40,-76,-20,28,55,0.171875,-0.251953,0.873047,-0.875,16.125,4.75,-0.279291,-0.186043,-0.572948
3005,-29,1,-4,72,95,39,-25,-12,0.171875,-0.251953,0.873047,-0.875,16.125,4.75,-0.279291,-0.186043,-0.572948
3005,-33,-3,-32,-50,-47,-5,-3,-9,0.171875,-0.251953,0.873047,-0.875,16.125,4.75,-0.279291,-0.186043,-0.572948
3007,1,0,11,-36,-3,-18,0,-4,0.149902,-0.259766,0.870117,-1,15,2.625,-0.27971,-0.18034,-0.573443
3007,17,-21,-24,-12,-26,17,-34,10,0.149902,-0.259766,0.870117,-1,15,2.625,-0.27971,-0.18034,-0.573443
3028,-24,5,0,0,-19,-26,-7,-43,0.149902,-0.259766,0.870117,-1,15,2.625,-0.27971,-0.18034,-0.573443
3028,76,14,73,32,22,-2,8,88,0.149902,-0.259766,0.870117,-1,15,2.625,-0.27971,-0.18034,-0.573443
3042,-34,-23,-34,22,17,9,-26,-52,0.105957,-0.246582,0.864746,-5.4375,9,2.4375,-0.282375,-0.170317,-0.574755
3042,7,6,53,67,50,45,-10,-1,0.105957,-0.246582,0.864746,-5.4375,9,2.4375,-0.282375,-0.170317,-0.574755
3066,-16,-3,-20,-126,-128,-53,2,-2,0.105957,-0.246582,0.864746,-5.4375,9,2.4375,-0.282375,-0.170317,-0.574755
3066,21,-14,20,9,101,16,1,9,0.105957,-0.246582,0.864746,-5.4375,9,2.4375,-0.282375,-0.170317,-0.574755
3067,4,1,-42,82,76,24,-4,3,0.206543,-0.302246,0.899414,2.5,11.625,3.5625,-0.282481,-0.167216,-0.57445
3067,41,5,8,-50,-78,-26,-2,5,0.206543,-0.302246,0.899414,2.5,11.625,3.5625,-0.282481,-0.167216,-0.57445
3088,-67,-22,-48,9,105,-5,-17,-24,0.206543,-0.302246,0.899414,2.5,11.625,3.5625,-0.282481,-0.167216,-0.57445
3088,31,3,1,62,52,29,30,16,0.206543,-0.302246,0.899414,2.5,11.625,3.5625,-0.282481,-0.167216,-0.57445
3089,-18,-5,4,-59,-79,-15,-40,-12,0.0795898,-0.224609,0.882812,-1.5,11.3125,3.3125,-0.282203,-0.161376,-0.574647
3089,-19,-4,-51,-17,53,-26,-5,-11,0.0795898,-0.224609,0.882812,-1.5,11.3125,3.3125,-0.282203,-0.161376,-0.574647
3095,33,5,20,43,26,13,23,32,0.0795898,-0.224609,0.882812,-1.5,11.3125,3.3125,-0.282203,-0.161376,-0.574647
3095,-9,-15,-49,-93,-111,-31,-6,-14,0.0795898,-0.224609,0.882812,-1.5,11.3125,3.3125,-0.282203,-0.161376,-0.574647
3097,47,-5,7,-48,-25,28,63,16,0.126465,-0.26123,0.897949,-3.0625,14.5625,-2.625,-0.282909,-0.156309,-0.576892
3097,-53,2,69,127,99,5,-24,-14,0.126465,-0.26123,0.897949,-3.0625,14.5625,-2.625,-0.282909,-0.156309,-0.576892
3110,-7,13,16,-23,-67,-18,-31,34,0.126465,-0.26123,0.897949,-3.0625,14.5625,-2.625,-0.282909,-0.156309,-0.576892
3110,-47,-18,22,10,56,8,15,-53,0.126465,-0.26123,0.897949,-3.0625,14.5625,-2.625,-0.282909,-0.156309,-0.576892
3117,6,-4,-49,20,-15,7,-17,-4,0.0727539,-0.271484,0.947754,-1.75,15.625,-5.5625,-0.282889,-0.14968,-0.580414
3117,42,-2,-36,-128,-86,-65,39,24,0.0727539,-0.271484,0.947754,-1.75,15.625,-5.5625,-0.282889,-0.14968,-0.580414
3133,48,-10,8,45,-40,51,-84,-44,0.0727539,-0.271484,0.947754,-1.75,15.625,-5.5625,-0.282889,-0.14968,-0.580414
3133,-22,16,34,55,15,13,55,10,0.0727539,-0.271484,0.947754,-1.75,15.625,-5.5625,-0.282889,-0.14968,-0.580414
3135,-71,-3,39,-4,-20,2,-65,-5,0.276367,-0.302734,1.10156,-10.75,17.875,2.1875,-0.285951,-0.146154,-0.581396
3135,8,-1,-53,-48,30,-62,11,20,0.276367,-0.302734,1.10156,-10.75,17.875,2.1875,-0.285951,-0.146154,-0.581396
3164,-13,9,55,95,75,55,39,-10,0.276367,-0.302734,1.10156,-10.75,17.875,2.1875,-0.285951,-0.146154,-0.581396
3164,38,-12,-49,5,-28,32,-21,-8,0.276367,-0.302734,1.10156,-10.75,17.875,2.1875,-0.285951,-0.146154,-0.581396
3164,-44,4,33,-61,-66,-26,-22,-27,0.276367,-0.302734,1.10156,-10.75,17.875,2.1875,-0.285951,-0.146154,-0.581396
3164,20,-1,-10,32,57,3,-3,27,0.276367,-0.302734,1.10156,-10.75,17.875,2.1875,-0.285951,-0.146154,-0.581396
3165,-32,-9,-25,-52,-115,-49,7,-5,0.276367,-0.302734,1.10156,-10.75,17.875,2.1875,-0.285951,-0.146154,-0.581396
3165,-10,-19,-50,-33,45,3,-31,-19,0.276367,-0.302734,1.10156,-10.75,17.875,2.1875,-0.285951,-0.146154,-0.581396
3186,38,20,63,70,116,28,-21,20,0.0478516,-0.330078,1.05029,-2.3125,19.4375,0.5625,-0.286999,-0.136988,-0.583128
3186,-62,-10,-60,-62,-96,-11,66,-30,0.0478516,-0.330078,1.05029,-2.3125,19.4375,0.5625,-0.286999,-0.136988,-0.583128
3187,44,-7,54,85,52,41,-44,0,0.0478516,-0.330078,1.05029,-2.3125,19.4375,0.5625,-0.286999,-0.136988,-0.583128
3187,8,13,11,25,-25,-23,-6,27,0.0478516,-0.330078,1.05029,-2.3125,19.4375,0.5625,-0.286999,-0.136988,-0.583128
3188,-14,2,-35,-68,-11,-27,4,15,0.0180664,-0.16748,0.663574,7.5625,8,3.8125,-0.283764,-0.132176,-0.582656
3188,-2,-4,91,33,43,56,58,-20,0.0180664,-0.16748,0.663574,7.5625,8,3.8125,-0.283764,-0.132176,-0.582656
3208,-14,-7,-31,-23,1,-38,-16,-17,0.0180664,-0.16748,0.663574,7.5625,8,3.8125,-0.283764,-0.132176,-0.582656
3208,36,9,76,-18,-57,-28,7,19,0.0180664,-0.16748,0.663574,7.5625,8,3.8125,-0.283764,-0.132176,-0.582656
3209,34,-23,-82,-9,33,7,-32,8,-0.109375,-0.37793,0.983398,-5.625,14.6875,5.25,-0.287804,-0.120991,-0.582154
3209,-15,-2,-4,50,-6,23,-1,4,-0.109375,-0.37793,0.983398,-5.625,14.6875,5.25,-0.287804,-0.120991,-0.582154
3215,-1,-5,9,-30,13,-31,19,8,-0.109375,-0.37793,0.983398,-5.625,14.6875,5.25,-0.287804,-0.120991,-0.582154
3215,15,3,11,-64,-92,-33,-15,5,-0.109375,-0.37793,0.983398,-5.625,14.6875,5.25,-0.287804,-0.120991,-0.582154
3230,24,6,43,3,32,44,41,-10,0.635254,-0.258301,1.32422,-5.375,8.625,7.5625,-0.286751,-0.128683,-0.580808
3230,-13,-11,-5,107,83,37,27,13,0.635254,-0.258301,1.32422,-5.375,8.625,7.5625,-0.286751,-0.128683,-0.580808
3230,-14,-7,-71,-89,-87,-48,-41,-25,0.635254,-0.258301,1.32422,-5.375,8.625,7.5625,-0.286751,-0.128683,-0.580808
3230,-37,5,10,19,75,-8,-17,8,0.635254,-0.258301,1.32422,-5.375,8.625,7.5625,-0.286751,-0.128683,-0.580808
3238,-15,11,88,91,53,42,40,-7,0.50293,-0.144043,0.950195,4.4375,6.875,3.875,-0.28206,-0.13506,-0.580647
3238,46,6,-40,-8,-30,7,-21,7,0.50293,-0.144043,0.950195,4.4375,6.875,3.875,-0.28206,-0.13506,-0.580647
3254,-3,5,28,-53,-57,9,54,0,0.50293,-0.144043,0.950195,4.4375,6.875,3.875,-0.28206,-0.13506,-0.580647
3254,26,-17,-37,-13,29,-34,-47,5,0.50293,-0.144043,0.950195,4.4375,6.875,3.875,-0.28206,-0.13506,-0.580647
3255,-55,-1,-56,-23,-21,-19,2,-2,0.271484,-0.109375,0.74707,5,6.6875,3,-0.277989,-0.136623,-0.580566
3255,-14,-6,71,-3,12,16,-43,-10,0.271484,-0.109375,0.74707,5,6.6875,3,-0.277989,-0.136623,-0.580566
3275,0,8,-35,79,19,-70,32,0,0.271484,-0.109375,0.74707,5,6.6875,3,-0.277989,-0.136623,-0.580566
3275,10,-12,-30,-56,-21,64,-8,-2,0.271484,-0.109375,0.74707,5,6.6875,3,-0.277989,-0.136623,-0.580566
3276,32,13,52,119,49,0,-30,-6,0.271484,-0.109375,0.74707,5,6.6875,3,-0.277989,-0.136623,-0.580566
3276,14,13,20,-81,-57,-6,5,9,0.271484,-0.109375,0.74707,5,6.6875,3,-0.277989,-0.136623,-0.580566
3282,43,-1,-11,-40,-14,6,11,12,0.287598,-0.0991211,0.804688,5.25,6.3125,2.375,-0.273049,-0.138475,-0.580738
3282,-34,-4,-26,-25,-42,-40,69,-14,0.287598,-0.0991211,0.804688,5.25,6.3125,2.375,-0.273049,-0.138475,-0.580738
3283,-9,-12,7,-12,-19,-16,-37,-2,0.287598,-0.0991211,0.804688,5.25,6.3125,2.375,-0.273049,-0.138475,-0.580738
3283,6,0,-14,14,38,22,-41,9,0.287598,-0.0991211,0.804688,5.25,6.3125,2.375,-0.273049,-0.138475,-0.580738
3297,50,4,-33,16,62,3,56,42,0.287598,-0.0991211,0.804688,5.25,6.3125,2.375,-0.273049,-0.138475,-0.580738
3297,-1,2,-4,8,10,31,-13,-4,0.287598,-0.0991211,0.804688,5.25,6.3125,2.375,-0.273049,-0.138475,-0.580738
3304,15,7,-21,-12,-71,-20,22,-1,0.564941,-0.132324,1.09521,1.75,5.5,0.125,-0.268354,-0.146572,-0.581783
3304,46,0,66,28,21,-19,-21,-1,0.564941,-0.132324,1.09521,1.75,5.5,0.125,-0.268354,-0.146572,-0.581783
3320,-21,6,45,-14,-13,27,24,-2,0.564941,-0.132324,1.09521,1.75,5.5,0.125,-0.268354,-0.146572,-0.581783
3320,-9,2,44,5,68,-16,-62,22,0.564941,-0.132324,1.09521,1.75,5.5,0.125,-0.268354,-0.146572,-0.581783
3322,-42,-19,-101,-61,-35,-10,19,-12,0.42627,-0.334473,1.2251,-2.3125,4,4.25,-0.269166,-0.150524,-0.580764
3322,16,8,8,73,20,7,13,-5,0.42627,-0.334473,1.2251,-2.3125,4,4.25,-0.269166,-0.150524,-0.580764
3334,2,1,10,-16,-17,20,-23,13,0.42627,-0.334473,1.2251,-2.3125,4,4.25,-0.269166,-0.150524,-0.580764
3334,-14,3,-3,-16,-37,-35,5,-18,0.42627,-0.334473,1.2251,-2.3125,4,4.25,-0.269166,-0.150524,-0.580764
3343,-10,4,66,-20,-11,-33,-8,-18,-0.404297,-0.41748,0.655273,2.125,4,4.5,-0.274204,-0.136459,-0.578744
3343,-4,-2,-41,-7,-10,6,-11,-1,-0.404297,-0.41748,0.655273,2.125,4,4.5,-0.274204,-0.136459,-0.578744
3350,-21,-8,-74,-99,-42,-20,-3,1,-0.404297,-0.41748,0.655273,2.125,4,4.5,-0.274204,-0.136459,-0.578744
3350,13,1,38,62,42,48,-13,-15,-0.404297,-0.41748,0.655273,2.125,4,4.5,-0.274204,-0.136459,-0.578744
3352,-36,-3,16,50,34,-1,-13,5,0.348633,-0.0878906,0.972168,4.8125,1.0625,1.4375,-0.268211,-0.141091,-0.579035
3352,33,1,0,-26,-45,-10,-3,-17,0.348633,-0.0878906,0.972168,4.8125,1.0625,1.4375,-0.268211,-0.141091,-0.579035
3374,16,0,-10,-37,2,-9,18,-5,0.348633,-0.0878906,0.972168,4.8125,1.0625,1.4375,-0.268211,-0.141091,-0.579035
3374,-53,3,-15,8,27,9,-49,12,0.348633,-0.0878906,0.972168,4.8125,1.0625,1.4375,-0.268211,-0.141091,-0.579035
3374,51,3,-3,37,21,-6,35,3,0.348633,-0.0878906,0.972168,4.8125,1.0625,1.4375,-0.268211,-0.141091,-0.579035
3374,-43,-5,-43,27,11,-6,-7,50,0.348633,-0.0878906,0.972168,4.8125,1.0625,1.4375,-0.268211,-0.141091,-0.579035
3387,23,19,80,15,28,32,-37,-6,0.348633,-0.0878906,0.972168,4.8125,1.0625,1.4375,-0.268211,-0.141091,-0.579035
3387,6,-20,-69,37,6,4,27,8,0.348633,-0.0878906,0.972168,4.8125,1.0625,1.4375,-0.268211,-0.141091,-0.579035
3395,-32,-7,-32,-86,-89,-17,38,-4,0.222168,-0.104492,0.887695,3.1875,-0.5625,-0.5625,-0.268213,-0.139418,-0.57821
3395,28,1,29,-59,-14,-61,-46,-6,0.222168,-0.104492,0.887695,3.1875,-0.5625,-0.5625,-0.268213,-0.139418,-0.57821
3418,-32,6,29,127,102,64,-68,8,0.222168,-0.104492,0.887695,3.1875,-0.5625,-0.5625,-0.268213,-0.139418,-0.57821
3418,21,-5,-24,-96,-58,7,127,-1,0.222168,-0.104492,0.887695,3.1875,-0.5625,-0.5625,-0.268213,-0.139418,-0.57821
3420,22,6,74,91,35,-13,-45,6,-0.195312,-0.459961,0.719727,-1.6875,1.1875,2.625,-0.274939,-0.131462,-0.576622
3420,20,-3,-18,16,21,34,43,-16,-0.195312,-0.459961,0.719727,-1.6875,1.1875,2.625,-0.274939,-0.131462,-0.576622
3441,-53,-19,-36,-68,-67,5,-5,-10,-0.195312,-0.459961,0.719727,-1.6875,1.1875,2.625,-0.274939,-0.131462,-0.576622
3441,10,-3,15,59,97,-20,-5,-9,-0.195312,-0.459961,0.719727,-1.6875,1.1875,2.625,-0.274939,-0.131462,-0.576622
3442,19,7,48,-26,-25,15,9,0,0.609375,-0.0966797,1.28613,1.3125,0.8125,-1.6875,-0.268285,-0.141857,-0.578052
3442,14,9,-13,30,-4,-46,13,8,0.609375,-0.0966797,1.28613,1.3125,0.8125,-1.6875,-0.268285,-0.141857,-0.578052
3463,-16,-19,-6,-36,-37,60,10,-12,0.609375,-0.0966797,1.28613,1.3125,0.8125,-1.6875,-0.268285,-0.141857,-0.578052
3463,-48,-2,-80,-27,-21,-24,-14,-15,0.609375,-0.0966797,1.28613,1.3125,0.8125,-1.6875,-0.268285,-0.141857,-0.578052
3485,42,3,39,38,60,11,42,38,-0.227051,-0.379883,0.889648,-2,4.25,-0.4375,-0.271942,-0.131825,-0.578187
3485,15,-18,-89,-55,-21,-2,-12,-1,-0.227051,-0.379883,0.889648,-2,4.25,-0.4375,-0.271942,-0.131825,-0.578187
3493,-88,-14,4,23,-11,-49,6,2,-0.227051,-0.379883,0.889648,-2,4.25,-0.4375,-0.271942,-0.131825,-0.578187
3493,-31,12,72,42,4,41,11,8,-0.227051,-0.379883,0.889648,-2,4.25,-0.4375,-0.271942,-0.131825,-0.578187
3496,2,9,21,-3,-1,1,13,-13,0.0756836,-0.234375,0.908203,3.4375,4.3125,0.9375,-0.269433,-0.127983,-0.579115
3496,-10,-1,13,15,-20,-18,55,-7,0.0756836,-0.234375,0.908203,3.4375,4.3125,0.9375,-0.269433,-0.127983,-0.579115
3515,30,8,17,-44,-18,-5,-81,-2,0.0756836,-0.234375,0.908203,3.4375,4.3125,0.9375,-0.269433,-0.127983,-0.579115
3515,48,-14,-24,-39,-21,23,13,12,0.0756836,-0.234375,0.908203,3.4375,4.3125,0.9375,-0.269433,-0.127983,-0.579115
3517,-35,1,8,18,52,19,-2,2,0.0805664,-0.262207,0.936035,0.875,3.375,0.1875,-0.26913,-0.125856,-0.579218
3517,18,-7,2,13,-46,-9,-25,-28,0.0805664,-0.262207,0.936035,0.875,3.375,0.1875,-0.26913,-0.125856,-0.579218
3537,45,8,-8,-96,-46,-54,1,-5,0.0805664,-0.262207,0.936035,0.875,3.375,0.1875,-0.26913,-0.125856,-0.579218
3537,-59,1,23,122,91,26,-20,-6,0.0805664,-0.262207,0.936035,0.875,3.375,0.1875,-0.26913,-0.125856,-0.579218
3538,12,-11,-96,-128,-128,-13,1,3,0.0859375,-0.239258,0.928711,2.125,3.3125,0.75,-0.267944,-0.123717,-0.579372
3538,-36,-5,3,0,79,21,-12,-30,0.0859375,-0.239258,0.928711,2.125,3.3125,0.75,-0.267944,-0.123717,-0.579372
3558,76,17,44,127,127,49,64,21,0.0859375,-0.239258,0.928711,2.125,3.3125,0.75,-0.267944,-0.123717,-0.579372
3558,3,9,7,-82,-128,-61,-41,-9,0.0859375,-0.239258,0.928711,2.125,3.3125,0.75,-0.267944,-0.123717,-0.579372
3575,-6,-17,-51,-64,-12,2,-18,-9,0.0854492,-0.258789,0.91748,2.0625,3.25,1.8125,-0.267496,-0.121739,-0.579103
3575,-36,20,90,6,30,10,12,26,0.0854492,-0.258789,0.91748,2.0625,3.25,1.8125,-0.267496,-0.121739,-0.579103
3598,24,2,79,41,-24,8,51,-13,0.0854492,-0.258789,0.91748,2.0625,3.25,1.8125,-0.267496,-0.121739,-0.579103
3598,-85,-20,-47,-54,-77,-15,-25,-36,0.0854492,-0.258789,0.91748,2.0625,3.25,1.8125,-0.267496,-0.121739,-0.579103
3600,6,-8,-32,1,39,-23,-14,-9,0.0776367,-0.254395,0.898438,1.375,2.75,1.875,-0.267129,-0.118157,-0.57823
3600,-2,8,19,48,32,8,-22,17,0.0776367,-0.254395,0.898438,1.375,2.75,1.875,-0.267129,-0.118157,-0.57823
3620,1,1,-31,-46,5,29,77,4,0.0776367,-0.254395,0.898438,1.375,2.75,1.875,-0.267129,-0.118157,-0.57823
3620,54,-3,-42,71,36,1,-24,0,0.0776367,-0.254395,0.898438,1.375,2.75,1.875,-0.267129,-0.118157,-0.57823
3621,10,24,45,1,10,-34,-28,34,0.0771484,-0.248535,0.899902,1.3125,2.75,0.625,-0.266748,-0.116366,-0.578192
3621,-12,-5,6,48,-13,14,-33,-19,0.0771484,-0.248535,0.899902,1.3125,2.75,0.625,-0.266748,-0.116366,-0.578192
3642,-37,-21,-67,-9,-12,-1,-21,-35,0.0771484,-0.248535,0.899902,1.3125,2.75,0.625,-0.266748,-0.116366,-0.578192
3642,35,14,54,-63,-26,1,80,1,0.0771484,-0.248535,0.899902,1.3125,2.75,0.625,-0.266748,-0.116366,-0.578192
3651,-51,-19,-76,35,18,-6,-25,-7,0.0834961,-0.268066,0.907227,3,3.75,1.3125,-0.26616,-0.114369,-0.578033
3651,-20,0,-9,-65,-27,-2,24,7,0.0834961,-0.268066,0.907227,3,3.75,1.3125,-0.26616,-0.114369,-0.578033
3665,12,6,37,5,12,-54,-19,5,0.0766602,-0.26123,0.901855,1.875,4,1.6875,-0.265934,-0.112079,-0.577802
3665,34,10,59,63,28,40,-14,15,0.0766602,-0.26123,0.901855,1.875,4,1.6875,-0.265934,-0.112079,-0.577802
3666,14,3,-18,-8,8,22,49,14,0.0766602,-0.26123,0.901855,1.875,4,1.6875,-0.265934,-0.112079,-0.577802
3666,63,-8,4,-22,-48,-33,-48,-18,0.0766602,-0.26123,0.901855,1.875,4,1.6875,-0.265934,-0.112079,-0.577802
3688,-96,-21,-56,7,33,-19,-18,-27,0.0766602,-0.26123,0.901855,1.875,4,1.6875,-0.265934,-0.112079,-0.577802
3688,32,17,63,20,25,8,-2,-6,0.0766602,-0.26123,0.901855,1.875,4,1.6875,-0.265934,-0.112079,-0.577802
3689,2,-9,-68,-37,-79,-28,2,-12,0.0991211,-0.24707,0.900879,-0.4375,4,1.1875,-0.265989,-0.110544,-0.577716
3689,-25,-3,9,-30,21,28,-29,-13,0.0991211,-0.24707,0.900879,-0.4375,4,1.1875,-0.265989,-0.110544,-0.577716
3695,12,5,59,91,89,14,23,12,0.0991211,-0.24707,0.900879,-0.4375,4,1.1875,-0.265989,-0.110544,-0.577716
3695,6,-6,-49,-33,-28,-19,8,14,0.0991211,-0.24707,0.900879,-0.4375,4,1.1875,-0.265989,-0.110544,-0.577716
3696,63,1,46,-30,-40,-3,-12,8,0.173828,-0.276367,1.00781,-2.25,6.125,-0.5,-0.266787,-0.109992,-0.578419
3696,-33,14,3,-104,-62,-69,-31,-38,0.173828,-0.276367,1.00781,-2.25,6.125,-0.5,-0.266787,-0.109992,-0.578419
3718,1,-1,24,95,54,30,35,-23,0.173828,-0.276367,1.00781,-2.25,6.125,-0.5,-0.266787,-0.109992,-0.578419
3718,-58,-1,38,36,66,-2,-30,16,0.173828,-0.276367,1.00781,-2.25,6.125,-0.5,-0.266787,-0.109992,-0.578419
3720,-1,-8,-58,-50,-32,-8,-33,-27,0.304688,-0.242676,1.05566,-4.5,5.4375,3.625,-0.2673,-0.112251,-0.577887
3720,22,7,-20,-89,-100,5,24,11,0.304688,-0.242676,1.05566,-4.5,5.4375,3.625,-0.2673,-0.112251,-0.577887
3740,22,-15,11,21,32,-44,22,16,0.304688,-0.242676,1.05566,-4.5,5.4375,3.625,-0.2673,-0.112251,-0.577887
3740,29,11,0,58,47,56,-27,4,0.304688,-0.242676,1.05566,-4.5,5.4375,3.625,-0.2673,-0.112251,-0.577887
3741,-51,-1,3,20,-32,-56,-43,1,0.0952148,-0.329102,1.10156,-4.8125,8.4375,0.8125,-0.269508,-0.108617,-0.578281
3741,-44,-4,43,23,91,51,25,-12,0.0952148,-0.329102,1.10156,-4.8125,8.4375,0.8125,-0.269508,-0.108617,-0.578281
3764,-12,13,-31,-27,-31,-10,-8,27,0.0952148,-0.329102,1.10156,-4.8125,8.4375,0.8125,-0.269508,-0.108617,-0.578281
3764,-34,4,21,-128,-128,-72,11,-23,0.0952148,-0.329102,1.10156,-4.8125,8.4375,0.8125,-0.269508,-0.108617,-0.578281
3765,-5,-21,-36,118,127,35,-33,-21,0.0952148,-0.329102,1.10156,-4.8125,8.4375,0.8125,-0.269508,-0.108617,-0.578281
3765,-1,-4,7,86,11,17,42,5,0.0952148,-0.329102,1.10156,-4.8125,8.4375,0.8125,-0.269508,-0.108617,-0.578281
3766,43,4,-36,-128,-104,-26,-37,3,0.0952148,-0.329102,1.10156,-4.8125,8.4375,0.8125,-0.269508,-0.108617,-0.578281
3766,-17,-4,5,12,35,-30,-4,7,0.0952148,-0.329102,1.10156,-4.8125,8.4375,0.8125,-0.269508,-0.108617,-0.578281
3769,-39,11,39,38,28,64,45,-9,-0.0336914,-0.183594,0.645508,9.375,-1.25,-2.6875,-0.266317,-0.106734,-0.579087
3769,-1,-11,-22,80,32,-13,-5,17,-0.0336914,-0.183594,0.645508,9.375,-1.25,-2.6875,-0.266317,-0.106734,-0.579087
3793,25,4,-31,-80,-76,-5,10,2,-0.0336914,-0.183594,0.645508,9.375,-1.25,-2.6875,-0.266317,-0.106734,-0.579087
3793,48,-15,-19,17,16,5,8,-8,-0.0336914,-0.183594,0.645508,9.375,-1.25,-2.6875,-0.266317,-0.106734,-0.579087
3795,-41,-6,-15,10,10,8,-11,5,-0.106445,-0.360352,1.0415,-4,4.4375,1.875,-0.26941,-0.0996612,-0.578728
3795,-14,11,-14,-42,22,12,-78,-27,-0.106445,-0.360352,1.0415,-4,4.4375,1.875,-0.26941,-0.0996612,-0.578728
3796,55,0,3,94,16,3,71,2,-0.106445,-0.360352,1.0415,-4,4.4375,1.875,-0.26941,-0.0996612,-0.578728
3796,-29,-1,-15,-57,-72,-9,-15,13,-0.106445,-0.360352,1.0415,-4,4.4375,1.875,-0.26941,-0.0996612,-0.578728
3808,30,9,39,-29,8,12,18,13,0.578125,-0.245117,1.27783,-4.5,-2,6.875,-0.268634,-0.11038,-0.576402
3808,10,6,-3,52,14,-42,-9,1,0.578125,-0.245117,1.27783,-4.5,-2,6.875,-0.268634,-0.11038,-0.576402
3815,-53,-13,-45,-64,-26,65,-21,-6,0.578125,-0.245117,1.27783,-4.5,-2,6.875,-0.268634,-0.11038,-0.576402
3815,29,5,-6,4,-57,-20,-6,-10,0.578125,-0.245117,1.27783,-4.5,-2,6.875,-0.268634,-0.11038,-0.576402
3817,-5,-9,23,-27,89,-55,-5,1,0.375488,-0.133301,0.879395,4.375,-2.5625,0.625,-0.264704,-0.117764,-0.576265
3817,-10,7,38,62,25,79,20,19,0.375488,-0.133301,0.879395,4.375,-2.5625,0.625,-0.264704,-0.117764,-0.576265
3830,43,16,-7,-79,-58,-22,-25,4,0.375488,-0.133301,0.879395,4.375,-2.5625,0.625,-0.264704,-0.117764,-0.576265
3830,-7,-10,8,53,15,8,34,-3,0.375488,-0.133301,0.879395,4.375,-2.5625,0.625,-0.264704,-0.117764,-0.576265
3832,12,6,-18,13,-11,-44,-37,-19,0.181152,-0.125977,0.682129,5.375,-1.5,-2.9375,-0.261332,-0.120869,-0.577262
3832,16,-15,-5,-128,-123,15,-6,3,0.181152,-0.125977,0.682129,5.375,-1.5,-2.9375,-0.261332,-0.120869,-0.577262
3852,26,-7,73,127,127,67,-44,-15,0.181152,-0.125977,0.682129,5.375,-1.5,-2.9375,-0.261332,-0.120869,-0.577262
3852,-2,8,-78,-2,-7,-6,-16,32,0.181152,-0.125977,0.682129,5.375,-1.5,-2.9375,-0.261332,-0.120869,-0.577262
3853,5,11,60,-58,-44,-15,0,-37,0.181152,-0.125977,0.682129,5.375,-1.5,-2.9375,-0.261332,-0.120869,-0.577262
3853,-17,-21,-75,81,72,-28,52,4,0.181152,-0.125977,0.682129,5.375,-1.5,-2.9375,-0.261332,-0.120869,-0.577262
3874,15,13,-21,21,-17,6,-10,16,0.230469,-0.11377,0.740723,3.25,-0.5625,-1.625,-0.258195,-0.12451,-0.57795
3874,-1,-12,34,-98,-82,6,-23,-11,0.230469,-0.11377,0.740723,3.25,-0.5625,-1.625,-0.258195,-0.12451,-0.57795
3876,31,-17,-58,53,22,25,-4,-9,0.230469,-0.11377,0.740723,3.25,-0.5625,-1.625,-0.258195,-0.12451,-0.57795
3876,-22,8,8,58,13,2,27,22,0.230469,-0.11377,0.740723,3.25,-0.5625,-1.625,-0.258195,-0.12451,-0.57795
3883,1,0,-43,-66,-22,-60,-45,7,0.230469,-0.11377,0.740723,3.25,-0.5625,-1.625,-0.258195,-0.12451,-0.57795
3883,-8,-3,-16,46,14,31,16,-18,0.230469,-0.11377,0.740723,3.25,-0.5625,-1.625,-0.258195,-0.12451,-0.57795
3884,-16,4,61,-13,-17,-5,52,-1,0.52832,-0.127441,1.01807,-0.6875,0.3125,-0.0625,-0.257355,-0.126969,-0.578093
3884,27,-3,-17,-58,-16,9,-22,-8,0.52832,-0.127441,1.01807,-0.6875,0.3125,-0.0625,-0.257355,-0.126969,-0.578093
3898,-45,-11,-3,27,4,-6,16,-10,0.52832,-0.127441,1.01807,-0.6875,0.3125,-0.0625,-0.257355,-0.126969,-0.578093
3898,11,14,50,-6,63,4,-15,-5,0.52832,-0.127441,1.01807,-0.6875,0.3125,-0.0625,-0.257355,-0.126969,-0.578093
3899,-32,-1,-11,33,-23,38,20,32,0.483398,-0.271973,1.24023,-3.9375,3,1.125,-0.257378,-0.133531,-0.578126
3899,60,-6,-42,-67,-44,-41,-3,-41,0.483398,-0.271973,1.24023,-3.9375,3,1.125,-0.257378,-0.133531,-0.578126
3920,-96,-12,-36,-84,-78,-32,-3,-10,0.483398,-0.271973,1.24023,-3.9375,3,1.125,-0.257378,-0.133531,-0.578126
3920,29,-16,-79,49,105,-3,-14,11,0.483398,-0.271973,1.24023,-3.9375,3,1.125,-0.257378,-0.133531,-0.578126
3922,-40,-8,-7,27,-21,16,-20,-19,-0.351562,-0.404297,0.743164,-3.25,3.6875,1.9375,-0.263445,-0.121117,-0.577173
3922,-13,14,35,27,25,-6,12,6,-0.351562,-0.404297,0.743164,-3.25,3.6875,1.9375,-0.263445,-0.121117,-0.577173
3926,-5,-5,24,-19,-8,8,-13,-9,-0.351562,-0.404297,0.743164,-3.25,3.6875,1.9375,-0.263445,-0.121117,-0.577173
3926,17,-2,-20,-25,-48,-31,-7,0,-0.351562,-0.404297,0.743164,-3.25,3.6875,1.9375,-0.263445,-0.121117,-0.577173
3942,31,-4,-18,-27,8,-7,-10,12,0.168457,-0.111816,0.842773,0.75,1.6875,-1.5,-0.260396,-0.122257,-0.57816
3942,-9,11,-1,-8,-43,22,32,24,0.168457,-0.111816,0.842773,0.75,1.6875,-1.5,-0.260396,-0.122257,-0.57816
3950,36,-7,-27,21,46,-10,-11,16,0.168457,-0.111816,0.842773,0.75,1.6875,-1.5,-0.260396,-0.122257,-0.57816
3950,-30,-5,-4,-49,2,-16,27,-32,0.168457,-0.111816,0.842773,0.75,1.6875,-1.5,-0.260396,-0.122257,-0.57816
3951,6,3,40,42,-38,3,15,-2,0.168457,-0.111816,0.842773,0.75,1.6875,-1.5,-0.260396,-0.122257,-0.57816
3951,37,3,29,-82,28,29,-22,15,0.168457,-0.111816,0.842773,0.75,1.6875,-1.5,-0.260396,-0.122257,-0.57816
3964,-14,12,103,104,17,-29,-18,-20,0.192871,-0.37793,1.08691,-3,2.1875,2.0625,-0.263543,-0.12259,-0.577412
3964,-39,-17,-86,-35,18,-4,-51,-7,0.192871,-0.37793,1.08691,-3,2.1875,2.0625,-0.263543,-0.12259,-0.577412
3965,-13,-5,-12,8,9,8,16,14,0.192871,-0.37793,1.08691,-3,2.1875,2.0625,-0.263543,-0.12259,-0.577412
3965,-4,5,47,32,15,0,27,-5,0.192871,-0.37793,1.08691,-3,2.1875,2.0625,-0.263543,-0.12259,-0.577412
3986,56,-8,-33,-34,-23,-8,3,9,-0.034668,-0.145996,0.758301,1,1.4375,-1.3125,-0.261678,-0.119173,-0.578095
3986,1,7,-1,-88,-91,-43,0,10,-0.034668,-0.145996,0.758301,1,1.4375,-1.3125,-0.261678,-0.119173,-0.578095
3994,15,-1,40,56,43,40,-15,-25,-0.034668,-0.145996,0.758301,1,1.4375,-1.3125,-0.261678,-0.119173,-0.578095
3994,-43,-6,30,52,33,8,-12,12,-0.034668,-0.145996,0.758301,1,1.4375,-1.3125,-0.261678,-0.119173,-0.578095
4017,1,0,-3,-63,-34,-7,6,10,-0.00292969,-0.410156,0.933594,-2.9375,3,1.4375,-0.266505,-0.115024,-0.577448
4017,-1,-7,-33,14,10,-13,-1,-1,-0.00292969,-0.410156,0.933594,-2.9375,3,1.4375,-0.266505,-0.115024,-0.577448
4018,-3,5,14,27,28,-30,16,24,-0.00292969,-0.410156,0.933594,-2.9375,3,1.4375,-0.266505,-0.115024,-0.577448
4018,25,13,47,-13,32,34,11,-2,-0.00292969,-0.410156,0.933594,-2.9375,3,1.4375,-0.266505,-0.115024,-0.577448
4024,-6,8,21,82,7,34,25,7,0.467285,-0.0722656,1.17334,0.9375,0.9375,-0.625,-0.265018,-0.117038,-0.577634
4024,41,4,43,-52,-50,-24,-13,11,0.467285,-0.0722656,1.17334,0.9375,0.9375,-0.625,-0.265018,-0.117038,-0.577634
4039,-48,-19,-54,-68,-69,-54,-3,-21,0.467285,-0.0722656,1.17334,0.9375,0.9375,-0.625,-0.265018,-0.117038,-0.577634
4039,-58,5,20,48,70,39,-25,3,0.467285,-0.0722656,1.17334,0.9375,0.9375,-0.625,-0.265018,-0.117038,-0.577634
4047,-33,-17,-23,2,-27,-14,26,-29,-0.432129,-0.335449,0.54248,1.3125,1.8125,1.5625,-0.268983,-0.104265,-0.576872
4047,-13,8,28,13,-49,-10,-15,13,-0.432129,-0.335449,0.54248,1.3125,1.8125,1.5625,-0.268983,-0.104265,-0.576872
4048,18,12,35,21,77,-6,51,-11,-0.432129,-0.335449,0.54248,1.3125,1.8125,1.5625,-0.268983,-0.104265,-0.576872
4048,-4,-13,-53,-54,-70,15,5,-9,-0.432129,-0.335449,0.54248,1.3125,1.8125,1.5625,-0.268983,-0.104265,-0.576872
4062,80,14,56,-60,15,-17,-5,8,0.00634766,-0.404785,0.92041,-1,1.875,1.6875,-0.272854,-0.101202,-0.576052
4062,11,0,30,111,88,0,44,-8,0.00634766,-0.404785,0.92041,-1,1.875,1.6875,-0.272854,-0.101202,-0.576052
4069,14,5,13,-128,-117,41,-36,-11,0.00634766,-0.404785,0.92041,-1,1.875,1.6875,-0.272854,-0.101202,-0.576052
4069,18,-7,-81,55,-5,-45,3,7,0.00634766,-0.404785,0.92041,-1,1.875,1.6875,-0.272854,-0.101202,-0.576052
4085,-9,10,24,58,74,21,-14,9,0.605469,-0.154297,1.4082,1.625,1.3125,1.375,-0.266713,-0.111703,-0.576288
4085,48,-11,-45,-2,27,22,21,6,0.605469,-0.154297,1.4082,1.625,1.3125,1.375,-0.266713,-0.111703,-0.576288
4085,-46,-14,-73,-67,-60,-29,-9,11,0.605469,-0.154297,1.4082,1.625,1.3125,1.375,-0.266713,-0.111703,-0.576288
4085,19,-4,46,-17,-3,-19,-26,-2,0.605469,-0.154297,1.4082,1.625,1.3125,1.375,-0.266713,-0.111703,-0.576288
4108,19,1,-6,-5,12,-8,6,15,0.385254,-0.074707,1.15967,2.4375,1.5,0.6875,-0.260317,-0.117282,-0.576787
4108,-59,2,20,59,49,13,13,-9,0.385254,-0.074707,1.15967,2.4375,1.5,0.6875,-0.260317,-0.117282,-0.576787
4109,64,1,3,-13,-4,2,2,3,0.385254,-0.074707,1.15967,2.4375,1.5,0.6875,-0.260317,-0.117282,-0.576787
4109,-12,4,38,-24,-6,-35,8,11,0.385254,-0.074707,1.15967,2.4375,1.5,0.6875,-0.260317,-0.117282,-0.576787
4130,-68,-21,-86,15,-43,13,-33,-25,-0.0380859,-0.177734,0.764648,1.375,1.9375,1.0625,-0.259258,-0.11336,-0.576729
4130,6,3,18,13,84,31,-6,-7,-0.0380859,-0.177734,0.764648,1.375,1.9375,1.0625,-0.259258,-0.11336,-0.576729
4131,19,35,122,85,32,46,86,2,-0.0380859,-0.177734,0.764648,1.375,1.9375,1.0625,-0.259258,-0.11336,-0.576729
4131,-3,-24,-106,-42,-22,-10,-30,-17,-0.0380859,-0.177734,0.764648,1.375,1.9375,1.0625,-0.259258,-0.11336,-0.576729
4152,0,2,-5,-113,-114,-73,-2,-4,-0.298828,-0.265137,0.574219,1.6875,3.1875,0.1875,-0.261204,-0.103547,-0.576667
4152,24,-16,-16,35,34,34,-37,5,-0.298828,-0.265137,0.574219,1.6875,3.1875,0.1875,-0.261204,-0.103547,-0.576667
4153,-13,4,81,92,76,33,-27,1,-0.298828,-0.265137,0.574219,1.6875,3.1875,0.1875,-0.261204,-0.103547,-0.576667
4153,-86,-14,-78,-52,-64,-21,9,-6,-0.298828,-0.265137,0.574219,1.6875,3.1875,0.1875,-0.261204,-0.103547,-0.576667
4175,-19,0,66,-18,-15,-6,2,22,-0.385742,-0.310547,0.504395,1.3125,2.625,0.625,-0.264858,-0.0918782,-0.576208
4175,19,-10,-53,-118,-54,-3,-10,-19,-0.385742,-0.310547,0.504395,1.3125,2.625,0.625,-0.264858,-0.0918782,-0.576208
4176,19,-2,1,62,65,-8,-35,19,-0.385742,-0.310547,0.504395,1.3125,2.625,0.625,-0.264858,-0.0918782,-0.576208
4176,29,14,48,111,-9,-39,34,-14,-0.385742,-0.310547,0.504395,1.3125,2.625,0.625,-0.264858,-0.0918782,-0.576208
4199,9,-8,-11,-11,58,68,-41,-9,-0.371582,-0.310059,0.520508,-0.75,2.4375,-0.5,-0.268943,-0.0809398,-0.576365
4199,-31,20,50,-24,-80,-32,44,9,-0.371582,-0.310059,0.520508,-0.75,2.4375,-0.5,-0.268943,-0.0809398,-0.576365
4199,17,-9,-42,-61,25,-53,-15,15,-0.371582,-0.310059,0.520508,-0.75,2.4375,-0.5,-0.268943,-0.0809398,-0.576365
4199,57,8,32,20,-23,36,-10,11,-0.371582,-0.310059,0.520508,-0.75,2.4375,-0.5,-0.268943,-0.0809398,-0.576365
4221,-94,8,8,-34,46,-44,-20,-26,-0.227539,-0.251465,0.621094,-1.625,2.75,0.1875,-0.271419,-0.0733296,-0.576287
4221,43,-12,-28,57,-11,19,13,18,-0.227539,-0.251465,0.621094,-1.625,2.75,0.1875,-0.271419,-0.0733296,-0.576287
4223,-33,-35,-98,-74,-26,17,-6,-14,0.0673828,-0.129883,0.869141,-0.375,2.5625,1.3125,-0.268858,-0.0724244,-0.576276
4223,-38,1,2,8,11,-12,14,15,0.0673828,-0.129883,0.869141,-0.375,2.5625,1.3125,-0.268858,-0.0724244,-0.576276
4274,17,-2,22,46,-1,-1,-40,-29,0.0673828,-0.129883,0.869141,-0.375,2.5625,1.3125,-0.268858,-0.0724244,-0.576276
4274,21,20,32,-64,-26,9,12,24,0.0673828,-0.129883,0.869141,-0.375,2.5625,1.3125,-0.268858,-0.0724244,-0.576276
4277,-13,-18,-77,1,9,-17,-33,-20,0.605469,-0.131836,1.49805,0,2.1875,0.0625,-0.255426,-0.0915202,-0.57748
4277,9,2,47,30,11,-5,38,-15,0.605469,-0.131836,1.49805,0,2.1875,0.0625,-0.255426,-0.0915202,-0.57748
4279,54,3,4,-50,-56,74,11,14,0.605469,-0.131836,1.49805,0,2.1875,0.0625,-0.255426,-0.0915202,-0.57748
4279,-64,3,59,127,121,-21,13,-11,0.605469,-0.131836,1.49805,0,2.1875,0.0625,-0.255426,-0.0915202,-0.57748
4297,25,12,42,-18,-85,17,34,5,0.0957031,-0.370605,0.959961,2.1875,2.125,-0.375,-0.257422,-0.0908501,-0.577541
4297,23,0,27,-78,-33,-1,-57,-6,0.0957031,-0.370605,0.959961,2.1875,2.125,-0.375,-0.257422,-0.0908501,-0.577541
4298,11,-4,-50,1,26,-12,34,20,0.0957031,-0.370605,0.959961,2.1875,2.125,-0.375,-0.257422,-0.0908501,-0.577541
4298,16,-3,4,15,-35,-12,-15,-30,0.0957031,-0.370605,0.959961,2.1875,2.125,-0.375,-0.257422,-0.0908501,-0.577541
4318,-9,2,-11,5,2,3,-35,5,0.265625,-0.100098,0.885254,4.4375,0.9375,-2.125,-0.252667,-0.0952088,-0.578632
4318,-13,0,-19,-8,32,12,-7,-3,0.265625,-0.100098,0.885254,4.4375,0.9375,-2.125,-0.252667,-0.0952088,-0.578632
4319,0,-7,-10,25,-44,-15,33,-5,0.265625,-0.100098,0.885254,4.4375,0.9375,-2.125,-0.252667,-0.0952088,-0.578632
4319,22,7,20,-63,9,4,-57,4,0.265625,-0.100098,0.885254,4.4375,0.9375,-2.125,-0.252667,-0.0952088,-0.578632
4320,25,9,15,60,27,-14,94,14,0.265625,-0.100098,0.885254,4.4375,0.9375,-2.125,-0.252667,-0.0952088,-0.578632
4320,-8,1,-17,-29,10,39,-13,2,0.265625,-0.100098,0.885254,4.4375,0.9375,-2.125,-0.252667,-0.0952088,-0.578632
4321,-39,-12,-36,-61,-66,-49,-39,-19,0.265625,-0.100098,0.885254,4.4375,0.9375,-2.125,-0.252667,-0.0952088,-0.578632
4321,26,-6,8,104,51,16,-11,4,0.265625,-0.100098,0.885254,4.4375,0.9375,-2.125,-0.252667,-0.0952088,-0.578632
4325,-53,12,88,9,4,-3,-37,-27,0.325195,-0.114258,0.839844,4.8125,-0.5625,-1.6875,-0.248529,-0.101376,-0.579393
4325,4,-29,-114,-76,-93,-37,2,-2,0.325195,-0.114258,0.839844,4.8125,-0.5625,-1.6875,-0.248529,-0.101376,-0.579393
4348,43,-1,3,-62,26,-15,13,19,0.325195,-0.114258,0.839844,4.8125,-0.5625,-1.6875,-0.248529,-0.101376,-0.579393
4348,4,9,85,55,61,45,11,7,0.325195,-0.114258,0.839844,4.8125,-0.5625,-1.6875,-0.248529,-0.101376,-0.579393
4349,-49,-2,-19,-36,-55,-62,-20,1,-0.206055,-0.194336,0.516113,7.6875,0.125,-4.25,-0.247311,-0.095413,-0.580732
4349,12,9,26,-8,-23,19,-35,0,-0.206055,-0.194336,0.516113,7.6875,0.125,-4.25,-0.247311,-0.095413,-0.580732
4354,19,11,46,27,10,-15,-6,-4,-0.206055,-0.194336,0.516113,7.6875,0.125,-4.25,-0.247311,-0.095413,-0.580732
4354,11,-17,-94,-128,-128,-22,-43,-2,-0.206055,-0.194336,0.516113,7.6875,0.125,-4.25,-0.247311,-0.095413,-0.580732
4363,-19,3,55,107,127,23,2,3,-0.307129,-0.374512,0.856934,-0.9375,4.375,0.5,-0.251191,-0.0843752,-0.580511
4363,-15,7,22,79,100,25,39,-10,-0.307129,-0.374512,0.856934,-0.9375,4.375,0.5,-0.251191,-0.0843752,-0.580511
4369,-6,6,-38,-35,-69,-11,5,6,-0.307129,-0.374512,0.856934,-0.9375,4.375,0.5,-0.251191,-0.0843752,-0.580511
4369,-8,4,54,46,36,2,2,2,-0.307129,-0.374512,0.856934,-0.9375,4.375,0.5,-0.251191,-0.0843752,-0.580511
4386,17,-3,-49,-19,-21,8,-26,-39,0.439453,-0.285645,1.32715,-6.0625,1.5,6.5,-0.25216,-0.0911997,-0.578566
4386,-3,-8,-11,-47,-22,-20,12,13,0.439453,-0.285645,1.32715,-6.0625,1.5,6.5,-0.25216,-0.0911997,-0.578566
4393,35,4,-20,4,10,8,5,5,0.439453,-0.285645,1.32715,-6.0625,1.5,6.5,-0.25216,-0.0911997,-0.578566
4393,46,5,13,26,19,-1,37,1,0.439453,-0.285645,1.32715,-6.0625,1.5,6.5,-0.25216,-0.0911997,-0.578566
4395,-77,-15,-26,-41,-14,25,-20,-21,0.39209,-0.144043,0.923828,4,-1.375,0.5625,-0.24864,-0.0988488,-0.578521
4395,24,17,89,-26,-25,-22,-12,-3,0.39209,-0.144043,0.923828,4,-1.375,0.5625,-0.24864,-0.0988488,-0.578521
4408,-20,-24,-61,108,91,13,29,10,0.39209,-0.144043,0.923828,4,-1.375,0.5625,-0.24864,-0.0988488,-0.578521
4408,-51,3,36,-34,-36,-6,3,-61,0.39209,-0.144043,0.923828,4,-1.375,0.5625,-0.24864,-0.0988488,-0.578521
4409,32,-7,-60,-55,-70,-25,2,7,0.39209,-0.144043,0.923828,4,-1.375,0.5625,-0.24864,-0.0988488,-0.578521
4409,9,-6,-36,58,90,12,-30,1,0.39209,-0.144043,0.923828,4,-1.375,0.5625,-0.24864,-0.0988488,-0.578521
4430,11,22,69,-22,-28,8,26,7,-0.138672,-0.174805,0.535645,9.0625,1.1875,-4.625,-0.246241,-0.0942324,-0.580088
4430,-8,3,-2,73,59,28,33,12,-0.138672,-0.174805,0.535645,9.0625,1.1875,-4.625,-0.246241,-0.0942324,-0.580088
4431,47,2,41,4,-39,-32,-38,-1,-0.138672,-0.174805,0.535645,9.0625,1.1875,-4.625,-0.246241,-0.0942324,-0.580088
4431,-28,-3,-24,-65,-61,4,20,-8,-0.138672,-0.174805,0.535645,9.0625,1.1875,-4.625,-0.246241,-0.0942324,-0.580088
4452,-13,-11,12,38,45,12,4,-17,-0.390137,-0.241699,0.501953,5.125,3.8125,-4.125,-0.247033,-0.082734,-0.581482
4452,-1,-6,-21,-74,-109,-15,-2,11,-0.390137,-0.241699,0.501953,5.125,3.8125,-4.125,-0.247033,-0.082734,-0.581482
4453,27,11,-13,17,100,24,10,2,-0.390137,-0.241699,0.501953,5.125,3.8125,-4.125,-0.247033,-0.082734,-0.581482
4453,55,6,68,106,55,6,23,29,-0.390137,-0.241699,0.501953,5.125,3.8125,-4.125,-0.247033,-0.082734,-0.581482
4475,-33,4,-24,-50,-51,-10,-1,-19,-0.437988,-0.268066,0.536621,3.625,3.75,-3.625,-0.248717,-0.0700751,-0.582799
4475,-100,-27,-79,-46,-27,-45,-20,-28,-0.437988,-0.268066,0.536621,3.625,3.75,-3.625,-0.248717,-0.0700751,-0.582799
4476,28,7,25,25,22,14,-28,11,-0.437988,-0.268066,0.536621,3.625,3.75,-3.625,-0.248717,-0.0700751,-0.582799
4476,6,6,24,-3,-4,4,16,-4,-0.437988,-0.268066,0.536621,3.625,3.75,-3.625,-0.248717,-0.0700751,-0.582799
4481,30,16,33,40,41,9,-9,24,-0.312012,-0.209473,0.538574,4.9375,2.75,-2.4375,-0.248606,-0.0609394,-0.583862
4481,-62,-10,-10,-1,-33,-43,24,-13,-0.312012,-0.209473,0.538574,4.9375,2.75,-2.4375,-0.248606,-0.0609394,-0.583862
4483,-13,-16,-114,-128,-123,-27,-27,-12,-0.312012,-0.209473,0.538574,4.9375,2.75,-2.4375,-0.248606,-0.0609394,-0.583862
4483,-6,-4,30,72,126,31,14,-5,-0.312012,-0.209473,0.538574,4.9375,2.75,-2.4375,-0.248606,-0.0609394,-0.583862
4504,17,9,15,77,41,18,-39,18,0.132324,-0.132324,0.745605,3.9375,1,-2.6875,-0.245828,-0.0629304,-0.584892
4504,36,16,2,-38,-66,3,-14,20,0.132324,-0.132324,0.745605,3.9375,1,-2.6875,-0.245828,-0.0629304,-0.584892
4505,-3,-7,40,-10,11,-25,16,4,0.132324,-0.132324,0.745605,3.9375,1,-2.6875,-0.245828,-0.0629304,-0.584892
4505,-53,-11,-29,-13,-52,-16,-20,-25,0.132324,-0.132324,0.745605,3.9375,1,-2.6875,-0.245828,-0.0629304,-0.584892
4527,9,12,57,13,4,1,-4,7,0.581543,-0.190918,1.23438,0,1.1875,-0.5,-0.243002,-0.0745847,-0.585365
4527,-12,-21,-89,-68,-14,25,15,25,0.581543,-0.190918,1.23438,0,1.1875,-0.5,-0.243002,-0.0745847,-0.585365
4528,46,-1,3,122,92,30,24,10,0.581543,-0.190918,1.23438,0,1.1875,-0.5,-0.243002,-0.0745847,-0.585365
4528,-51,-2,-67,-52,-55,20,1,-10,0.581543,-0.190918,1.23438,0,1.1875,-0.5,-0.243002,-0.0745847,-0.585365
4550,-21,-3,-17,-29,-21,-34,19,-18,-0.151367,-0.417969,0.935547,-3.6875,2.3125,2.6875,-0.248625,-0.0681994,-0.584284
4550,31,16,68,6,7,-3,-22,3,-0.151367,-0.417969,0.935547,-3.6875,2.3125,2.6875,-0.248625,-0.0681994,-0.584284
4551,20,-9,-93,-83,-80,-13,-41,18,-0.151367,-0.417969,0.935547,-3.6875,2.3125,2.6875,-0.248625,-0.0681994,-0.584284
4551,13,-7,16,22,30,-16,-6,21,-0.151367,-0.417969,0.935547,-3.6875,2.3125,2.6875,-0.248625,-0.0681994,-0.584284
4573,-13,-5,15,66,54,18,4,-20,-0.249023,-0.202148,0.626953,2,-0.375,-1.25,-0.248976,-0.0614089,-0.584564
4573,24,6,13,-2,27,26,3,8,-0.249023,-0.202148,0.626953,2,-0.375,-1.25,-0.248976,-0.0614089,-0.584564
4573,6,3,-4,-62,-37,-47,0,3,-0.249023,-0.202148,0.626953,2,-0.375,-1.25,-0.248976,-0.0614089,-0.584564
4573,82,4,20,59,-15,10,-43,-6,-0.249023,-0.202148,0.626953,2,-0.375,-1.25,-0.248976,-0.0614089,-0.584564
4595,-67,-12,-22,-94,-89,20,77,-17,0.572754,-0.188477,1.27295,-2.875,-0.4375,-0.375,-0.246718,-0.0733413,-0.58486
4595,19,-10,-8,36,120,2,16,-1,0.572754,-0.188477,1.27295,-2.875,-0.4375,-0.375,-0.246718,-0.0733413,-0.58486
4596,6,25,121,120,62,15,-15,0,0.572754,-0.188477,1.27295,-2.875,-0.4375,-0.375,-0.246718,-0.0733413,-0.58486
4596,3,0,-81,-127,-93,-50,2,28,0.572754,-0.188477,1.27295,-2.875,-0.4375,-0.375,-0.246718,-0.0733413,-0.58486
4601,31,-1,19,-10,17,30,-23,7,-0.464355,-0.330078,0.562988,-0.3125,0.5625,-0.8125,-0.24787,-0.0703474,-0.584827
4601,-21,-5,-79,-21,-46,-4,22,-18,-0.464355,-0.330078,0.562988,-0.3125,0.5625,-0.8125,-0.24787,-0.0703474,-0.584827
4617,-6,-15,-35,49,49,35,15,-12,-0.464355,-0.330078,0.562988,-0.3125,0.5625,-0.8125,-0.24787,-0.0703474,-0.584827
4617,-7,6,17,13,-20,-33,9,-6,-0.464355,-0.330078,0.562988,-0.3125,0.5625,-0.8125,-0.24787,-0.0703474,-0.584827
4624,43,-3,-31,-73,-38,-11,-9,8,0.486816,-0.217773,1.29785,-3.375,-0.3125,-0.8125,-0.246308,-0.0799458,-0.585289
4624,-36,-4,36,77,70,-4,-13,-16,0.486816,-0.217773,1.29785,-3.375,-0.3125,-0.8125,-0.246308,-0.0799458,-0.585289
4625,-1,13,47,13,-47,-22,3,20,0.486816,-0.217773,1.29785,-3.375,-0.3125,-0.8125,-0.246308,-0.0799458,-0.585289
4625,7,-2,-34,-1,54,54,39,-19,0.486816,-0.217773,1.29785,-3.375,-0.3125,-0.8125,-0.246308,-0.0799458,-0.585289
4648,10,-2,48,39,-1,-41,-37,13,-0.0976562,-0.171387,0.721191,1.25,0.0625,-1.5,-0.245604,-0.0762128,-0.585818
4648,-37,0,32,-25,-7,0,-31,-5,-0.0976562,-0.171387,0.721191,1.25,0.0625,-1.5,-0.245604,-0.0762128,-0.585818
4649,1,-9,-41,-60,-44,-36,18,-5,-0.0976562,-0.171387,0.721191,1.25,0.0625,-1.5,-0.245604,-0.0762128,-0.585818
4649,-6,-8,-43,-28,-35,-13,48,13,-0.0976562,-0.171387,0.721191,1.25,0.0625,-1.5,-0.245604,-0.0762128,-0.585818
4670,27,7,6,17,45,25,-45,-17,-0.33252,-0.444336,0.625977,0.6875,0.9375,2.75,-0.252106,-0.0664634,-0.584506
4670,-13,-2,7,42,36,-5,-9,22,-0.33252,-0.444336,0.625977,0.6875,0.9375,2.75,-0.252106,-0.0664634,-0.584506
4671,-11,1,-15,-36,-58,10,15,-5,-0.33252,-0.444336,0.625977,0.6875,0.9375,2.75,-0.252106,-0.0664634,-0.584506
4671,-15,0,9,-54,12,-11,-31,-15,-0.33252,-0.444336,0.625977,0.6875,0.9375,2.75,-0.252106,-0.0664634,-0.584506
4684,15,14,32,120,111,15,51,13,0.45752,-0.236816,1.29102,0.4375,-0.125,0.8125,-0.251589,-0.0686194,-0.5845
4684,37,-12,-28,-36,-50,-25,-37,0,0.45752,-0.236816,1.29102,0.4375,-0.125,0.8125,-0.251589,-0.0686194,-0.5845
4685,-3,3,7,-55,-69,9,1,7,0.45752,-0.236816,1.29102,0.4375,-0.125,0.8125,-0.251589,-0.0686194,-0.5845
4685,-11,-7,-33,7,8,-5,-18,-22,0.45752,-0.236816,1.29102,0.4375,-0.125,0.8125,-0.251589,-0.0686194,-0.5845
4708,-5,-11,-44,-89,-104,-57,11,-1,0.492676,-0.0668945,1.22803,1.0625,-0.25,-0.0625,-0.245412,-0.0785986,-0.584909
4708,70,-2,-46,34,47,6,23,5,0.492676,-0.0668945,1.22803,1.0625,-0.25,-0.0625,-0.245412,-0.0785986,-0.584909
4709,-102,-1,59,-12,-5,40,23,3,0.492676,-0.0668945,1.22803,1.0625,-0.25,-0.0625,-0.245412,-0.0785986,-0.584909
4709,43,3,53,83,81,-16,-1,-6,0.492676,-0.0668945,1.22803,1.0625,-0.25,-0.0625,-0.245412,-0.0785986,-0.584909
4730,-81,5,34,98,23,45,9,-9,-0.00146484,-0.144531,0.805664,0,-0.75,0.1875,-0.24517,-0.0781438,-0.584977
4730,16,4,-25,-94,-109,-6,22,6,-0.00146484,-0.144531,0.805664,0,-0.75,0.1875,-0.24517,-0.0781438,-0.584977
4731,11,-3,-19,-38,-65,-12,-42,-1,-0.00146484,-0.144531,0.805664,0,-0.75,0.1875,-0.24517,-0.0781438,-0.584977
4731,1,1,35,5,75,-11,-13,-6,-0.00146484,-0.144531,0.805664,0,-0.75,0.1875,-0.24517,-0.0781438,-0.584977
4753,-6,-15,-28,6,24,22,-15,-11,-0.352539,-0.294434,0.567383,0.8125,0.25,0.8125,-0.245979,-0.0758104,-0.584827
4753,16,19,40,58,22,-12,-1,7,-0.352539,-0.294434,0.567383,0.8125,0.25,0.8125,-0.245979,-0.0758104,-0.584827
4753,33,1,6,-39,-43,-16,-9,8,-0.352539,-0.294434,0.567383,0.8125,0.25,0.8125,-0.245979,-0.0758104,-0.584827
4753,-64,-6,22,-83,-36,9,-6,-14,-0.352539,-0.294434,0.567383,0.8125,0.25,0.8125,-0.245979,-0.0758104,-0.584827
4775,-4,-5,-44,16,10,-29,-1,13,-0.504883,-0.384766,0.424316,-1,0.75,2.125,-0.252807,-0.0623489,-0.583832
4775,-7,-9,-4,-12,2,0,-29,-24,-0.504883,-0.384766,0.424316,-1,0.75,2.125,-0.252807,-0.0623489,-0.583832
4775,71,-9,-76,18,-30,-17,-8,7,-0.504883,-0.384766,0.424316,-1,0.75,2.125,-0.252807,-0.0623489,-0.583832
4775,-40,1,31,-58,55,28,12,-35,-0.504883,-0.384766,0.424316,-1,0.75,2.125,-0.252807,-0.0623489,-0.583832
4781,-8,-10,-14,24,-14,22,-29,18,-0.507812,-0.419434,0.377441,-1.5,0.875,1.125,-0.260874,-0.0490279,-0.583084
4781,-19,9,16,69,68,-10,-11,8,-0.507812,-0.419434,0.377441,-1.5,0.875,1.125,-0.260874,-0.0490279,-0.583084
4796,12,14,48,-20,-26,-68,2,-16,-0.507812,-0.419434,0.377441,-1.5,0.875,1.125,-0.260874,-0.0490279,-0.583084
4796,10,1,46,105,38,55,4,25,-0.507812,-0.419434,0.377441,-1.5,0.875,1.125,-0.260874,-0.0490279,-0.583084
4805,-13,4,-64,-61,-32,-16,3,-19,-0.48584,-0.415039,0.40332,-0.875,1.1875,0.125,-0.268222,-0.0364289,-0.582764
4805,3,-1,10,11,42,49,13,-7,-0.48584,-0.415039,0.40332,-0.875,1.1875,0.125,-0.268222,-0.0364289,-0.582764
4806,0,-4,-1,-55,-61,-3,-21,0,-0.48584,-0.415039,0.40332,-0.875,1.1875,0.125,-0.268222,-0.0364289,-0.582764
4806,-54,-6,22,-45,-52,-63,-31,9,-0.48584,-0.415039,0.40332,-0.875,1.1875,0.125,-0.268222,-0.0364289,-0.582764
4829,13,11,23,91,81,-4,0,6,-0.454102,-0.335449,0.461914,0.9375,1.5625,1.625,-0.272838,-0.0243795,-0.582299
4829,26,-3,-37,-23,-51,12,13,19,-0.454102,-0.335449,0.461914,0.9375,1.5625,1.625,-0.272838,-0.0243795,-0.582299
4830,-46,-12,-17,-33,10,17,13,-10,-0.454102,-0.335449,0.461914,0.9375,1.5625,1.625,-0.272838,-0.0243795,-0.582299
4830,50,0,-11,19,-12,9,13,8,-0.454102,-0.335449,0.461914,0.9375,1.5625,1.625,-0.272838,-0.0243795,-0.582299
4851,4,-3,-16,-60,-42,10,16,18,-0.225098,-0.211914,0.657715,-0.75,1.25,3.1875,-0.273717,-0.0178229,-0.581247
4851,-19,9,45,44,52,-14,-15,-33,-0.225098,-0.211914,0.657715,-0.75,1.25,3.1875,-0.273717,-0.0178229,-0.581247
4851,8,10,62,106,127,61,-12,5,-0.225098,-0.211914,0.657715,-0.75,1.25,3.1875,-0.273717,-0.0178229,-0.581247
4851,6,0,-75,-75,-121,3,4,-6,-0.225098,-0.211914,0.657715,-0.75,1.25,3.1875,-0.273717,-0.0178229,-0.581247
4873,-11,-3,68,-56,7,-35,-2,-7,0.265625,-0.0595703,1.08789,-0.75,0.875,1.4375,-0.268219,-0.0233289,-0.581006
4873,15,-3,-21,31,-19,1,8,11,0.265625,-0.0595703,1.08789,-0.75,0.875,1.4375,-0.268219,-0.0233289,-0.581006
4874,-4,-2,-28,-80,-48,-25,-17,-7,0.265625,-0.0595703,1.08789,-0.75,0.875,1.4375,-0.268219,-0.0233289,-0.581006
4874,-7,-1,48,40,90,-12,-19,8,0.265625,-0.0595703,1.08789,-0.75,0.875,1.4375,-0.268219,-0.0233289,-0.581006
4895,30,5,-10,46,23,35,0,-15,0.60791,-0.0639648,1.52148,1.6875,0.5625,0.375,-0.259463,-0.0367716,-0.581114
4895,-35,-6,7,-20,-6,-22,10,11,0.60791,-0.0639648,1.52148,1.6875,0.5625,0.375,-0.259463,-0.0367716,-0.581114
4896,22,-3,-37,33,5,39,12,-2,0.60791,-0.0639648,1.52148,1.6875,0.5625,0.375,-0.259463,-0.0367716,-0.581114
4896,-55,-17,8,-109,-105,-30,15,-14,0.60791,-0.0639648,1.52148,1.6875,0.5625,0.375,-0.259463,-0.0367716,-0.581114
4918,22,3,-38,-60,42,-38,-23,5,0.209473,-0.333984,1.05615,1,-0.125,0.6875,-0.26031,-0.0408459,-0.580884
4918,-3,4,11,101,75,72,37,-7,0.209473,-0.333984,1.05615,1,-0.125,0.6875,-0.26031,-0.0408459,-0.580884
4919,24,10,8,14,-7,21,16,-11,0.209473,-0.333984,1.05615,1,-0.125,0.6875,-0.26031,-0.0408459,-0.580884
4919,15,5,6,-29,-30,4,-15,-6,0.209473,-0.333984,1.05615,1,-0.125,0.6875,-0.26031,-0.0408459,-0.580884
4925,23,-2,43,36,-3,-3,37,-7,-0.480957,-0.478027,0.299316,0.75,-0.5625,0.6875,-0.262623,-0.037807,-0.580793
4925,24,-14,-32,-91,-69,-51,18,8,-0.480957,-0.478027,0.299316,0.75,-0.5625,0.6875,-0.262623,-0.037807,-0.580793
4925,-77,-23,-46,20,93,6,-33,-4,-0.480957,-0.478027,0.299316,0.75,-0.5625,0.6875,-0.262623,-0.037807,-0.580793
4925,49,18,18,96,28,-11,-3,21,-0.480957,-0.478027,0.299316,0.75,-0.5625,0.6875,-0.262623,-0.037807,-0.580793
4963,-28,-11,-13,-56,-46,4,-23,0,0.116699,-0.119629,0.950195,0.625,1.125,1,-0.259327,-0.0393655,-0.580657
4963,2,16,90,8,-7,-10,-14,-21,0.116699,-0.119629,0.950195,0.625,1.125,1,-0.259327,-0.0393655,-0.580657
4963,-1,2,-17,18,53,24,52,11,0.116699,-0.119629,0.950195,0.625,1.125,1,-0.259327,-0.0393655,-0.580657
4963,28,-3,-57,-58,-74,-80,-18,3,0.116699,-0.119629,0.950195,0.625,1.125,1,-0.259327,-0.0393655,-0.580657
4970,-14,-8,10,35,20,25,-32,-4,0.449707,-0.198242,1.33594,0.0625,0.25,-0.3125,-0.258392,-0.0416464,-0.580613
4970,11,1,-11,-34,-43,27,53,19,0.449707,-0.198242,1.33594,0.0625,0.25,-0.3125,-0.258392,-0.0416464,-0.580613
4970,5,-5,-11,-27,-33,-34,1,-7,0.449707,-0.198242,1.33594,0.0625,0.25,-0.3125,-0.258392,-0.0416464,-0.580613
4970,-15,-9,1,0,62,-42,-11,-1,0.449707,-0.198242,1.33594,0.0625,0.25,-0.3125,-0.258392,-0.0416464,-0.580613
4984,-2,7,-6,68,53,67,32,5,-0.475098,-0.459473,0.265625,1.5625,-0.1875,0.1875,-0.266849,-0.0300086,-0.58021
4984,39,1,-31,-9,-12,-11,-30,9,-0.475098,-0.459473,0.265625,1.5625,-0.1875,0.1875,-0.266849,-0.0300086,-0.58021
4985,-75,3,10,14,-9,24,-17,-4,-0.475098,-0.459473,0.265625,1.5625,-0.1875,0.1875,-0.266849,-0.0300086,-0.58021
4985,-5,-14,-44,-82,-105,-38,6,-2,-0.475098,-0.459473,0.265625,1.5625,-0.1875,0.1875,-0.266849,-0.0300086,-0.58021
5007,-8,-19,10,38,27,-9,-42,-20,0.527832,-0.0327148,1.54248,-1.25,1.3125,0.3125,-0.258304,-0.0410947,-0.580565
5007,11,13,64,56,83,-2,4,13,0.527832,-0.0327148,1.54248,-1.25,1.3125,0.3125,-0.258304,-0.0410947,-0.580565
5009,54,9,-10,28,8,42,19,7,0.527832,-0.0327148,1.54248,-1.25,1.3125,0.3125,-0.258304,-0.0410947,-0.580565
5009,-31,-5,-39,-38,-68,-4,1,14,0.527832,-0.0327148,1.54248,-1.25,1.3125,0.3125,-0.258304,-0.0410947,-0.580565
5030,-17,-4,9,-128,-68,-26,-2,-17,-0.307129,-0.469727,0.414551,2.5,-0.6875,-0.1875,-0.265721,-0.0333992,-0.58027
5030,-28,-18,-90,46,16,17,-16,-14,-0.307129,-0.469727,0.414551,2.5,-0.6875,-0.1875,-0.265721,-0.0333992,-0.58027
5030,50,23,72,-38,-73,-26,5,7,-0.307129,-0.469727,0.414551,2.5,-0.6875,-0.1875,-0.265721,-0.0333992,-0.58027
5030,-49,-4,19,116,127,17,-8,-28,-0.307129,-0.469727,0.414551,2.5,-0.6875,-0.1875,-0.265721,-0.0333992,-0.58027
5053,26,12,-6,29,19,13,56,25,0.367676,-0.0644531,1.32861,-4.4375,0.3125,-1,-0.260326,-0.0412287,-0.580839
5053,-37,-14,20,-104,-102,-35,-57,-3,0.367676,-0.0644531,1.32861,-4.4375,0.3125,-1,-0.260326,-0.0412287,-0.580839
5054,-42,5,52,45,70,-26,-23,-16,0.367676,-0.0644531,1.32861,-4.4375,0.3125,-1,-0.260326,-0.0412287,-0.580839
5054,54,-4,-18,-24,-47,-20,17,22,0.367676,-0.0644531,1.32861,-4.4375,0.3125,-1,-0.260326,-0.0412287,-0.580839
5075,-19,11,36,105,99,56,27,-5,-0.305664,-0.475586,0.412109,3.8125,-0.6875,-1.9375,-0.267431,-0.0337799,-0.581164
5075,19,12,-10,-2,-2,-5,5,4,-0.305664,-0.475586,0.412109,3.8125,-0.6875,-1.9375,-0.267431,-0.0337799,-0.581164
5076,-17,-9,10,-113,-75,-41,7,-11,-0.305664,-0.475586,0.412109,3.8125,-0.6875,-1.9375,-0.267431,-0.0337799,-0.581164
5076,18,20,92,63,116,18,-21,-16,-0.305664,-0.475586,0.412109,3.8125,-0.6875,-1.9375,-0.267431,-0.0337799,-0.581164
5098,1,-4,-103,60,28,5,-6,13,0.524902,-0.0219727,1.59277,-4.125,0.1875,-0.25,-0.259182,-0.0451041,-0.581608
5098,25,-10,-22,-116,-89,-17,8,1,0.524902,-0.0219727,1.59277,-4.125,0.1875,-0.25,-0.259182,-0.0451041,-0.581608
5098,-19,-14,3,38,24,-4,-21,-14,0.524902,-0.0219727,1.59277,-4.125,0.1875,-0.25,-0.259182,-0.0451041,-0.581608
5098,24,-16,-18,9,-24,31,47,-2,0.524902,-0.0219727,1.59277,-4.125,0.1875,-0.25,-0.259182,-0.0451041,-0.581608
5121,-13,-15,2,-128,-128,-78,0,-11,-0.494141,-0.485352,0.17041,3.1875,-0.625,1,-0.268423,-0.0329977,-0.580769
5121,2,4,45,86,127,38,-38,-12,-0.494141,-0.485352,0.17041,3.1875,-0.625,1,-0.268423,-0.0329977,-0.580769
5129,-6,4,0,88,57,50,-3,12,-0.494141,-0.485352,0.17041,3.1875,-0.625,1,-0.268423,-0.0329977,-0.580769
5129,8,8,11,-58,-88,-68,2,18,-0.494141,-0.485352,0.17041,3.1875,-0.625,1,-0.268423,-0.0329977,-0.580769
5130,-64,-18,-25,-83,-9,94,-12,-24,0.570801,-0.0742188,1.58984,-2.625,0.375,0.625,-0.260806,-0.0452482,-0.580983
5130,-2,12,6,32,-18,-28,-8,20,0.570801,-0.0742188,1.58984,-2.625,0.375,0.625,-0.260806,-0.0452482,-0.580983
5131,27,10,86,-2,6,-20,11,5,0.570801,-0.0742188,1.58984,-2.625,0.375,0.625,-0.260806,-0.0452482,-0.580983
5131,-28,0,-10,94,91,50,-26,3,0.570801,-0.0742188,1.58984,-2.625,0.375,0.625,-0.260806,-0.0452482,-0.580983
5150,-5,3,27,-21,-11,-15,22,1,-0.369629,-0.380859,0.421387,1.3125,0.375,-0.8125,-0.266561,-0.0358121,-0.580999
5150,-6,-3,-30,-65,-65,-43,-38,-1,-0.369629,-0.380859,0.421387,1.3125,0.375,-0.8125,-0.266561,-0.0358121,-0.580999
5151,-22,-4,16,21,11,48,25,1,-0.369629,-0.380859,0.421387,1.3125,0.375,-0.8125,-0.266561,-0.0358121,-0.580999
5151,30,7,-5,-7,-6,-1,8,11,-0.369629,-0.380859,0.421387,1.3125,0.375,-0.8125,-0.266561,-0.0358121,-0.580999
5172,-10,2,-9,-2,-5,-31,-5,31,0.351562,-0.229492,1.23535,1.375,0.625,0,-0.26369,-0.0429334,-0.581209
5172,-9,-3,32,-1,-6,17,9,-36,0.351562,-0.229492,1.23535,1.375,0.625,0,-0.26369,-0.0429334,-0.581209
5173,27,-8,-94,-19,-64,-15,-3,9,0.351562,-0.229492,1.23535,1.375,0.625,0,-0.26369,-0.0429334,-0.581209
5173,-8,-7,-10,-20,50,-22,-15,-13,0.351562,-0.229492,1.23535,1.375,0.625,0,-0.26369,-0.0429334,-0.581209
5195,29,2,19,78,59,-24,-8,2,-0.0600586,-0.209961,0.762207,-3.9375,0.5625,0,-0.265041,-0.0405284,-0.581268
5195,10,9,20,-24,-5,64,55,19,-0.0600586,-0.209961,0.762207,-3.9375,0.5625,0,-0.265041,-0.0405284,-0.581268
5195,-20,8,31,-5,37,-35,-18,-9,-0.0600586,-0.209961,0.762207,-3.9375,0.5625,0,-0.265041,-0.0405284,-0.581268
5195,54,-3,-5,52,6,56,62,-9,-0.0600586,-0.209961,0.762207,-3.9375,0.5625,0,-0.265041,-0.0405284,-0.581268
5250,-43,-5,-47,-100,-100,-36,-12,-17,-0.0532227,-0.400391,0.773438,2.3125,0.375,-2.625,-0.268629,-0.0384951,-0.582007
5250,-29,2,60,-29,19,-28,-30,2,-0.0532227,-0.400391,0.773438,2.3125,0.375,-2.625,-0.268629,-0.0384951,-0.582007
5252,29,-15,-56,55,55,14,13,-17,0.379395,-0.0439453,1.36426,-5.25,1.3125,-2.5625,-0.26264,-0.0461145,-0.583212
5252,-32,-8,-58,-74,-84,-18,10,19,0.379395,-0.0439453,1.36426,-5.25,1.3125,-2.5625,-0.26264,-0.0461145,-0.583212
5264,26,17,43,21,61,-28,-36,-28,0.379395,-0.0439453,1.36426,-5.25,1.3125,-2.5625,-0.26264,-0.0461145,-0.583212
5264,-6,6,32,70,53,75,22,29,0.379395,-0.0439453,1.36426,-5.25,1.3125,-2.5625,-0.26264,-0.0461145,-0.583212
5265,17,-5,-22,-87,-62,-49,-5,4,0.379395,-0.0439453,1.36426,-5.25,1.3125,-2.5625,-0.26264,-0.0461145,-0.583212
5265,-39,-21,-41,-28,-41,0,-25,-11,0.379395,-0.0439453,1.36426,-5.25,1.3125,-2.5625,-0.26264,-0.0461145,-0.583212
5267,20,-11,-41,71,44,-36,1,-3,-0.413086,-0.491699,0.223633,1.875,-0.5625,0.1875,-0.271949,-0.0360145,-0.582772
5267,-2,12,45,46,59,51,-12,-4,-0.413086,-0.491699,0.223633,1.875,-0.5625,0.1875,-0.271949,-0.0360145,-0.582772
5269,11,-13,-32,-128,-128,-67,-14,-6,-0.413086,-0.491699,0.223633,1.875,-0.5625,0.1875,-0.271949,-0.0360145,-0.582772
5269,-20,-11,2,-3,5,-11,13,-21,-0.413086,-0.491699,0.223633,1.875,-0.5625,0.1875,-0.271949,-0.0360145,-0.582772
5277,27,-8,-36,-36,-53,10,12,19,-0.413086,-0.491699,0.223633,1.875,-0.5625,0.1875,-0.271949,-0.0360145,-0.582772
5277,15,14,56,-28,79,-4,-9,-16,-0.413086,-0.491699,0.223633,1.875,-0.5625,0.1875,-0.271949,-0.0360145,-0.582772
5286,11,-6,-6,91,63,26,12,20,-0.464355,-0.43457,0.304688,3,0.875,-0.8125,-0.270446,-0.0368212,-0.583547
5286,-42,-7,54,68,33,18,-1,2,-0.464355,-0.43457,0.304688,3,0.875,-0.8125,-0.270446,-0.0368212,-0.583547
5287,-2,-2,-44,2,-4,-26,20,-5,-0.464355,-0.43457,0.304688,3,0.875,-0.8125,-0.270446,-0.0368212,-0.583547
5287,16,18,25,-2,-2,-29,46,1,-0.464355,-0.43457,0.304688,3,0.875,-0.8125,-0.270446,-0.0368212,-0.583547
5307,34,3,18,80,49,94,-41,-2,0.287109,-0.164551,0.844727,-0.375,-3.75,-1.5625,-0.268998,-0.0442522,-0.583693
5307,20,9,-28,-33,-54,-47,16,14,0.287109,-0.164551,0.844727,-0.375,-3.75,-1.5625,-0.268998,-0.0442522,-0.583693
5307,-42,-13,-17,-84,-42,-22,-8,-25,0.287109,-0.164551,0.844727,-0.375,-3.75,-1.5625,-0.268998,-0.0442522,-0.583693
5307,50,-1,44,-56,-53,15,-5,-15,0.287109,-0.164551,0.844727,-0.375,-3.75,-1.5625,-0.268998,-0.0442522,-0.583693
5313,-78,-8,-26,87,65,-19,-4,-5,0.00634766,-0.261719,0.837891,-1.0625,-3.5625,-0.375,-0.270029,-0.0446703,-0.583528
5313,-31,-7,-30,19,-28,-22,8,-13,0.00634766,-0.261719,0.837891,-1.0625,-3.5625,-0.375,-0.270029,-0.0446703,-0.583528
5329,-8,0,11,-61,-34,0,-10,-3,0.00634766,-0.261719,0.837891,-1.0625,-3.5625,-0.375,-0.270029,-0.0446703,-0.583528
5329,36,12,57,45,31,13,22,4,0.00634766,-0.261719,0.837891,-1.0625,-3.5625,-0.375,-0.270029,-0.0446703,-0.583528
5336,-8,-6,-2,-57,-58,0,6,8,0.0302734,-0.256348,0.911133,-1.375,-0.1875,-0.8125,-0.270602,-0.0444822,-0.58369
5336,18,-14,-75,-21,32,-44,-16,9,0.0302734,-0.256348,0.911133,-1.375,-0.1875,-0.8125,-0.270602,-0.0444822,-0.58369
5351,9,14,57,45,78,1,24,2,0.0302734,-0.256348,0.911133,-1.375,-0.1875,-0.8125,-0.270602,-0.0444822,-0.58369
5351,-42,-9,-7,78,-37,32,-50,-7,0.0302734,-0.256348,0.911133,-1.375,-0.1875,-0.8125,-0.270602,-0.0444822,-0.58369
5359,55,20,79,-117,-69,-26,-4,20,0.0439453,-0.254883,0.914062,-2.3125,-0.8125,-2,-0.271353,-0.0450474,-0.584289
5359,-56,-28,-72,65,85,20,-18,-61,0.0439453,-0.254883,0.914062,-2.3125,-0.8125,-2,-0.271353,-0.0450474,-0.584289
5374,-25,10,24,28,17,46,-1,20,0.0439453,-0.254883,0.914062,-2.3125,-0.8125,-2,-0.271353,-0.0450474,-0.584289
5374,-7,12,44,-18,27,-11,8,4,0.0439453,-0.254883,0.914062,-2.3125,-0.8125,-2,-0.271353,-0.0450474,-0.584289
5383,40,-5,-48,-96,-98,-20,6,12,0.0625,-0.271484,0.913086,-2.75,-2.5625,-2.625,-0.272707,-0.0465756,-0.584879
5383,7,-4,-26,29,-8,-9,17,-5,0.0625,-0.271484,0.913086,-2.75,-2.5625,-2.625,-0.272707,-0.0465756,-0.584879
5384,11,-1,6,26,43,-4,-50,-12,0.0625,-0.271484,0.913086,-2.75,-2.5625,-2.625,-0.272707,-0.0465756,-0.584879
5384,-21,-4,-47,-29,-49,3,-21,-1,0.0625,-0.271484,0.913086,-2.75,-2.5625,-2.625,-0.272707,-0.0465756,-0.584879
5406,10,-9,-11,-58,-19,-43,3,-8,0.0625,-0.255859,0.90918,-1.75,-2.25,-0.9375,-0.273258,-0.0477843,-0.585003
5406,34,-1,16,-5,-16,28,6,9,0.0625,-0.255859,0.90918,-1.75,-2.25,-0.9375,-0.273258,-0.0477843,-0.585003
5407,-43,2,6,36,-6,17,29,-1,0.0625,-0.255859,0.90918,-1.75,-2.25,-0.9375,-0.273258,-0.0477843,-0.585003
5407,11,-16,2,9,35,28,-38,3,0.0625,-0.255859,0.90918,-1.75,-2.25,-0.9375,-0.273258,-0.0477843,-0.585003
5429,38,-10,13,-87,-60,-70,18,14,-0.0424805,-0.191895,0.640625,3.75,-7.0625,-0.5625,-0.272281,-0.0484447,-0.584516
5429,-62,-11,-71,10,5,26,-8,-22,-0.0424805,-0.191895,0.640625,3.75,-7.0625,-0.5625,-0.272281,-0.0484447,-0.584516
5429,12,13,40,116,127,39,19,17,-0.0424805,-0.191895,0.640625,3.75,-7.0625,-0.5625,-0.272281,-0.0484447,-0.584516
5429,25,14,-31,-53,-78,-2,1,9,-0.0424805,-0.191895,0.640625,3.75,-7.0625,-0.5625,-0.272281,-0.0484447,-0.584516
5433,-19,-14,20,44,74,-5,-34,8,0.542969,-0.171387,1.3667,-2.875,-1.625,-3.8125,-0.268383,-0.0607136,-0.585975
5433,10,7,52,8,-42,-39,-13,-10,0.542969,-0.171387,1.3667,-2.875,-1.625,-3.8125,-0.268383,-0.0607136,-0.585975
5449,36,0,-19,-43,-17,-10,-38,18,0.542969,-0.171387,1.3667,-2.875,-1.625,-3.8125,-0.268383,-0.0607136,-0.585975
5449,-34,-5,-25,-34,-19,16,63,9,0.542969,-0.171387,1.3667,-2.875,-1.625,-3.8125,-0.268383,-0.0607136,-0.585975
5456,-44,-6,23,37,-13,-4,-20,-33,-0.245117,-0.476562,0.526367,0.875,-3.75,-4.4375,-0.275599,-0.055551,-0.586591
5456,17,17,1,-13,34,8,11,24,-0.245117,-0.476562,0.526367,0.875,-3.75,-4.4375,-0.275599,-0.055551,-0.586591
5472,-7,-3,2,31,7,21,-10,-13,-0.245117,-0.476562,0.526367,0.875,-3.75,-4.4375,-0.275599,-0.055551,-0.586591
5472,19,-9,-77,6,-5,-45,0,11,-0.245117,-0.476562,0.526367,0.875,-3.75,-4.4375,-0.275599,-0.055551,-0.586591
5479,-1,9,-15,-12,-2,65,11,-13,0.415039,-0.0512695,1.41357,-7.3125,-3.8125,-0.6875,-0.270081,-0.0649828,-0.586992
5479,38,2,5,-47,-43,-35,-3,4,0.415039,-0.0512695,1.41357,-7.3125,-3.8125,-0.6875,-0.270081,-0.0649828,-0.586992
5495,-76,-12,-6,-31,-76,-43,-16,-32,0.415039,-0.0512695,1.41357,-7.3125,-3.8125,-0.6875,-0.270081,-0.0649828,-0.586992
5495,2,-17,-1,-76,-15,5,-22,-2,0.415039,-0.0512695,1.41357,-7.3125,-3.8125,-0.6875,-0.270081,-0.0649828,-0.586992
5496,-4,3,18,86,47,-2,-9,-5,-0.438965,-0.499512,0.185059,2.5625,-5,0.625,-0.279575,-0.055589,-0.585619
5496,42,4,39,61,83,-14,44,3,-0.438965,-0.499512,0.185059,2.5625,-5,0.625,-0.279575,-0.055589,-0.585619
5502,34,5,-12,11,-38,54,3,24,-0.438965,-0.499512,0.185059,2.5625,-5,0.625,-0.279575,-0.055589,-0.585619
5502,-88,-4,-10,20,33,-25,-14,-32,-0.438965,-0.499512,0.185059,2.5625,-5,0.625,-0.279575,-0.055589,-0.585619
5518,-41,-6,-22,-26,-63,-35,3,-2,0.598145,-0.0444336,1.64941,-3.6875,-4.3125,-0.6875,-0.270881,-0.069208,-0.586083
5518,33,7,-4,-60,-43,28,-11,13,0.598145,-0.0444336,1.64941,-3.6875,-4.3125,-0.6875,-0.270881,-0.069208,-0.586083
5524,13,-8,28,25,67,-20,22,-17,0.598145,-0.0444336,1.64941,-3.6875,-4.3125,-0.6875,-0.270881,-0.069208,-0.586083
5524,12,9,23,44,44,34,32,10,0.598145,-0.0444336,1.64941,-3.6875,-4.3125,-0.6875,-0.270881,-0.069208,-0.586083
5540,17,15,23,17,-74,-12,-6,26,-0.363281,-0.378418,0.439941,-1.125,-5.6875,-2.375,-0.27724,-0.0617387,-0.585955
5540,3,10,83,-68,9,-15,-5,-12,-0.363281,-0.378418,0.439941,-1.125,-5.6875,-2.375,-0.27724,-0.0617387,-0.585955
5547,-25,-3,6,61,60,-1,21,-8,-0.363281,-0.378418,0.439941,-1.125,-5.6875,-2.375,-0.27724,-0.0617387,-0.585955
5547,12,12,56,27,-6,-1,-20,13,-0.363281,-0.378418,0.439941,-1.125,-5.6875,-2.375,-0.27724,-0.0617387,-0.585955
5562,7,-5,-54,-47,-11,-18,12,-4,0.302734,-0.26709,1.18164,-0.5625,-6,-1.8125,-0.27577,-0.0692889,-0.586127
5562,-4,-23,-65,-16,-56,-30,13,4,0.302734,-0.26709,1.18164,-0.5625,-6,-1.8125,-0.27577,-0.0692889,-0.586127
5563,-12,4,4,-119,-102,-49,-32,1,0.302734,-0.26709,1.18164,-0.5625,-6,-1.8125,-0.27577,-0.0692889,-0.586127
5563,18,-12,-2,107,127,98,35,-6,0.302734,-0.26709,1.18164,-0.5625,-6,-1.8125,-0.27577,-0.0692889,-0.586127
5585,-13,9,23,89,71,-18,-48,-13,0.027832,-0.17334,0.851074,-4.625,-5,-1.3125,-0.275719,-0.0703045,-0.586112
5585,14,6,-21,-20,-73,-3,-74,-7,0.027832,-0.17334,0.851074,-4.625,-5,-1.3125,-0.275719,-0.0703045,-0.586112
5586,-1,-3,-5,1,75,-3,36,11,0.027832,-0.17334,0.851074,-4.625,-5,-1.3125,-0.275719,-0.0703045,-0.586112
5586,-17,2,-1,23,-27,-31,-3,0,0.027832,-0.17334,0.851074,-4.625,-5,-1.3125,-0.275719,-0.0703045,-0.586112
5607,14,-1,-42,-95,-78,8,19,-10,-0.13916,-0.447266,0.655762,2.625,-5.6875,-0.5,-0.28088,-0.0676531,-0.585324
5607,-12,-16,-15,-109,-96,-31,-10,-11,-0.13916,-0.447266,0.655762,2.625,-5.6875,-0.5,-0.28088,-0.0676531,-0.585324
5608,59,16,36,68,-23,6,-40,9,-0.13916,-0.447266,0.655762,2.625,-5.6875,-0.5,-0.28088,-0.0676531,-0.585324
5608,-50,-10,37,106,100,8,23,-16,-0.13916,-0.447266,0.655762,2.625,-5.6875,-0.5,-0.28088,-0.0676531,-0.585324
5623,-6,7,40,84,58,37,20,24,0.239258,-0.325684,1.17969,-6.3125,-3.8125,2.25,-0.282849,-0.0723269,-0.584223
5623,-4,-3,-41,-115,-93,-24,29,10,0.239258,-0.325684,1.17969,-6.3125,-3.8125,2.25,-0.282849,-0.0723269,-0.584223
5630,-29,-18,-69,-63,5,-38,-45,-7,0.239258,-0.325684,1.17969,-6.3125,-3.8125,2.25,-0.282849,-0.0723269,-0.584223
5630,74,14,47,62,63,46,-1,-16,0.239258,-0.325684,1.17969,-6.3125,-3.8125,2.25,-0.282849,-0.0723269,-0.584223
