0,1,-3,0,-1,0,-2,0,0,0.958008,-0.0732422,0.171387,10,-6.3125,5.8125,-0.5622,-1.40485,-0.184489
0,-1,0,-1,-2,-2,-1,0,-2,0.958008,-0.0732422,0.171387,10,-6.3125,5.8125,-0.5622,-1.40485,-0.184489
0,-1,0,-2,-3,-2,0,-2,-1,0.958008,-0.0732422,0.171387,10,-6.3125,5.8125,-0.5622,-1.40485,-0.184489
0,-1,2,-2,-2,-1,-2,-1,-1,0.958008,-0.0732422,0.171387,10,-6.3125,5.8125,-0.5622,-1.40485,-0.184489
5,-2,-1,-1,-2,-2,0,-1,0,0.958008,-0.0732422,0.171387,10,-6.3125,5.8125,-0.5622,-1.40485,-0.184489
5,0,-2,-1,-1,-1,0,-2,-2,0.958008,-0.0732422,0.171387,10,-6.3125,5.8125,-0.5622,-1.40485,-0.184489
5,-1,1,0,-1,-1,-1,-1,-2,0.958008,-0.0732422,0.171387,10,-6.3125,5.8125,-0.5622,-1.40485,-0.184489
5,-1,0,-1,-1,-1,0,-1,0,0.958008,-0.0732422,0.171387,10,-6.3125,5.8125,-0.5622,-1.40485,-0.184489
9,-1,1,-2,-2,0,-1,-1,0,0.958008,-0.0771484,0.163086,13.125,-7.125,5.875,-0.572732,-1.40572,-0.169278
9,-1,-1,0,-1,-1,-1,1,0,0.958008,-0.0771484,0.163086,13.125,-7.125,5.875,-0.572732,-1.40572,-0.169278
19,0,-2,-1,0,-2,0,0,0,0.958008,-0.0771484,0.163086,13.125,-7.125,5.875,-0.572732,-1.40572,-0.169278
19,1,-3,1,0,0,1,0,-1,0.958008,-0.0771484,0.163086,13.125,-7.125,5.875,-0.572732,-1.40572,-0.169278
33,-1,0,0,0,-1,0,0,-1,0.959473,-0.0766602,0.164062,15.75,-7.375,5.5625,-0.581223,-1.40604,-0.154792
33,-2,-3,-1,-2,0,-1,-3,-1,0.959473,-0.0766602,0.164062,15.75,-7.375,5.5625,-0.581223,-1.40604,-0.154792
40,0,-1,1,0,0,-2,0,1,0.959473,-0.0766602,0.164062,15.75,-7.375,5.5625,-0.581223,-1.40604,-0.154792
40,-1,0,-2,-1,-1,-1,1,0,0.959473,-0.0766602,0.164062,15.75,-7.375,5.5625,-0.581223,-1.40604,-0.154792
51,-1,-3,-3,0,0,-2,-1,-2,0.960449,-0.0712891,0.160645,17.3125,-7.125,5,-0.587595,-1.4068,-0.142172
51,0,2,-1,0,-2,-1,1,-1,0.960449,-0.0712891,0.160645,17.3125,-7.125,5,-0.587595,-1.4068,-0.142172
72,0,-1,-1,0,-1,-3,1,-1,0.960449,-0.0712891,0.160645,17.3125,-7.125,5,-0.587595,-1.4068,-0.142172
72,-2,-1,0,-3,-1,-3,-1,-2,0.960449,-0.0712891,0.160645,17.3125,-7.125,5,-0.587595,-1.4068,-0.142172
73,-1,1,-1,-1,0,0,0,-1,0.963867,-0.0698242,0.149414,17.125,-6.25,4.625,-0.593268,-1.40777,-0.130269
73,-1,1,1,-2,0,-1,2,-2,0.963867,-0.0698242,0.149414,17.125,-6.25,4.625,-0.593268,-1.40777,-0.130269
117,0,-2,0,-1,-1,0,0,-1,0.968262,-0.0625,0.141113,14.75,-2.75,3.4375,-0.597202,-1.40842,-0.115108
117,-1,-3,-1,-1,-3,-2,-2,0,0.968262,-0.0625,0.141113,14.75,-2.75,3.4375,-0.597202,-1.40842,-0.115108
119,0,0,-1,-2,-2,-2,0,0,0.968262,-0.0625,0.141113,14.75,-2.75,3.4375,-0.597202,-1.40842,-0.115108
119,0,0,-1,-3,-1,-1,-2,-1,0.968262,-0.0625,0.141113,14.75,-2.75,3.4375,-0.597202,-1.40842,-0.115108
120,0,-2,-1,-1,1,-2,-3,0,0.968262,-0.0625,0.141113,14.75,-2.75,3.4375,-0.597202,-1.40842,-0.115108
120,0,-1,-2,0,0,-2,-1,-2,0.968262,-0.0625,0.141113,14.75,-2.75,3.4375,-0.597202,-1.40842,-0.115108
123,-2,-3,0,-1,-1,-1,0,-2,0.968262,-0.0625,0.141113,14.75,-2.75,3.4375,-0.597202,-1.40842,-0.115108
123,-2,-1,-2,-4,-3,-1,0,0,0.968262,-0.0625,0.141113,14.75,-2.75,3.4375,-0.597202,-1.40842,-0.115108
130,0,-1,-1,-2,-1,0,-1,0,0.986328,-0.0732422,0.142578,13.0625,-0.625,2.75,-0.595083,-1.40833,-0.112637
130,-1,1,-1,4,-1,1,-2,-1,0.986328,-0.0732422,0.142578,13.0625,-0.625,2.75,-0.595083,-1.40833,-0.112637
137,0,0,-2,2,-2,-1,-2,-1,0.986328,-0.0732422,0.142578,13.0625,-0.625,2.75,-0.595083,-1.40833,-0.112637
137,-1,-2,-1,2,-1,0,-2,0,0.986328,-0.0732422,0.142578,13.0625,-0.625,2.75,-0.595083,-1.40833,-0.112637
147,0,0,0,-1,-1,0,-2,-1,1.00195,-0.0771484,0.145996,11.8125,1.3125,2.0625,-0.590644,-1.40747,-0.112814
147,-1,-1,0,-3,1,0,0,0,1.00195,-0.0771484,0.145996,11.8125,1.3125,2.0625,-0.590644,-1.40747,-0.112814
160,-1,-2,0,-1,0,0,0,0,1.00195,-0.0771484,0.145996,11.8125,1.3125,2.0625,-0.590644,-1.40747,-0.112814
160,0,-1,0,-1,0,-2,-1,-2,1.00195,-0.0771484,0.145996,11.8125,1.3125,2.0625,-0.590644,-1.40747,-0.112814
169,-1,1,-1,0,-2,-1,0,0,1.01221,-0.074707,0.136719,11.875,3.0625,1.8125,-0.58429,-1.40625,-0.11491
169,0,3,-2,-1,-1,-1,-2,0,1.01221,-0.074707,0.136719,11.875,3.0625,1.8125,-0.58429,-1.40625,-0.11491
192,0,-2,-2,-2,-2,-2,-1,-1,1.01221,-0.074707,0.136719,11.875,3.0625,1.8125,-0.58429,-1.40625,-0.11491
192,-1,-1,-2,-1,-2,-2,-1,0,1.01221,-0.074707,0.136719,11.875,3.0625,1.8125,-0.58429,-1.40625,-0.11491
194,0,-1,-3,-1,-1,-2,-1,-1,1.01465,-0.0600586,0.133789,10.125,4.8125,2.0625,-0.574873,-1.40506,-0.120787
194,0,-3,-2,0,-2,-1,0,-2,1.01465,-0.0600586,0.133789,10.125,4.8125,2.0625,-0.574873,-1.40506,-0.120787
206,-1,0,-3,0,1,-1,-2,-2,1.01465,-0.0600586,0.133789,10.125,4.8125,2.0625,-0.574873,-1.40506,-0.120787
206,0,-1,-2,1,-2,-2,-1,-1,1.01465,-0.0600586,0.133789,10.125,4.8125,2.0625,-0.574873,-1.40506,-0.120787
214,-3,-1,-1,1,-1,-1,-2,-2,1.0083,-0.0620117,0.124023,7.25,6.5625,2.875,-0.56828,-1.40367,-0.125017
214,-1,-2,3,0,-2,-1,-2,0,1.0083,-0.0620117,0.124023,7.25,6.5625,2.875,-0.56828,-1.40367,-0.125017
229,-1,-2,0,0,0,-1,0,-3,1.0083,-0.0620117,0.124023,7.25,6.5625,2.875,-0.56828,-1.40367,-0.125017
229,0,-1,-1,0,-1,-1,-1,-2,1.0083,-0.0620117,0.124023,7.25,6.5625,2.875,-0.56828,-1.40367,-0.125017
230,0,0,1,0,-1,-1,-1,-3,1.00098,-0.0712891,0.128418,7.0625,8.0625,3.75,-0.562464,-1.40089,-0.128212
230,-1,0,-4,-2,-1,-1,-2,-1,1.00098,-0.0712891,0.128418,7.0625,8.0625,3.75,-0.562464,-1.40089,-0.128212
251,0,1,-1,-1,-1,-1,-1,0,1.00098,-0.0712891,0.128418,7.0625,8.0625,3.75,-0.562464,-1.40089,-0.128212
251,0,-1,-1,-2,-2,-2,0,-1,1.00098,-0.0712891,0.128418,7.0625,8.0625,3.75,-0.562464,-1.40089,-0.128212
253,-1,-1,-1,-1,-1,-1,0,-1,0.991211,-0.0805664,0.132324,9.625,8.625,4.5625,-0.557101,-1.39816,-0.130307
253,-1,-3,-1,-1,-1,-2,-1,0,0.991211,-0.0805664,0.132324,9.625,8.625,4.5625,-0.557101,-1.39816,-0.130307
266,-1,0,-1,-2,-2,-1,-1,-2,0.991211,-0.0805664,0.132324,9.625,8.625,4.5625,-0.557101,-1.39816,-0.130307
266,-1,-2,-3,-2,0,-1,-1,-2,0.991211,-0.0805664,0.132324,9.625,8.625,4.5625,-0.557101,-1.39816,-0.130307
273,-1,-3,0,1,-1,-1,-2,-2,0.98291,-0.0830078,0.138184,14,8.625,5.5,-0.552339,-1.39517,-0.130462
273,0,-2,-1,1,-2,0,2,-1,0.98291,-0.0830078,0.138184,14,8.625,5.5,-0.552339,-1.39517,-0.130462
289,-1,0,-1,1,-1,-2,-1,0,0.98291,-0.0830078,0.138184,14,8.625,5.5,-0.552339,-1.39517,-0.130462
289,0,1,-2,0,-1,-1,0,0,0.98291,-0.0830078,0.138184,14,8.625,5.5,-0.552339,-1.39517,-0.130462
291,0,-2,-2,-1,-3,0,1,-1,0.962891,-0.0820312,0.14502,18.3125,7.9375,6.0625,-0.54716,-1.39193,-0.129161
291,-2,1,-2,-1,-1,0,-1,-2,0.962891,-0.0820312,0.14502,18.3125,7.9375,6.0625,-0.54716,-1.39193,-0.129161
311,-1,-1,-1,0,-1,1,0,-2,0.962891,-0.0820312,0.14502,18.3125,7.9375,6.0625,-0.54716,-1.39193,-0.129161
311,-1,0,1,2,0,1,-2,0,0.962891,-0.0820312,0.14502,18.3125,7.9375,6.0625,-0.54716,-1.39193,-0.129161
312,0,-1,0,-1,-2,0,-2,2,0.950684,-0.0776367,0.146484,20.9375,6.75,6.5,-0.542586,-1.38833,-0.125947
312,-2,-1,0,0,1,0,-2,-1,0.950684,-0.0776367,0.146484,20.9375,6.75,6.5,-0.542586,-1.38833,-0.125947
324,-1,-2,-1,-3,-1,-2,-1,1,0.950684,-0.0776367,0.146484,20.9375,6.75,6.5,-0.542586,-1.38833,-0.125947
324,-1,-1,-1,-1,-2,0,0,0,0.950684,-0.0776367,0.146484,20.9375,6.75,6.5,-0.542586,-1.38833,-0.125947
334,-1,1,-1,-3,-2,0,-2,1,0.939453,-0.078125,0.145508,21.8125,5.4375,6.6875,-0.539248,-1.386,-0.121717
334,0,-1,0,-5,-1,-2,0,1,0.939453,-0.078125,0.145508,21.8125,5.4375,6.6875,-0.539248,-1.386,-0.121717
356,-2,-3,-1,-2,-2,-1,0,-1,0.939453,-0.078125,0.145508,21.8125,5.4375,6.6875,-0.539248,-1.386,-0.121717
356,-1,0,0,-1,0,0,0,-2,0.939453,-0.078125,0.145508,21.8125,5.4375,6.6875,-0.539248,-1.386,-0.121717
358,-1,0,-2,0,0,-2,0,-1,0.9375,-0.081543,0.150879,22.375,3.875,6.3125,-0.536673,-1.38403,-0.116421
358,-2,1,0,-1,-2,0,-1,-2,0.9375,-0.081543,0.150879,22.375,3.875,6.3125,-0.536673,-1.38403,-0.116421
371,-1,0,-1,-1,-1,-1,0,-1,0.9375,-0.081543,0.150879,22.375,3.875,6.3125,-0.536673,-1.38403,-0.116421
371,-2,-2,-1,-2,0,-3,-1,1,0.9375,-0.081543,0.150879,22.375,3.875,6.3125,-0.536673,-1.38403,-0.116421
373,0,1,-1,-1,0,-1,-2,-2,0.938477,-0.0849609,0.144531,22.3125,2.6875,5.1875,-0.534569,-1.382,-0.11041
373,-1,-1,0,1,-2,-1,-1,0,0.938477,-0.0849609,0.144531,22.3125,2.6875,5.1875,-0.534569,-1.382,-0.11041
385,-1,-2,0,-1,0,1,-1,0,0.938477,-0.0849609,0.144531,22.3125,2.6875,5.1875,-0.534569,-1.382,-0.11041
385,1,-1,0,-2,-2,-2,-1,-2,0.938477,-0.0849609,0.144531,22.3125,2.6875,5.1875,-0.534569,-1.382,-0.11041
394,-2,-1,-2,-2,-2,0,-1,-1,0.94043,-0.0834961,0.141602,21.3125,1.75,4.0625,-0.531679,-1.38119,-0.10567
394,-2,0,-1,-2,0,-2,0,0,0.94043,-0.0834961,0.141602,21.3125,1.75,4.0625,-0.531679,-1.38119,-0.10567
409,0,1,-1,0,-1,-2,-2,-2,0.94043,-0.0834961,0.141602,21.3125,1.75,4.0625,-0.531679,-1.38119,-0.10567
409,-3,0,-1,-1,-1,-1,-1,-2,0.94043,-0.0834961,0.141602,21.3125,1.75,4.0625,-0.531679,-1.38119,-0.10567
411,-1,0,0,0,0,-1,0,-1,0.95459,-0.0839844,0.141602,19.6875,1.25,3.0625,-0.528471,-1.38052,-0.10189
411,0,0,-3,0,0,0,1,0,0.95459,-0.0839844,0.141602,19.6875,1.25,3.0625,-0.528471,-1.38052,-0.10189
431,-1,0,0,1,-3,-1,-3,0,0.95459,-0.0839844,0.141602,19.6875,1.25,3.0625,-0.528471,-1.38052,-0.10189
431,-3,0,0,-1,-1,1,1,-1,0.95459,-0.0839844,0.141602,19.6875,1.25,3.0625,-0.528471,-1.38052,-0.10189
433,0,-1,1,0,0,0,0,-1,0.970215,-0.078125,0.125488,16.6875,1.0625,2,-0.525956,-1.38113,-0.0988088
433,-1,-1,-1,0,-1,0,-1,-4,0.970215,-0.078125,0.125488,16.6875,1.0625,2,-0.525956,-1.38113,-0.0988088
445,0,-2,-1,-1,1,0,0,-2,0.970215,-0.078125,0.125488,16.6875,1.0625,2,-0.525956,-1.38113,-0.0988088
445,1,0,-1,0,-1,0,-1,-1,0.970215,-0.078125,0.125488,16.6875,1.0625,2,-0.525956,-1.38113,-0.0988088
453,-1,0,-1,0,-2,-1,-1,-1,0.981445,-0.0732422,0.12207,12.3125,1.75,1.25,-0.522041,-1.38173,-0.0985181
453,-1,-1,-2,-1,-1,-1,-2,0,0.981445,-0.0732422,0.12207,12.3125,1.75,1.25,-0.522041,-1.38173,-0.0985181
469,0,-1,-1,-3,-1,-2,-3,0,0.981445,-0.0732422,0.12207,12.3125,1.75,1.25,-0.522041,-1.38173,-0.0985181
469,0,-2,0,0,-2,-2,-1,-2,0.981445,-0.0732422,0.12207,12.3125,1.75,1.25,-0.522041,-1.38173,-0.0985181
470,-1,-1,0,0,-1,0,-1,0,0.995605,-0.0761719,0.130859,8.875,2.4375,1.0625,-0.51864,-1.38178,-0.0988576
470,0,-2,-1,-1,-1,-1,-1,0,0.995605,-0.0761719,0.130859,8.875,2.4375,1.0625,-0.51864,-1.38178,-0.0988576
491,0,0,0,0,-1,-1,-2,-2,0.995605,-0.0761719,0.130859,8.875,2.4375,1.0625,-0.51864,-1.38178,-0.0988576
491,-1,0,1,-2,1,0,-1,1,0.995605,-0.0761719,0.130859,8.875,2.4375,1.0625,-0.51864,-1.38178,-0.0988576
494,0,-2,-1,-1,-2,0,-2,-1,1.00537,-0.090332,0.130371,7.0625,2.9375,1.125,-0.517318,-1.38095,-0.0974347
494,-2,1,0,-2,-2,-2,0,-1,1.00537,-0.090332,0.130371,7.0625,2.9375,1.125,-0.517318,-1.38095,-0.0974347
504,0,1,0,-2,-1,0,0,1,1.00537,-0.090332,0.130371,7.0625,2.9375,1.125,-0.517318,-1.38095,-0.0974347
504,-1,0,0,0,0,-1,-1,0,1.00537,-0.090332,0.130371,7.0625,2.9375,1.125,-0.517318,-1.38095,-0.0974347
513,-1,-1,-2,-1,0,-1,-1,-1,1.00244,-0.0976562,0.124512,7.0625,3.25,1.1875,-0.516692,-1.38066,-0.095753
513,0,0,2,-1,-2,-1,-1,-2,1.00244,-0.0976562,0.124512,7.0625,3.25,1.1875,-0.516692,-1.38066,-0.095753
529,-1,-1,-1,-1,-1,-1,0,-1,1.00244,-0.0976562,0.124512,7.0625,3.25,1.1875,-0.516692,-1.38066,-0.095753
529,-1,-1,-1,1,-1,-1,-3,-2,1.00244,-0.0976562,0.124512,7.0625,3.25,1.1875,-0.516692,-1.38066,-0.095753
530,-1,-1,-2,-2,-2,-1,-2,0,1.00391,-0.0942383,0.129883,8.6875,3.375,1.375,-0.515389,-1.38069,-0.0943208
530,-2,0,-2,1,0,0,0,0,1.00391,-0.0942383,0.129883,8.6875,3.375,1.375,-0.515389,-1.38069,-0.0943208
551,-1,-1,-3,-1,-2,-2,-2,-1,1.00391,-0.0942383,0.129883,8.6875,3.375,1.375,-0.515389,-1.38069,-0.0943208
551,1,-1,-1,0,-2,-1,-1,-1,1.00391,-0.0942383,0.129883,8.6875,3.375,1.375,-0.515389,-1.38069,-0.0943208
553,-2,1,-1,-2,-2,-1,-1,-1,1.00293,-0.0986328,0.126953,10.6875,3.5625,1.4375,-0.513359,-1.38006,-0.0925838
553,-1,0,0,0,-1,0,-2,-2,1.00293,-0.0986328,0.126953,10.6875,3.5625,1.4375,-0.513359,-1.38006,-0.0925838
564,-2,0,1,-2,-2,-1,1,0,1.00293,-0.0986328,0.126953,10.6875,3.5625,1.4375,-0.513359,-1.38006,-0.0925838
564,0,-1,-1,-1,-3,0,2,-2,1.00293,-0.0986328,0.126953,10.6875,3.5625,1.4375,-0.513359,-1.38006,-0.0925838
574,0,-2,0,-1,0,-2,1,-2,1.00098,-0.0869141,0.118164,11.9375,4.25,1.375,-0.5103,-1.37942,-0.0914457
574,0,-1,-2,-3,-1,-1,-3,-2,1.00098,-0.0869141,0.118164,11.9375,4.25,1.375,-0.5103,-1.37942,-0.0914457
589,0,-2,-1,-1,1,-1,0,-1,1.00098,-0.0869141,0.118164,11.9375,4.25,1.375,-0.5103,-1.37942,-0.0914457
589,0,-2,-1,-2,1,-2,0,-2,1.00098,-0.0869141,0.118164,11.9375,4.25,1.375,-0.5103,-1.37942,-0.0914457
590,-1,0,0,0,-1,-2,0,2,0.993652,-0.0849609,0.112793,12.1875,5,1.125,-0.505948,-1.3791,-0.0916994
590,-1,-1,0,0,-2,-1,-1,-2,0.993652,-0.0849609,0.112793,12.1875,5,1.125,-0.505948,-1.3791,-0.0916994
611,-1,-2,0,-1,-1,1,-1,-3,0.993652,-0.0849609,0.112793,12.1875,5,1.125,-0.505948,-1.3791,-0.0916994
611,0,0,0,-2,0,-1,-1,-2,0.993652,-0.0849609,0.112793,12.1875,5,1.125,-0.505948,-1.3791,-0.0916994
612,-2,-1,-1,-1,0,-2,0,-1,0.987793,-0.0834961,0.117188,10.625,5.9375,0.6875,-0.500431,-1.37814,-0.0935411
612,-1,0,0,-2,1,-1,-1,-1,0.987793,-0.0834961,0.117188,10.625,5.9375,0.6875,-0.500431,-1.37814,-0.0935411
624,1,-1,0,1,-2,-1,-2,0,0.987793,-0.0834961,0.117188,10.625,5.9375,0.6875,-0.500431,-1.37814,-0.0935411
624,-1,-3,-1,-1,-1,-1,-1,-1,0.987793,-0.0834961,0.117188,10.625,5.9375,0.6875,-0.500431,-1.37814,-0.0935411
634,-1,-3,-2,0,-1,-1,-2,-2,0.973633,-0.0825195,0.119141,8.75,6.75,0.625,-0.494728,-1.37719,-0.0962977
634,-1,-2,-3,-1,-2,-1,-2,-1,0.973633,-0.0825195,0.119141,8.75,6.75,0.625,-0.494728,-1.37719,-0.0962977
649,-1,0,1,-1,-1,-2,-1,0,0.973633,-0.0825195,0.119141,8.75,6.75,0.625,-0.494728,-1.37719,-0.0962977
649,-2,-2,0,0,0,0,-2,0,0.973633,-0.0825195,0.119141,8.75,6.75,0.625,-0.494728,-1.37719,-0.0962977
651,1,0,-2,0,-1,-1,-1,-2,0.972168,-0.0751953,0.122559,6.8125,6.75,0.5625,-0.48851,-1.37637,-0.10044
651,-2,-2,-1,-3,-1,0,1,1,0.972168,-0.0751953,0.122559,6.8125,6.75,0.5625,-0.48851,-1.37637,-0.10044
672,-2,-2,-3,0,-1,-1,-1,0,0.972168,-0.0751953,0.122559,6.8125,6.75,0.5625,-0.48851,-1.37637,-0.10044
672,-2,-1,-4,0,0,-2,-1,0,0.972168,-0.0751953,0.122559,6.8125,6.75,0.5625,-0.48851,-1.37637,-0.10044
673,0,-2,-1,-1,-1,1,0,-1,0.975586,-0.0761719,0.134277,4.375,6.4375,0,-0.482091,-1.37503,-0.105327
673,-1,1,-2,0,0,-2,0,-1,0.975586,-0.0761719,0.134277,4.375,6.4375,0,-0.482091,-1.37503,-0.105327
685,-1,1,-3,-3,-1,-3,-2,0,0.975586,-0.0761719,0.134277,4.375,6.4375,0,-0.482091,-1.37503,-0.105327
685,-2,0,-2,0,0,1,-1,-1,0.975586,-0.0761719,0.134277,4.375,6.4375,0,-0.482091,-1.37503,-0.105327
700,-1,-2,-2,0,-1,0,-1,-1,0.966309,-0.081543,0.130859,1.75,6.125,-0.75,-0.476622,-1.3743,-0.110298
700,-1,-1,-1,-1,-2,-1,0,-1,0.966309,-0.081543,0.130859,1.75,6.125,-0.75,-0.476622,-1.3743,-0.110298
708,-2,-2,-2,1,-2,-1,0,-2,0.966309,-0.081543,0.130859,1.75,6.125,-0.75,-0.476622,-1.3743,-0.110298
708,1,1,-2,-1,-2,0,-1,-1,0.966309,-0.081543,0.130859,1.75,6.125,-0.75,-0.476622,-1.3743,-0.110298
710,-1,1,0,-2,-1,-2,-1,-1,0.963379,-0.0874023,0.136719,0.1875,5.5625,-1.4375,-0.471969,-1.37361,-0.11512
710,-1,-1,-2,-1,-1,-1,-1,-2,0.963379,-0.0874023,0.136719,0.1875,5.5625,-1.4375,-0.471969,-1.37361,-0.11512
731,-1,1,-1,-1,-1,-2,0,-1,0.963379,-0.0874023,0.136719,0.1875,5.5625,-1.4375,-0.471969,-1.37361,-0.11512
731,-2,-2,0,-2,-2,-1,-1,-1,0.963379,-0.0874023,0.136719,0.1875,5.5625,-1.4375,-0.471969,-1.37361,-0.11512
733,-2,-2,-1,-1,0,-2,-2,-1,0.961426,-0.0932617,0.137695,-1.0625,4.9375,-2.375,-0.467286,-1.37289,-0.12022
733,-2,-1,-2,-1,-2,-2,-1,-1,0.961426,-0.0932617,0.137695,-1.0625,4.9375,-2.375,-0.467286,-1.37289,-0.12022
745,-1,0,-1,-3,1,-2,-1,-2,0.961426,-0.0932617,0.137695,-1.0625,4.9375,-2.375,-0.467286,-1.37289,-0.12022
745,1,1,0,-1,0,-2,1,-1,0.961426,-0.0932617,0.137695,-1.0625,4.9375,-2.375,-0.467286,-1.37289,-0.12022
753,0,-1,0,-2,-3,-4,0,1,0.961426,-0.0869141,0.147461,-2.125,4,-3.1875,-0.461168,-1.37233,-0.127124
753,-2,-2,0,1,-1,-2,-2,-2,0.961426,-0.0869141,0.147461,-2.125,4,-3.1875,-0.461168,-1.37233,-0.127124
768,0,-1,-1,-1,0,0,-2,-1,0.961426,-0.0869141,0.147461,-2.125,4,-3.1875,-0.461168,-1.37233,-0.127124
768,0,0,-1,-1,-2,-2,-2,0,0.961426,-0.0869141,0.147461,-2.125,4,-3.1875,-0.461168,-1.37233,-0.127124
770,-1,-3,2,0,-1,-1,0,-1,0.963379,-0.0854492,0.143066,-2.8125,2.8125,-3.5,-0.456668,-1.37272,-0.132775
770,-1,0,-1,0,-1,-2,-1,1,0.963379,-0.0854492,0.143066,-2.8125,2.8125,-3.5,-0.456668,-1.37272,-0.132775
791,0,-1,0,-1,0,1,0,0,0.963379,-0.0854492,0.143066,-2.8125,2.8125,-3.5,-0.456668,-1.37272,-0.132775
791,-1,-3,-1,-1,0,-2,-1,-1,0.963379,-0.0854492,0.143066,-2.8125,2.8125,-3.5,-0.456668,-1.37272,-0.132775
792,-1,0,-1,-2,0,2,-1,-1,0.965332,-0.0834961,0.145996,-4.125,1.5625,-3.5625,-0.452818,-1.37368,-0.138379
792,0,-2,1,-1,-2,-1,0,-2,0.965332,-0.0834961,0.145996,-4.125,1.5625,-3.5625,-0.452818,-1.37368,-0.138379
805,0,0,-1,2,-1,0,0,-1,0.965332,-0.0834961,0.145996,-4.125,1.5625,-3.5625,-0.452818,-1.37368,-0.138379
805,0,0,-1,-3,-2,0,-2,-1,0.965332,-0.0834961,0.145996,-4.125,1.5625,-3.5625,-0.452818,-1.37368,-0.138379
814,-1,0,1,-1,-2,-1,0,0,0.974609,-0.090332,0.145508,-5.5,0.5625,-3.9375,-0.450252,-1.37473,-0.143122
814,0,-1,0,-1,0,0,-1,0,0.974609,-0.090332,0.145508,-5.5,0.5625,-3.9375,-0.450252,-1.37473,-0.143122
828,-1,-1,0,-1,0,-1,0,-2,0.974609,-0.090332,0.145508,-5.5,0.5625,-3.9375,-0.450252,-1.37473,-0.143122
828,-1,-2,2,0,0,-1,1,0,0.974609,-0.090332,0.145508,-5.5,0.5625,-3.9375,-0.450252,-1.37473,-0.143122
830,-1,-3,0,0,0,-2,-2,-1,0.978516,-0.0908203,0.141113,-7.6875,-0.0625,-4,-0.449295,-1.37555,-0.146651
830,-1,-1,-1,-1,-1,-2,-3,-1,0.978516,-0.0908203,0.141113,-7.6875,-0.0625,-4,-0.449295,-1.37555,-0.146651
851,-2,-1,1,-1,-2,-1,-2,0,0.978516,-0.0908203,0.141113,-7.6875,-0.0625,-4,-0.449295,-1.37555,-0.146651
851,-2,0,-2,0,-2,-2,-2,-2,0.978516,-0.0908203,0.141113,-7.6875,-0.0625,-4,-0.449295,-1.37555,-0.146651
853,1,1,-2,-1,0,-1,-1,0,0.98584,-0.0888672,0.149902,-8.4375,-0.6875,-3.875,-0.448714,-1.3769,-0.150451
853,0,0,-2,-2,-1,0,-1,-1,0.98584,-0.0888672,0.149902,-8.4375,-0.6875,-3.875,-0.448714,-1.3769,-0.150451
864,0,-1,-1,-3,-1,1,-1,-2,0.98584,-0.0888672,0.149902,-8.4375,-0.6875,-3.875,-0.448714,-1.3769,-0.150451
864,1,-2,1,-1,-1,-2,1,0,0.98584,-0.0888672,0.149902,-8.4375,-0.6875,-3.875,-0.448714,-1.3769,-0.150451
873,-2,-1,-1,-1,-1,0,-1,0,0.992188,-0.09375,0.155273,-9.0625,-1.75,-3.375,-0.449654,-1.37849,-0.152872
873,0,-2,-1,-1,-1,-1,1,0,0.992188,-0.09375,0.155273,-9.0625,-1.75,-3.375,-0.449654,-1.37849,-0.152872
888,-2,-1,-2,-2,-2,0,0,-2,0.992188,-0.09375,0.155273,-9.0625,-1.75,-3.375,-0.449654,-1.37849,-0.152872
888,0,1,-1,-2,-1,0,-1,-2,0.992188,-0.09375,0.155273,-9.0625,-1.75,-3.375,-0.449654,-1.37849,-0.152872
890,1,-1,0,-2,-1,-1,0,-1,0.996582,-0.0878906,0.163086,-8.6875,-2.6875,-2.75,-0.451396,-1.37992,-0.154144
890,0,1,-1,-1,1,-1,0,-2,0.996582,-0.0878906,0.163086,-8.6875,-2.6875,-2.75,-0.451396,-1.37992,-0.154144
911,0,0,-1,-2,0,-1,-1,-1,0.996582,-0.0878906,0.163086,-8.6875,-2.6875,-2.75,-0.451396,-1.37992,-0.154144
911,-1,-1,0,-1,-1,1,-2,-1,0.996582,-0.0878906,0.163086,-8.6875,-2.6875,-2.75,-0.451396,-1.37992,-0.154144
913,0,0,-1,0,0,0,-3,0,0.991211,-0.0839844,0.154785,-8.25,-3.75,-1.9375,-0.454613,-1.38139,-0.153704
913,0,0,-1,-1,-3,-1,-1,-1,0.991211,-0.0839844,0.154785,-8.25,-3.75,-1.9375,-0.454613,-1.38139,-0.153704
934,-1,-2,-1,-1,-2,-2,0,1,0.991211,-0.0839844,0.154785,-8.25,-3.75,-1.9375,-0.454613,-1.38139,-0.153704
934,-2,-2,-1,-2,-2,-2,-1,0,0.991211,-0.0839844,0.154785,-8.25,-3.75,-1.9375,-0.454613,-1.38139,-0.153704
935,-1,-1,-1,-2,-2,0,-2,-2,0.993652,-0.0913086,0.144531,-8.875,-3.9375,-1.75,-0.460937,-1.38322,-0.150474
935,-2,1,0,-1,-1,0,-1,0,0.993652,-0.0913086,0.144531,-8.875,-3.9375,-1.75,-0.460937,-1.38322,-0.150474
948,1,-1,-3,-1,-2,-2,-1,-2,0.993652,-0.0913086,0.144531,-8.875,-3.9375,-1.75,-0.460937,-1.38322,-0.150474
948,0,0,-1,0,1,-1,-1,-1,0.993652,-0.0913086,0.144531,-8.875,-3.9375,-1.75,-0.460937,-1.38322,-0.150474
950,-1,1,-1,-2,-2,0,0,-1,0.980957,-0.0844727,0.13623,-8.875,-3,-1.5,-0.465412,-1.38501,-0.14915
950,-2,-1,-3,0,-2,-2,0,-1,0.980957,-0.0844727,0.13623,-8.875,-3,-1.5,-0.465412,-1.38501,-0.14915
970,-1,-2,0,0,-1,-2,0,-1,0.980957,-0.0844727,0.13623,-8.875,-3,-1.5,-0.465412,-1.38501,-0.14915
970,-1,-1,0,1,-1,-1,0,0,0.980957,-0.0844727,0.13623,-8.875,-3,-1.5,-0.465412,-1.38501,-0.14915
973,-1,-1,-1,-1,-1,-1,0,-2,0.96875,-0.0664062,0.123535,-9,-1,-1.8125,-0.467506,-1.38685,-0.150477
973,0,-2,-1,-1,-1,-1,-1,-1,0.96875,-0.0664062,0.123535,-9,-1,-1.8125,-0.467506,-1.38685,-0.150477
993,0,-1,1,0,-1,-1,-1,0,0.96875,-0.0664062,0.123535,-9,-1,-1.8125,-0.467506,-1.38685,-0.150477
993,-1,0,0,-1,-1,-2,-1,0,0.96875,-0.0664062,0.123535,-9,-1,-1.8125,-0.467506,-1.38685,-0.150477
995,0,0,-2,-2,-1,-1,-1,0,0.970215,-0.0507812,0.115723,-10.75,1.625,-2.0625,-0.465415,-1.38759,-0.156176
995,0,0,0,-3,0,1,-1,0,0.970215,-0.0507812,0.115723,-10.75,1.625,-2.0625,-0.465415,-1.38759,-0.156176
1009,-2,-2,0,-1,-1,0,-1,-1,0.970215,-0.0507812,0.115723,-10.75,1.625,-2.0625,-0.465415,-1.38759,-0.156176
1009,-1,-1,-1,-1,-1,0,0,-1,0.970215,-0.0507812,0.115723,-10.75,1.625,-2.0625,-0.465415,-1.38759,-0.156176
1010,-1,-2,-1,0,-2,-2,-1,0,0.978027,-0.0561523,0.138672,-14.625,3.375,-2.1875,-0.462108,-1.38826,-0.164992
1010,1,-2,-1,0,-1,0,-1,0,0.978027,-0.0561523,0.138672,-14.625,3.375,-2.1875,-0.462108,-1.38826,-0.164992
1031,-1,-1,-1,-1,-2,-1,-1,0,0.978027,-0.0561523,0.138672,-14.625,3.375,-2.1875,-0.462108,-1.38826,-0.164992
1031,0,2,-3,-2,0,-1,-1,-1,0.978027,-0.0561523,0.138672,-14.625,3.375,-2.1875,-0.462108,-1.38826,-0.164992
1032,0,-2,-2,0,-1,-2,-2,-1,0.97168,-0.0649414,0.152832,-18.5625,4.25,-2.375,-0.459963,-1.38725,-0.173521
1032,-1,-2,-1,-1,-1,-1,-1,-2,0.97168,-0.0649414,0.152832,-18.5625,4.25,-2.375,-0.459963,-1.38725,-0.173521
1054,-1,-1,-2,0,-1,-1,-2,0,0.97168,-0.0649414,0.152832,-18.5625,4.25,-2.375,-0.459963,-1.38725,-0.173521
1054,-3,-2,-2,-1,-2,-2,0,-2,0.97168,-0.0649414,0.152832,-18.5625,4.25,-2.375,-0.459963,-1.38725,-0.173521
1055,-2,-1,-1,-2,-2,-2,0,-2,0.96875,-0.0644531,0.159668,-20.875,4.125,-2.5,-0.457232,-1.38617,-0.183371
1055,0,-1,-1,0,0,-1,-1,-3,0.96875,-0.0644531,0.159668,-20.875,4.125,-2.5,-0.457232,-1.38617,-0.183371
1067,-1,0,-2,-2,0,0,-2,-1,0.96875,-0.0644531,0.159668,-20.875,4.125,-2.5,-0.457232,-1.38617,-0.183371
1067,-1,-2,-3,-2,-2,0,-1,-1,0.96875,-0.0644531,0.159668,-20.875,4.125,-2.5,-0.457232,-1.38617,-0.183371
1076,-1,0,0,-2,-1,-1,0,-1,0.954102,-0.0576172,0.169434,-23,3.0625,-2.5,-0.455766,-1.38578,-0.193078
1076,-1,-1,0,-1,0,-1,-2,0,0.954102,-0.0576172,0.169434,-23,3.0625,-2.5,-0.455766,-1.38578,-0.193078
1090,-2,0,0,-1,0,-1,1,-1,0.954102,-0.0576172,0.169434,-23,3.0625,-2.5,-0.455766,-1.38578,-0.193078
1090,-1,0,-1,0,-2,-1,-2,-1,0.954102,-0.0576172,0.169434,-23,3.0625,-2.5,-0.455766,-1.38578,-0.193078
1098,-1,0,-2,-1,0,0,-1,-1,0.941406,-0.059082,0.164062,-23.875,1.75,-2.8125,-0.455579,-1.38562,-0.201598
1098,-1,0,-2,-1,-2,-1,-1,0,0.941406,-0.059082,0.164062,-23.875,1.75,-2.8125,-0.455579,-1.38562,-0.201598
1114,0,0,-1,-1,-2,-2,-1,-1,0.941406,-0.059082,0.164062,-23.875,1.75,-2.8125,-0.455579,-1.38562,-0.201598
1114,-1,-2,-1,-2,-1,1,-2,1,0.941406,-0.059082,0.164062,-23.875,1.75,-2.8125,-0.455579,-1.38562,-0.201598
1115,0,-1,-2,-2,-1,-1,0,0,0.924316,-0.0678711,0.165039,-21.75,0.25,-3.5,-0.455068,-1.38621,-0.209873
1115,-2,1,0,-1,-2,-1,0,-1,0.924316,-0.0678711,0.165039,-21.75,0.25,-3.5,-0.455068,-1.38621,-0.209873
1137,-1,0,-1,-1,-1,-1,-1,0,0.924316,-0.0678711,0.165039,-21.75,0.25,-3.5,-0.455068,-1.38621,-0.209873
1137,0,-1,0,0,-2,-1,-1,-2,0.924316,-0.0678711,0.165039,-21.75,0.25,-3.5,-0.455068,-1.38621,-0.209873
1138,0,-1,0,0,-1,-1,-2,-1,0.916504,-0.0776367,0.172852,-18.375,-1.3125,-4.375,-0.45438,-1.38672,-0.217101
1138,1,-2,1,-1,-1,-3,-1,-2,0.916504,-0.0776367,0.172852,-18.375,-1.3125,-4.375,-0.45438,-1.38672,-0.217101
1150,-1,1,0,-1,0,-1,-1,-3,0.916504,-0.0776367,0.172852,-18.375,-1.3125,-4.375,-0.45438,-1.38672,-0.217101
1150,-2,-1,-1,-1,-1,1,1,-1,0.916504,-0.0776367,0.172852,-18.375,-1.3125,-4.375,-0.45438,-1.38672,-0.217101
1158,0,0,-1,0,0,-1,0,1,0.931152,-0.0742188,0.183105,-14.5,-3.625,-5.1875,-0.452101,-1.3881,-0.224516
1158,-2,-2,-1,-2,1,-2,-1,0,0.931152,-0.0742188,0.183105,-14.5,-3.625,-5.1875,-0.452101,-1.3881,-0.224516
1174,-1,0,-1,1,0,0,-1,0,0.931152,-0.0742188,0.183105,-14.5,-3.625,-5.1875,-0.452101,-1.3881,-0.224516
1174,0,-1,0,-1,0,-1,-1,-1,0.931152,-0.0742188,0.183105,-14.5,-3.625,-5.1875,-0.452101,-1.3881,-0.224516
1175,0,0,-3,0,-1,-2,-1,-1,0.949219,-0.0771484,0.189941,-12.375,-6.1875,-6,-0.449379,-1.39019,-0.231662
1175,0,0,-2,0,-2,-1,-2,-2,0.949219,-0.0771484,0.189941,-12.375,-6.1875,-6,-0.449379,-1.39019,-0.231662
1196,0,-2,0,-3,-2,-1,-1,-1,0.949219,-0.0771484,0.189941,-12.375,-6.1875,-6,-0.449379,-1.39019,-0.231662
1196,-2,0,-1,0,0,-2,-1,0,0.949219,-0.0771484,0.189941,-12.375,-6.1875,-6,-0.449379,-1.39019,-0.231662
1197,-2,-2,0,-3,-1,-1,-2,-1,0.969238,-0.0634766,0.195801,-11.6875,-9.0625,-5.875,-0.447183,-1.39286,-0.237641
1197,-2,-2,-1,-1,-1,-1,0,1,0.969238,-0.0634766,0.195801,-11.6875,-9.0625,-5.875,-0.447183,-1.39286,-0.237641
1210,-1,-2,-3,0,1,-2,1,-2,0.969238,-0.0634766,0.195801,-11.6875,-9.0625,-5.875,-0.447183,-1.39286,-0.237641
1210,0,-4,0,-2,-1,1,0,-1,0.969238,-0.0634766,0.195801,-11.6875,-9.0625,-5.875,-0.447183,-1.39286,-0.237641
1218,1,-3,0,-1,0,1,3,-3,0.960449,-0.0649414,0.192871,-12.1875,-11.875,-5.1875,-0.448394,-1.39633,-0.240368
1218,-1,-1,-2,0,-2,-3,-4,-1,0.960449,-0.0649414,0.192871,-12.1875,-11.875,-5.1875,-0.448394,-1.39633,-0.240368
1234,0,1,0,0,1,0,-1,-2,0.960449,-0.0649414,0.192871,-12.1875,-11.875,-5.1875,-0.448394,-1.39633,-0.240368
1234,0,-1,-1,-1,-2,0,-1,-2,0.960449,-0.0649414,0.192871,-12.1875,-11.875,-5.1875,-0.448394,-1.39633,-0.240368
1236,-1,1,-3,-1,0,0,1,0,0.95459,-0.0771484,0.193359,-11.375,-14.375,-4.5625,-0.454814,-1.40132,-0.238499
1236,0,0,-2,-1,-1,-4,-3,-1,0.95459,-0.0771484,0.193359,-11.375,-14.375,-4.5625,-0.454814,-1.40132,-0.238499
1256,-1,-2,0,0,-2,0,1,1,0.95459,-0.0771484,0.193359,-11.375,-14.375,-4.5625,-0.454814,-1.40132,-0.238499
1256,-2,1,0,-2,0,-5,-3,-1,0.95459,-0.0771484,0.193359,-11.375,-14.375,-4.5625,-0.454814,-1.40132,-0.238499
1258,-1,-1,-1,0,-1,2,-1,-1,0.952148,-0.0932617,0.195801,-8.5,-16.125,-4.6875,-0.463119,-1.40526,-0.232724
1258,-1,-1,0,-1,-2,0,1,0,0.952148,-0.0932617,0.195801,-8.5,-16.125,-4.6875,-0.463119,-1.40526,-0.232724
1270,0,1,-3,0,-2,-1,-5,0,0.952148,-0.0932617,0.195801,-8.5,-16.125,-4.6875,-0.463119,-1.40526,-0.232724
1270,-1,-1,-1,-1,-3,-1,-1,-1,0.952148,-0.0932617,0.195801,-8.5,-16.125,-4.6875,-0.463119,-1.40526,-0.232724
1279,-1,1,0,0,-3,-3,-4,0,0.958984,-0.0942383,0.188477,-4.4375,-17,-5.5,-0.469835,-1.40971,-0.22724
1279,-2,0,-1,-1,-3,0,1,0,0.958984,-0.0942383,0.188477,-4.4375,-17,-5.5,-0.469835,-1.40971,-0.22724
1301,-1,-3,-1,-1,-1,-1,-1,-1,0.958984,-0.0942383,0.188477,-4.4375,-17,-5.5,-0.469835,-1.40971,-0.22724
1301,0,-3,-1,0,-1,-1,0,-1,0.958984,-0.0942383,0.188477,-4.4375,-17,-5.5,-0.469835,-1.40971,-0.22724
1303,-1,0,-1,0,0,-2,-3,0,0.971191,-0.0820312,0.169434,-2.9375,-16.5625,-6.1875,-0.474469,-1.41507,-0.223636
1303,1,-1,-1,-2,-1,1,-1,-1,0.971191,-0.0820312,0.169434,-2.9375,-16.5625,-6.1875,-0.474469,-1.41507,-0.223636
1316,-2,-1,-2,-1,-1,0,0,0,0.971191,-0.0820312,0.169434,-2.9375,-16.5625,-6.1875,-0.474469,-1.41507,-0.223636
1316,-1,1,-2,0,-1,-1,0,-2,0.971191,-0.0820312,0.169434,-2.9375,-16.5625,-6.1875,-0.474469,-1.41507,-0.223636
1322,-2,0,-2,-3,-1,-4,0,0,0.974121,-0.0654297,0.160156,-4.125,-14.8125,-6.5625,-0.475846,-1.42011,-0.223641
1322,-1,-1,-2,-1,0,1,0,-2,0.974121,-0.0654297,0.160156,-4.125,-14.8125,-6.5625,-0.475846,-1.42011,-0.223641
1329,0,-4,-2,0,0,0,0,-1,0.974121,-0.0654297,0.160156,-4.125,-14.8125,-6.5625,-0.475846,-1.42011,-0.223641
1329,0,0,-2,-2,-1,-2,-2,1,0.974121,-0.0654297,0.160156,-4.125,-14.8125,-6.5625,-0.475846,-1.42011,-0.223641
1338,-1,0,-1,0,-1,0,0,0,0.980957,-0.0517578,0.151855,-8.25,-12.375,-6.375,-0.474869,-1.42513,-0.227866
1338,1,-1,1,-1,-1,-1,0,-1,0.980957,-0.0517578,0.151855,-8.25,-12.375,-6.375,-0.474869,-1.42513,-0.227866
1354,-1,0,-1,-1,0,-2,-1,-1,0.980957,-0.0517578,0.151855,-8.25,-12.375,-6.375,-0.474869,-1.42513,-0.227866
1354,-1,1,-2,-1,-2,-1,1,-2,0.980957,-0.0517578,0.151855,-8.25,-12.375,-6.375,-0.474869,-1.42513,-0.227866
1355,-1,-2,-2,-1,-1,1,2,0,0.975098,-0.0566406,0.152832,-13.375,-9.1875,-5.5625,-0.474438,-1.42828,-0.232891
1355,0,0,-1,-1,-1,0,1,-2,0.975098,-0.0566406,0.152832,-13.375,-9.1875,-5.5625,-0.474438,-1.42828,-0.232891
1377,-1,-3,0,-2,-3,-2,0,-1,0.975098,-0.0566406,0.152832,-13.375,-9.1875,-5.5625,-0.474438,-1.42828,-0.232891
1377,-1,1,-1,-1,-2,0,0,1,0.975098,-0.0566406,0.152832,-13.375,-9.1875,-5.5625,-0.474438,-1.42828,-0.232891
1378,0,1,-2,-1,-3,-2,-1,-3,0.974121,-0.059082,0.148926,-16.0625,-5.5,-4.5,-0.473739,-1.42974,-0.23905
1378,-1,1,-1,-1,-2,-1,0,-1,0.974121,-0.059082,0.148926,-16.0625,-5.5,-4.5,-0.473739,-1.42974,-0.23905
1399,-1,-2,-1,-2,-1,-1,-2,-1,0.974121,-0.059082,0.148926,-16.0625,-5.5,-4.5,-0.473739,-1.42974,-0.23905
1399,-2,0,0,-1,0,-1,0,-1,0.974121,-0.059082,0.148926,-16.0625,-5.5,-4.5,-0.473739,-1.42974,-0.23905
1399,-2,1,1,0,-1,-1,-2,-1,0.973633,-0.0732422,0.151367,-16.25,-1.875,-3.5625,-0.472676,-1.43042,-0.245904
1399,0,-1,0,0,0,0,-3,-1,0.973633,-0.0732422,0.151367,-16.25,-1.875,-3.5625,-0.472676,-1.43042,-0.245904
1413,-1,1,0,0,-3,-2,-3,-2,0.973633,-0.0732422,0.151367,-16.25,-1.875,-3.5625,-0.472676,-1.43042,-0.245904
1413,0,-1,-2,-1,-1,-2,1,-1,0.973633,-0.0732422,0.151367,-16.25,-1.875,-3.5625,-0.472676,-1.43042,-0.245904
1415,0,-2,-1,-1,-1,-1,-1,-1,0.97168,-0.081543,0.149902,-14.6875,1.375,-2.8125,-0.470894,-1.42951,-0.252817
1415,-2,-2,-2,1,1,-1,-1,0,0.97168,-0.081543,0.149902,-14.6875,1.375,-2.8125,-0.470894,-1.42951,-0.252817
1436,0,-1,-2,0,0,0,1,0,0.97168,-0.081543,0.149902,-14.6875,1.375,-2.8125,-0.470894,-1.42951,-0.252817
1436,1,-4,-3,-1,-1,1,-1,-1,0.97168,-0.081543,0.149902,-14.6875,1.375,-2.8125,-0.470894,-1.42951,-0.252817
1438,1,-2,0,-1,-2,-1,0,-3,0.967285,-0.0864258,0.164062,-12.4375,4.1875,-2,-0.467149,-1.4272,-0.260884
1438,-1,-2,0,0,-1,0,0,-1,0.967285,-0.0864258,0.164062,-12.4375,4.1875,-2,-0.467149,-1.4272,-0.260884
1459,-2,-1,0,-1,0,-2,0,1,0.967285,-0.0864258,0.164062,-12.4375,4.1875,-2,-0.467149,-1.4272,-0.260884
1459,0,0,1,-1,2,-1,-2,-1,0.967285,-0.0864258,0.164062,-12.4375,4.1875,-2,-0.467149,-1.4272,-0.260884
1460,-1,-2,-1,-1,0,-1,-1,-1,0.96875,-0.0844727,0.174805,-10.375,6,-1.125,-0.461521,-1.42406,-0.270011
1460,0,-1,-1,0,0,0,0,0,0.96875,-0.0844727,0.174805,-10.375,6,-1.125,-0.461521,-1.42406,-0.270011
1474,-1,1,-1,-2,-1,1,-1,-2,0.96875,-0.0844727,0.174805,-10.375,6,-1.125,-0.461521,-1.42406,-0.270011
1474,0,0,-2,-1,-1,-1,-1,-1,0.96875,-0.0844727,0.174805,-10.375,6,-1.125,-0.461521,-1.42406,-0.270011
1475,-2,0,-2,-1,-1,-3,-2,-1,0.96875,-0.0893555,0.176758,-8.625,6.6875,-0.125,-0.456829,-1.42056,-0.277789
1475,-1,-1,-3,-2,-1,-2,-1,-1,0.96875,-0.0893555,0.176758,-8.625,6.6875,-0.125,-0.456829,-1.42056,-0.277789
1496,-3,-2,0,-1,-1,0,0,-1,0.96875,-0.0893555,0.176758,-8.625,6.6875,-0.125,-0.456829,-1.42056,-0.277789
1496,0,-2,-2,-3,0,0,0,0,0.96875,-0.0893555,0.176758,-8.625,6.6875,-0.125,-0.456829,-1.42056,-0.277789
1498,-2,-1,-1,-1,-2,-1,-1,0,0.966309,-0.0893555,0.1875,-6.8125,6.8125,0.75,-0.454408,-1.41742,-0.283058
1498,0,0,0,0,-1,-3,-1,0,0.966309,-0.0893555,0.1875,-6.8125,6.8125,0.75,-0.454408,-1.41742,-0.283058
1519,0,0,-1,0,-3,-1,0,-1,0.966309,-0.0893555,0.1875,-6.8125,6.8125,0.75,-0.454408,-1.41742,-0.283058
1519,-1,-1,-1,1,0,-1,0,-2,0.966309,-0.0893555,0.1875,-6.8125,6.8125,0.75,-0.454408,-1.41742,-0.283058
1520,-1,1,0,-1,1,0,-1,0,0.962891,-0.0961914,0.186523,-4.625,6.25,1.5,-0.453161,-1.41363,-0.28579
1520,-1,-1,-2,-1,-1,-2,0,-2,0.962891,-0.0961914,0.186523,-4.625,6.25,1.5,-0.453161,-1.41363,-0.28579
1533,-1,1,-1,-2,0,0,-1,1,0.962891,-0.0961914,0.186523,-4.625,6.25,1.5,-0.453161,-1.41363,-0.28579
1533,-2,-2,-1,0,-1,0,-1,0,0.962891,-0.0961914,0.186523,-4.625,6.25,1.5,-0.453161,-1.41363,-0.28579
1535,-1,-2,0,-1,0,-2,0,-1,0.960938,-0.0991211,0.18457,-2.625,5.6875,1.8125,-0.453451,-1.41016,-0.286384
1535,0,-2,0,0,-1,-1,0,-2,0.960938,-0.0991211,0.18457,-2.625,5.6875,1.8125,-0.453451,-1.41016,-0.286384
1556,-1,-1,-1,-2,-2,-2,-1,-1,0.960938,-0.0991211,0.18457,-2.625,5.6875,1.8125,-0.453451,-1.41016,-0.286384
1556,-1,1,-2,-3,-1,-1,-2,-2,0.960938,-0.0991211,0.18457,-2.625,5.6875,1.8125,-0.453451,-1.41016,-0.286384
1558,-2,-1,-2,-2,-1,0,0,0,0.964844,-0.0952148,0.181152,-1.4375,5.375,2.25,-0.454172,-1.40693,-0.286009
1558,0,0,-1,-1,-1,-1,0,0,0.964844,-0.0952148,0.181152,-1.4375,5.375,2.25,-0.454172,-1.40693,-0.286009
1579,-2,-1,-3,2,1,-1,-3,0,0.964844,-0.0952148,0.181152,-1.4375,5.375,2.25,-0.454172,-1.40693,-0.286009
1579,-1,-2,0,1,-1,-2,-1,-1,0.964844,-0.0952148,0.181152,-1.4375,5.375,2.25,-0.454172,-1.40693,-0.286009
1581,-1,0,-1,-2,-2,-2,-1,-3,0.96582,-0.0898438,0.174316,-1.25,5.25,2.5625,-0.45511,-1.40425,-0.285729
1581,0,0,-1,-2,-3,-2,-2,1,0.96582,-0.0898438,0.174316,-1.25,5.25,2.5625,-0.45511,-1.40425,-0.285729
1601,1,-1,0,-1,-3,-1,-2,-2,0.96582,-0.0898438,0.174316,-1.25,5.25,2.5625,-0.45511,-1.40425,-0.285729
1601,-1,0,-2,-1,-1,-1,-1,0,0.96582,-0.0898438,0.174316,-1.25,5.25,2.5625,-0.45511,-1.40425,-0.285729
1603,0,-1,-2,-2,0,0,-1,0,0.968262,-0.0864258,0.17041,-1.375,5.4375,3.0625,-0.456935,-1.40124,-0.284173
1603,-1,-3,-1,-2,-1,1,0,-1,0.968262,-0.0864258,0.17041,-1.375,5.4375,3.0625,-0.456935,-1.40124,-0.284173
1616,0,-1,-2,0,-1,-1,0,-1,0.968262,-0.0864258,0.17041,-1.375,5.4375,3.0625,-0.456935,-1.40124,-0.284173
1616,-1,0,1,-2,-2,-2,-1,-1,0.968262,-0.0864258,0.17041,-1.375,5.4375,3.0625,-0.456935,-1.40124,-0.284173
1618,-1,1,0,0,-1,-1,1,-1,0.967285,-0.0849609,0.167969,-1.3125,5.75,3.5,-0.45867,-1.39818,-0.282794
1618,0,1,1,-1,-1,-1,-1,-1,0.967285,-0.0849609,0.167969,-1.3125,5.75,3.5,-0.45867,-1.39818,-0.282794
1639,-2,-1,0,-1,0,-1,0,-2,0.967285,-0.0849609,0.167969,-1.3125,5.75,3.5,-0.45867,-1.39818,-0.282794
1639,-2,0,-1,0,-2,-1,-2,-3,0.967285,-0.0849609,0.167969,-1.3125,5.75,3.5,-0.45867,-1.39818,-0.282794
1640,0,-2,-2,-2,-2,1,-3,0,0.969727,-0.0927734,0.169434,-0.9375,6.25,3.9375,-0.46144,-1.39561,-0.280652
1640,-1,-1,-2,-1,-1,-1,0,0,0.969727,-0.0927734,0.169434,-0.9375,6.25,3.9375,-0.46144,-1.39561,-0.280652
1653,0,0,-2,-3,-2,-1,-1,0,0.969727,-0.0927734,0.169434,-0.9375,6.25,3.9375,-0.46144,-1.39561,-0.280652
1653,0,0,-1,-1,0,-1,1,-1,0.969727,-0.0927734,0.169434,-0.9375,6.25,3.9375,-0.46144,-1.39561,-0.280652
1660,0,-1,0,-2,-1,-1,-1,-2,0.970215,-0.09375,0.160156,-0.625,6.8125,4.25,-0.465094,-1.39196,-0.276844
1660,0,0,-1,-2,-2,0,-1,-1,0.970215,-0.09375,0.160156,-0.625,6.8125,4.25,-0.465094,-1.39196,-0.276844
1676,-1,-3,-1,-1,-1,-2,0,1,0.970215,-0.09375,0.160156,-0.625,6.8125,4.25,-0.465094,-1.39196,-0.276844
1676,1,-2,-5,0,0,-1,-1,-1,0.970215,-0.09375,0.160156,-0.625,6.8125,4.25,-0.465094,-1.39196,-0.276844
1678,-1,0,-2,0,-1,-1,0,1,0.975098,-0.0927734,0.158203,-0.125,7.1875,4.5625,-0.467817,-1.3889,-0.274161
1678,-1,-1,-1,0,-2,0,-2,-2,0.975098,-0.0927734,0.158203,-0.125,7.1875,4.5625,-0.467817,-1.3889,-0.274161
1699,0,0,0,-2,-1,-2,0,0,0.975098,-0.0927734,0.158203,-0.125,7.1875,4.5625,-0.467817,-1.3889,-0.274161
1699,-2,-2,0,-1,-1,-1,-3,-2,0.975098,-0.0927734,0.158203,-0.125,7.1875,4.5625,-0.467817,-1.3889,-0.274161
1700,2,-1,0,0,0,0,-1,-1,0.976074,-0.0874023,0.15625,-0.25,7.875,4.4375,-0.470112,-1.38604,-0.272126
1700,-2,-1,-1,-1,-1,-1,-1,-2,0.976074,-0.0874023,0.15625,-0.25,7.875,4.4375,-0.470112,-1.38604,-0.272126
1713,0,0,-1,0,0,-2,-1,-2,0.976074,-0.0874023,0.15625,-0.25,7.875,4.4375,-0.470112,-1.38604,-0.272126
1713,-2,1,0,-1,-1,-2,-2,0,0.976074,-0.0874023,0.15625,-0.25,7.875,4.4375,-0.470112,-1.38604,-0.272126
1720,-2,-3,0,-2,-1,-2,-1,-1,0.976562,-0.0820312,0.160645,-0.625,8.25,4.75,-0.470874,-1.38291,-0.271581
1720,-1,-2,-1,0,-1,-1,-1,0,0.976562,-0.0820312,0.160645,-0.625,8.25,4.75,-0.470874,-1.38291,-0.271581
1736,-1,1,-1,-2,-2,-1,-2,-1,0.976562,-0.0820312,0.160645,-0.625,8.25,4.75,-0.470874,-1.38291,-0.271581
1736,-1,-1,0,-2,-1,0,1,-1,0.976562,-0.0820312,0.160645,-0.625,8.25,4.75,-0.470874,-1.38291,-0.271581
1738,0,-1,-1,0,-3,0,-1,-2,0.976562,-0.0898438,0.161621,-0.8125,8.5,4.875,-0.473048,-1.37987,-0.269915
1738,-1,-1,-1,-2,0,0,-3,-1,0.976562,-0.0898438,0.161621,-0.8125,8.5,4.875,-0.473048,-1.37987,-0.269915
1758,-1,-2,-1,0,-2,-1,-2,-1,0.976562,-0.0898438,0.161621,-0.8125,8.5,4.875,-0.473048,-1.37987,-0.269915
1758,-1,-2,-2,0,-1,-2,-1,-2,0.976562,-0.0898438,0.161621,-0.8125,8.5,4.875,-0.473048,-1.37987,-0.269915
1760,-1,-5,0,0,-2,-1,0,-2,0.976074,-0.090332,0.155273,-0.9375,8.8125,4.6875,-0.475019,-1.37647,-0.268166
1760,-1,0,-1,1,-1,-1,0,1,0.976074,-0.090332,0.155273,-0.9375,8.8125,4.6875,-0.475019,-1.37647,-0.268166
1773,-1,0,1,1,-2,-1,-1,-1,0.976074,-0.090332,0.155273,-0.9375,8.8125,4.6875,-0.475019,-1.37647,-0.268166
1773,-1,-2,-3,-2,0,-1,-2,0,0.976074,-0.090332,0.155273,-0.9375,8.8125,4.6875,-0.475019,-1.37647,-0.268166
1780,0,0,-2,-1,-1,-1,-1,-1,0.974121,-0.0898438,0.154297,-1.375,9,4.625,-0.476149,-1.37307,-0.267372
1780,-2,0,0,-2,0,-1,0,-2,0.974121,-0.0898438,0.154297,-1.375,9,4.625,-0.476149,-1.37307,-0.267372
1796,0,0,-3,0,1,0,-2,-1,0.974121,-0.0898438,0.154297,-1.375,9,4.625,-0.476149,-1.37307,-0.267372
1796,-2,0,-1,-1,-3,-1,1,-2,0.974121,-0.0898438,0.154297,-1.375,9,4.625,-0.476149,-1.37307,-0.267372
1798,-2,-3,-2,-1,-2,-1,-2,0,0.978516,-0.081543,0.17041,-1.625,8.8125,4.75,-0.476546,-1.37006,-0.26762
1798,-1,-2,-2,-3,-1,-3,-3,-1,0.978516,-0.081543,0.17041,-1.625,8.8125,4.75,-0.476546,-1.37006,-0.26762
1819,0,-2,-1,-1,-2,-1,-1,0,0.978516,-0.081543,0.17041,-1.625,8.8125,4.75,-0.476546,-1.37006,-0.26762
1819,0,-2,-2,0,-1,0,-1,0,0.978516,-0.081543,0.17041,-1.625,8.8125,4.75,-0.476546,-1.37006,-0.26762
1820,-1,-1,-3,-2,-2,0,-1,-2,0.98291,-0.0874023,0.164062,-1.8125,8.25,4.8125,-0.478241,-1.36696,-0.266437
1820,0,-2,0,-1,-2,-1,1,1,0.98291,-0.0874023,0.164062,-1.8125,8.25,4.8125,-0.478241,-1.36696,-0.266437
1833,-1,-2,-1,-1,0,-2,1,-1,0.98291,-0.0874023,0.164062,-1.8125,8.25,4.8125,-0.478241,-1.36696,-0.266437
1833,0,-2,0,0,-2,0,-1,-1,0.98291,-0.0874023,0.164062,-1.8125,8.25,4.8125,-0.478241,-1.36696,-0.266437
1839,-1,0,-1,0,2,-1,-2,0,0.978516,-0.0957031,0.17334,-1.3125,6.875,4.9375,-0.481291,-1.36422,-0.263895
1839,-2,-1,-1,0,0,-2,-3,-1,0.978516,-0.0957031,0.17334,-1.3125,6.875,4.9375,-0.481291,-1.36422,-0.263895
1857,0,-2,-1,0,-2,-2,0,-1,0.978516,-0.0957031,0.17334,-1.3125,6.875,4.9375,-0.481291,-1.36422,-0.263895
1857,-1,-1,0,0,-2,0,-2,-2,0.978516,-0.0957031,0.17334,-1.3125,6.875,4.9375,-0.481291,-1.36422,-0.263895
1858,-1,0,0,-2,-3,-3,0,-1,0.974121,-0.090332,0.177734,-0.125,5.25,5.0625,-0.484233,-1.36198,-0.26092
1858,0,0,-1,-3,0,0,0,-1,0.974121,-0.090332,0.177734,-0.125,5.25,5.0625,-0.484233,-1.36198,-0.26092
1879,-1,-1,-1,-1,0,0,-1,-1,0.974121,-0.090332,0.177734,-0.125,5.25,5.0625,-0.484233,-1.36198,-0.26092
1879,-1,0,-1,-3,-1,-2,0,0,0.974121,-0.090332,0.177734,-0.125,5.25,5.0625,-0.484233,-1.36198,-0.26092
1880,0,-1,0,0,0,0,1,-2,0.973633,-0.0883789,0.177246,-0.0625,3.625,4.8125,-0.487851,-1.36023,-0.25722
1880,1,0,0,1,2,-2,-1,0,0.973633,-0.0883789,0.177246,-0.0625,3.625,4.8125,-0.487851,-1.36023,-0.25722
1893,-2,0,-1,0,0,1,-2,-1,0.973633,-0.0883789,0.177246,-0.0625,3.625,4.8125,-0.487851,-1.36023,-0.25722
1893,-1,0,0,0,1,-1,1,1,0.973633,-0.0883789,0.177246,-0.0625,3.625,4.8125,-0.487851,-1.36023,-0.25722
1900,-2,2,-2,-2,-1,-1,0,-2,0.971191,-0.0947266,0.178223,0.125,1.625,4.125,-0.492564,-1.35928,-0.252301
1900,-1,0,-1,-1,-1,0,1,-2,0.971191,-0.0947266,0.178223,0.125,1.625,4.125,-0.492564,-1.35928,-0.252301
1916,0,-3,0,-3,0,-1,-1,0,0.971191,-0.0947266,0.178223,0.125,1.625,4.125,-0.492564,-1.35928,-0.252301
1916,-1,-2,-1,-1,-1,-1,-3,-1,0.971191,-0.0947266,0.178223,0.125,1.625,4.125,-0.492564,-1.35928,-0.252301
1917,-2,0,-3,-1,-1,-1,-2,1,0.964844,-0.0869141,0.18457,1.75,-0.25,3.6875,-0.496105,-1.35897,-0.248178
1917,-1,-2,-1,0,-2,-1,-2,-3,0.964844,-0.0869141,0.18457,1.75,-0.25,3.6875,-0.496105,-1.35897,-0.248178
1939,-2,0,-2,-2,-2,-1,-2,-1,0.964844,-0.0869141,0.18457,1.75,-0.25,3.6875,-0.496105,-1.35897,-0.248178
1939,0,-2,-2,-1,-1,-1,-2,-1,0.964844,-0.0869141,0.18457,1.75,-0.25,3.6875,-0.496105,-1.35897,-0.248178
1940,0,-2,-1,-2,-1,-1,-1,-1,0.963379,-0.0800781,0.183594,3.125,-2,3.4375,-0.499025,-1.35873,-0.243597
1940,-1,0,-3,-1,0,2,0,0,0.963379,-0.0800781,0.183594,3.125,-2,3.4375,-0.499025,-1.35873,-0.243597
1953,-2,0,-3,-1,-1,-1,-2,0,0.963379,-0.0800781,0.183594,3.125,-2,3.4375,-0.499025,-1.35873,-0.243597
1953,0,-2,-2,-1,-2,-1,-2,-1,0.963379,-0.0800781,0.183594,3.125,-2,3.4375,-0.499025,-1.35873,-0.243597
1962,-2,-2,0,0,-1,1,0,-2,0.951172,-0.0703125,0.178223,2.375,-3.5,3.625,-0.503481,-1.35941,-0.237995
1962,-1,-3,2,1,-2,-1,-2,0,0.951172,-0.0703125,0.178223,2.375,-3.5,3.625,-0.503481,-1.35941,-0.237995
1977,0,-2,1,-1,0,0,0,0,0.951172,-0.0703125,0.178223,2.375,-3.5,3.625,-0.503481,-1.35941,-0.237995
1977,1,-1,-1,0,0,0,-2,1,0.951172,-0.0703125,0.178223,2.375,-3.5,3.625,-0.503481,-1.35941,-0.237995
1978,-2,-1,-2,-2,-1,-1,-3,1,0.943359,-0.0776367,0.180176,2.625,-4.5,3.6875,-0.508914,-1.36055,-0.231541
1978,-1,-2,-1,-2,-1,-1,0,-3,0.943359,-0.0776367,0.180176,2.625,-4.5,3.6875,-0.508914,-1.36055,-0.231541
1999,0,0,-1,-2,-1,-2,0,-1,0.943359,-0.0776367,0.180176,2.625,-4.5,3.6875,-0.508914,-1.36055,-0.231541
1999,-1,0,-1,0,0,0,1,-2,0.943359,-0.0776367,0.180176,2.625,-4.5,3.6875,-0.508914,-1.36055,-0.231541
2000,-1,-1,-1,-2,-1,-2,-1,0,0.95166,-0.0908203,0.186035,3.875,-5.625,3.4375,-0.515585,-1.36175,-0.223458
2000,-2,0,-1,0,-2,-1,-1,0,0.95166,-0.0908203,0.186035,3.875,-5.625,3.4375,-0.515585,-1.36175,-0.223458
2012,-1,-2,-2,1,-1,-2,-2,-2,0.95166,-0.0908203,0.186035,3.875,-5.625,3.4375,-0.515585,-1.36175,-0.223458
2012,0,-2,-1,-1,-1,0,-2,1,0.95166,-0.0908203,0.186035,3.875,-5.625,3.4375,-0.515585,-1.36175,-0.223458
2021,0,-3,-2,-1,-1,-1,-1,-2,0.952637,-0.0917969,0.188965,6.75,-6.5,3,-0.520786,-1.36245,-0.215239
2021,-2,1,-1,-3,-1,1,-1,0,0.952637,-0.0917969,0.188965,6.75,-6.5,3,-0.520786,-1.36245,-0.215239
2036,1,1,-1,0,-1,0,1,-1,0.952637,-0.0917969,0.188965,6.75,-6.5,3,-0.520786,-1.36245,-0.215239
2036,-2,-1,0,-3,0,-1,0,-1,0.952637,-0.0917969,0.188965,6.75,-6.5,3,-0.520786,-1.36245,-0.215239
2038,0,-1,0,-1,1,-3,-2,0,0.961914,-0.0913086,0.185547,9.8125,-7.375,2.125,-0.525039,-1.36449,-0.207479
2038,-1,-1,0,-2,-1,0,-1,-1,0.961914,-0.0913086,0.185547,9.8125,-7.375,2.125,-0.525039,-1.36449,-0.207479
2058,0,-2,-1,-1,-1,2,-1,-2,0.961914,-0.0913086,0.185547,9.8125,-7.375,2.125,-0.525039,-1.36449,-0.207479
2058,-2,1,0,1,-3,-1,1,-2,0.961914,-0.0913086,0.185547,9.8125,-7.375,2.125,-0.525039,-1.36449,-0.207479
2060,-1,-1,0,0,0,0,1,-1,0.96582,-0.0810547,0.183594,10.625,-7.6875,1.5625,-0.527598,-1.36638,-0.200991
2060,-1,-3,-1,0,1,-1,-2,-1,0.96582,-0.0810547,0.183594,10.625,-7.6875,1.5625,-0.527598,-1.36638,-0.200991
2073,-2,-2,0,-2,0,-2,1,0,0.96582,-0.0810547,0.183594,10.625,-7.6875,1.5625,-0.527598,-1.36638,-0.200991
2073,0,0,1,-1,-1,-1,-1,-2,0.96582,-0.0810547,0.183594,10.625,-7.6875,1.5625,-0.527598,-1.36638,-0.200991
2089,1,0,0,-1,0,0,-1,0,0.975586,-0.0795898,0.181641,9.8125,-7.625,1,-0.529442,-1.36887,-0.195739
2089,-1,0,-1,-1,-1,-2,-2,0,0.975586,-0.0795898,0.181641,9.8125,-7.625,1,-0.529442,-1.36887,-0.195739
2096,0,1,-2,-1,0,-2,-1,-2,0.975586,-0.0795898,0.181641,9.8125,-7.625,1,-0.529442,-1.36887,-0.195739
2096,-1,-2,-1,-1,0,-2,-1,-1,0.975586,-0.0795898,0.181641,9.8125,-7.625,1,-0.529442,-1.36887,-0.195739
2097,-2,0,-3,0,-1,-1,-2,-2,0.980469,-0.081543,0.185547,8.5,-7.5,0.6875,-0.531242,-1.37077,-0.190593
2097,-1,-1,-2,0,-1,-1,-1,-1,0.980469,-0.081543,0.185547,8.5,-7.5,0.6875,-0.531242,-1.37077,-0.190593
2118,0,-1,-3,-2,-2,-1,-1,-1,0.980469,-0.081543,0.185547,8.5,-7.5,0.6875,-0.531242,-1.37077,-0.190593
2118,-2,-2,-3,-1,-1,-1,-2,1,0.980469,-0.081543,0.185547,8.5,-7.5,0.6875,-0.531242,-1.37077,-0.190593
2120,0,1,1,-1,-1,0,-1,-1,0.987305,-0.0820312,0.175293,7.75,-7,0.1875,-0.532046,-1.37282,-0.186733
2120,-2,-3,-5,-3,-1,-2,-1,-1,0.987305,-0.0820312,0.175293,7.75,-7,0.1875,-0.532046,-1.37282,-0.186733
2132,-1,-1,-1,-1,0,0,-2,0,0.987305,-0.0820312,0.175293,7.75,-7,0.1875,-0.532046,-1.37282,-0.186733
2132,0,0,1,-1,-1,-1,0,-1,0.987305,-0.0820312,0.175293,7.75,-7,0.1875,-0.532046,-1.37282,-0.186733
2141,-1,0,0,0,0,-2,-1,0,0.983398,-0.0834961,0.166992,7.75,-5.6875,-0.25,-0.53238,-1.37489,-0.183669
2141,1,0,1,-1,-1,-2,0,-2,0.983398,-0.0834961,0.166992,7.75,-5.6875,-0.25,-0.53238,-1.37489,-0.183669
2157,-2,-1,0,0,-1,1,-1,0,0.983398,-0.0834961,0.166992,7.75,-5.6875,-0.25,-0.53238,-1.37489,-0.183669
2157,-1,1,0,-1,-1,-1,-1,-1,0.983398,-0.0834961,0.166992,7.75,-5.6875,-0.25,-0.53238,-1.37489,-0.183669
2158,0,-1,0,0,-1,0,1,0,0.978516,-0.0825195,0.155762,7.75,-4,-0.5625,-0.531192,-1.37662,-0.182154
2158,0,-1,-3,-2,-1,0,-2,-1,0.978516,-0.0825195,0.155762,7.75,-4,-0.5625,-0.531192,-1.37662,-0.182154
2179,-1,-1,0,-1,-1,-3,-2,-1,0.978516,-0.0825195,0.155762,7.75,-4,-0.5625,-0.531192,-1.37662,-0.182154
2179,0,-1,-2,1,-1,0,-1,-1,0.978516,-0.0825195,0.155762,7.75,-4,-0.5625,-0.531192,-1.37662,-0.182154
2180,-3,-1,0,-2,-1,-2,-1,1,0.976074,-0.0766602,0.156738,7,-1.9375,-0.6875,-0.5282,-1.37769,-0.182728
2180,0,1,-1,-2,0,-2,1,-1,0.976074,-0.0766602,0.156738,7,-1.9375,-0.6875,-0.5282,-1.37769,-0.182728
2192,-2,-2,-2,-3,-1,-1,-1,-2,0.976074,-0.0766602,0.156738,7,-1.9375,-0.6875,-0.5282,-1.37769,-0.182728
2192,-1,-2,0,-1,-1,-2,0,-2,0.976074,-0.0766602,0.156738,7,-1.9375,-0.6875,-0.5282,-1.37769,-0.182728
2201,1,0,-3,0,-2,-1,-1,-1,0.975098,-0.0791016,0.153809,5.875,0.1875,-0.625,-0.52406,-1.37832,-0.184865
2201,-1,-1,0,1,-3,-1,1,0,0.975098,-0.0791016,0.153809,5.875,0.1875,-0.625,-0.52406,-1.37832,-0.184865
2216,-1,-2,-2,1,-3,-1,-1,0,0.975098,-0.0791016,0.153809,5.875,0.1875,-0.625,-0.52406,-1.37832,-0.184865
2216,-2,0,1,-1,0,-1,-2,0,0.975098,-0.0791016,0.153809,5.875,0.1875,-0.625,-0.52406,-1.37832,-0.184865
2218,0,-3,-2,-1,-1,0,0,-1,0.973145,-0.0791016,0.16748,5.375,1.5625,-0.5625,-0.51777,-1.37787,-0.18911
2218,-1,0,1,0,-1,-1,1,0,0.973145,-0.0791016,0.16748,5.375,1.5625,-0.5625,-0.51777,-1.37787,-0.18911
2239,-1,1,2,0,0,-1,0,-2,0.973145,-0.0791016,0.16748,5.375,1.5625,-0.5625,-0.51777,-1.37787,-0.18911
2239,0,-2,-2,-2,0,-1,1,0,0.973145,-0.0791016,0.16748,5.375,1.5625,-0.5625,-0.51777,-1.37787,-0.18911
2240,0,-2,-2,0,-1,-1,-2,0,0.96875,-0.0864258,0.165039,5.25,2.625,-0.5,-0.511865,-1.3774,-0.193287
2240,0,0,0,-1,-1,0,0,0,0.96875,-0.0864258,0.165039,5.25,2.625,-0.5,-0.511865,-1.3774,-0.193287
2253,-1,0,-2,-2,-2,0,-1,-1,0.96875,-0.0864258,0.165039,5.25,2.625,-0.5,-0.511865,-1.3774,-0.193287
2253,-1,-2,-2,-2,-2,-1,-2,-1,0.96875,-0.0864258,0.165039,5.25,2.625,-0.5,-0.511865,-1.3774,-0.193287
2261,1,-1,-2,-2,-1,-1,-1,-1,0.970215,-0.0883789,0.168457,5.1875,3.125,-0.5,-0.506224,-1.37653,-0.19723
2261,-2,-3,0,-1,-2,-2,-2,-1,0.970215,-0.0883789,0.168457,5.1875,3.125,-0.5,-0.506224,-1.37653,-0.19723
2276,0,0,-1,-1,-3,1,0,-1,0.970215,-0.0883789,0.168457,5.1875,3.125,-0.5,-0.506224,-1.37653,-0.19723
2276,-2,-1,0,-2,-1,-1,-1,-2,0.970215,-0.0883789,0.168457,5.1875,3.125,-0.5,-0.506224,-1.37653,-0.19723
2278,1,1,-1,0,-2,-2,-1,0,0.972168,-0.0976562,0.180176,5.375,3.1875,-0.75,-0.500085,-1.37483,-0.201145
2278,0,0,-1,-1,0,-2,-3,-2,0.972168,-0.0976562,0.180176,5.375,3.1875,-0.75,-0.500085,-1.37483,-0.201145
2299,0,0,0,-1,-1,-2,-1,1,0.972168,-0.0976562,0.180176,5.375,3.1875,-0.75,-0.500085,-1.37483,-0.201145
2299,-1,-1,-1,-1,-2,0,0,-1,0.972168,-0.0976562,0.180176,5.375,3.1875,-0.75,-0.500085,-1.37483,-0.201145
2300,-1,-1,0,-1,-2,-1,0,0,0.974609,-0.0922852,0.169434,4.875,2.875,-1.0625,-0.494865,-1.37437,-0.204995
2300,-2,-3,-1,-1,0,-3,0,-1,0.974609,-0.0922852,0.169434,4.875,2.875,-1.0625,-0.494865,-1.37437,-0.204995
2312,0,-3,-1,-1,0,-1,0,-2,0.974609,-0.0922852,0.169434,4.875,2.875,-1.0625,-0.494865,-1.37437,-0.204995
2312,0,-2,-1,-1,-1,-1,-2,0,0.974609,-0.0922852,0.169434,4.875,2.875,-1.0625,-0.494865,-1.37437,-0.204995
2321,-2,-4,-1,0,-1,0,-2,-1,0.983887,-0.0908203,0.175293,4.0625,2.5625,-1.25,-0.48889,-1.37386,-0.209683
2321,-2,0,-1,1,0,0,1,-2,0.983887,-0.0908203,0.175293,4.0625,2.5625,-1.25,-0.48889,-1.37386,-0.209683
2336,1,-1,-1,-1,-1,-2,-1,0,0.983887,-0.0908203,0.175293,4.0625,2.5625,-1.25,-0.48889,-1.37386,-0.209683
2336,-1,-2,0,0,-2,-2,-1,-2,0.983887,-0.0908203,0.175293,4.0625,2.5625,-1.25,-0.48889,-1.37386,-0.209683
2337,-1,0,-1,0,0,-1,-2,0,0.977539,-0.0893555,0.168457,3.375,2.375,-1,-0.484533,-1.3735,-0.212983
2337,0,-2,-1,-1,0,-1,0,0,0.977539,-0.0893555,0.168457,3.375,2.375,-1,-0.484533,-1.3735,-0.212983
2359,0,-1,0,-1,-3,0,-2,-2,0.977539,-0.0893555,0.168457,3.375,2.375,-1,-0.484533,-1.3735,-0.212983
2359,0,1,-1,-2,-3,-1,-1,1,0.977539,-0.0893555,0.168457,3.375,2.375,-1,-0.484533,-1.3735,-0.212983
2360,-2,-1,0,-2,-1,-2,1,0,0.972656,-0.0942383,0.15918,2.9375,2.375,-0.9375,-0.481475,-1.3729,-0.214905
2360,0,0,0,-2,-2,-1,0,1,0.972656,-0.0942383,0.15918,2.9375,2.375,-0.9375,-0.481475,-1.3729,-0.214905
2381,-1,-2,-2,-1,0,0,-2,-2,0.972656,-0.0942383,0.15918,2.9375,2.375,-0.9375,-0.481475,-1.3729,-0.214905
2381,-1,-1,0,-1,-1,-2,0,0,0.972656,-0.0942383,0.15918,2.9375,2.375,-0.9375,-0.481475,-1.3729,-0.214905
2383,-2,-2,-3,-2,-1,0,-1,-2,0.977539,-0.0927734,0.15332,3.1875,2.6875,-0.875,-0.478095,-1.37262,-0.217183
2383,-1,-1,-1,-1,-2,-1,-2,0,0.977539,-0.0927734,0.15332,3.1875,2.6875,-0.875,-0.478095,-1.37262,-0.217183
2396,-1,-3,-2,1,-2,-2,-1,1,0.977539,-0.0927734,0.15332,3.1875,2.6875,-0.875,-0.478095,-1.37262,-0.217183
2396,-1,-2,-2,0,-1,-1,-1,0,0.977539,-0.0927734,0.15332,3.1875,2.6875,-0.875,-0.478095,-1.37262,-0.217183
2397,-2,-2,-3,0,-1,0,0,0,0.98291,-0.0927734,0.155273,3.4375,3.0625,-0.6875,-0.474654,-1.37225,-0.219584
2397,-1,0,-1,-2,-1,0,0,0,0.98291,-0.0927734,0.155273,3.4375,3.0625,-0.6875,-0.474654,-1.37225,-0.219584
2418,-2,2,-1,0,2,1,0,0,0.98291,-0.0927734,0.155273,3.4375,3.0625,-0.6875,-0.474654,-1.37225,-0.219584
2418,0,-1,-2,0,1,0,-2,-1,0.98291,-0.0927734,0.155273,3.4375,3.0625,-0.6875,-0.474654,-1.37225,-0.219584
2420,0,1,1,-1,0,-1,0,-1,0.993164,-0.0849609,0.151855,3.375,3.4375,-0.4375,-0.471227,-1.37189,-0.221973
2420,0,0,0,-1,-2,0,-1,-1,0.993164,-0.0849609,0.151855,3.375,3.4375,-0.4375,-0.471227,-1.37189,-0.221973
2441,-1,2,2,-1,-2,-2,1,-2,0.993164,-0.0849609,0.151855,3.375,3.4375,-0.4375,-0.471227,-1.37189,-0.221973
2441,0,-2,0,-2,-2,0,1,0,0.993164,-0.0849609,0.151855,3.375,3.4375,-0.4375,-0.471227,-1.37189,-0.221973
2443,-1,-3,-1,-2,0,-1,-2,-2,0.994141,-0.0825195,0.148438,2.25,4.1875,-0.625,-0.467039,-1.37131,-0.22535
2443,-1,-2,-1,-1,-1,-1,-2,0,0.994141,-0.0825195,0.148438,2.25,4.1875,-0.625,-0.467039,-1.37131,-0.22535
2456,0,0,-1,-1,0,-2,0,0,0.994141,-0.0825195,0.148438,2.25,4.1875,-0.625,-0.467039,-1.37131,-0.22535
2456,-1,-1,-1,-3,-1,-1,-1,-2,0.994141,-0.0825195,0.148438,2.25,4.1875,-0.625,-0.467039,-1.37131,-0.22535
2458,1,-2,1,-2,-1,-2,-2,0,0.995605,-0.0810547,0.141113,0.5625,5.1875,-0.9375,-0.462461,-1.37102,-0.230126
2458,-2,-1,-2,0,-1,0,0,-3,0.995605,-0.0810547,0.141113,0.5625,5.1875,-0.9375,-0.462461,-1.37102,-0.230126
2479,-2,-1,-2,-2,-2,-2,-1,-2,0.995605,-0.0810547,0.141113,0.5625,5.1875,-0.9375,-0.462461,-1.37102,-0.230126
2479,-1,-1,-3,0,0,0,-2,-1,0.995605,-0.0810547,0.141113,0.5625,5.1875,-0.9375,-0.462461,-1.37102,-0.230126
2480,1,-1,1,0,0,0,-1,-2,0.980957,-0.0732422,0.131348,-0.625,6.75,-1.1875,-0.456547,-1.37028,-0.23634
2480,-2,-1,-1,0,-1,-2,-1,-1,0.980957,-0.0732422,0.131348,-0.625,6.75,-1.1875,-0.456547,-1.37028,-0.23634
2501,1,-2,-2,-2,-2,0,-2,-1,0.980957,-0.0732422,0.131348,-0.625,6.75,-1.1875,-0.456547,-1.37028,-0.23634
2501,0,1,0,1,-1,-1,-2,-1,0.980957,-0.0732422,0.131348,-0.625,6.75,-1.1875,-0.456547,-1.37028,-0.23634
2502,-2,-1,-3,-1,-2,-1,-1,0,0.960449,-0.0629883,0.140137,-1,8.0625,-1.0625,-0.44865,-1.36869,-0.244635
2502,0,-2,-1,-1,0,-3,1,-1,0.960449,-0.0629883,0.140137,-1,8.0625,-1.0625,-0.44865,-1.36869,-0.244635
2516,-2,-3,-1,-1,-1,-2,0,-1,0.960449,-0.0629883,0.140137,-1,8.0625,-1.0625,-0.44865,-1.36869,-0.244635
2516,-2,-2,-1,-2,-1,-2,0,0,0.960449,-0.0629883,0.140137,-1,8.0625,-1.0625,-0.44865,-1.36869,-0.244635
2523,1,0,1,0,-1,-1,-3,-1,0.95459,-0.0610352,0.148438,-1.625,8.6875,-0.625,-0.441315,-1.36708,-0.252677
2523,-1,0,-1,-1,-2,-1,-1,-2,0.95459,-0.0610352,0.148438,-1.625,8.6875,-0.625,-0.441315,-1.36708,-0.252677
2539,-1,-1,0,-1,-1,-1,-2,0,0.95459,-0.0610352,0.148438,-1.625,8.6875,-0.625,-0.441315,-1.36708,-0.252677
2539,-1,-1,0,-1,0,-2,0,0,0.95459,-0.0610352,0.148438,-1.625,8.6875,-0.625,-0.441315,-1.36708,-0.252677
2540,-2,0,-2,-1,-3,-1,-1,0,0.957031,-0.0664062,0.15625,-2.25,8.3125,0.125,-0.43534,-1.365,-0.259494
2540,0,-2,-2,0,-1,1,-2,-1,0.957031,-0.0664062,0.15625,-2.25,8.3125,0.125,-0.43534,-1.365,-0.259494
2561,-2,0,1,1,-3,0,0,-1,0.957031,-0.0664062,0.15625,-2.25,8.3125,0.125,-0.43534,-1.365,-0.259494
2561,-2,-2,-1,0,-2,-1,-3,-1,0.957031,-0.0664062,0.15625,-2.25,8.3125,0.125,-0.43534,-1.365,-0.259494
2562,0,1,0,-1,-1,0,-1,-3,0.95166,-0.0771484,0.165527,-1.6875,6.625,0.8125,-0.432823,-1.36314,-0.262676
2562,-2,-2,0,-2,-1,-1,0,-2,0.95166,-0.0771484,0.165527,-1.6875,6.625,0.8125,-0.432823,-1.36314,-0.262676
2575,0,0,-1,-1,-2,0,0,0,0.95166,-0.0771484,0.165527,-1.6875,6.625,0.8125,-0.432823,-1.36314,-0.262676
2575,-1,-1,-1,-1,-1,0,0,0,0.95166,-0.0771484,0.165527,-1.6875,6.625,0.8125,-0.432823,-1.36314,-0.262676
2582,-1,-2,-1,-1,-1,-1,-1,0,0.946777,-0.0942383,0.181641,0,4.1875,0.75,-0.431706,-1.36145,-0.263671
2582,0,0,0,-1,-1,0,-1,-1,0.946777,-0.0942383,0.181641,0,4.1875,0.75,-0.431706,-1.36145,-0.263671
2598,-1,-1,-1,-1,-1,-2,0,0,0.946777,-0.0942383,0.181641,0,4.1875,0.75,-0.431706,-1.36145,-0.263671
2598,-1,-1,-2,-1,-1,-1,0,-2,0.946777,-0.0942383,0.181641,0,4.1875,0.75,-0.431706,-1.36145,-0.263671
2600,0,-2,-1,-2,1,-3,0,-1,0.945312,-0.0957031,0.187988,1.4375,1.375,-0.5,-0.430828,-1.36083,-0.264101
2600,-1,-1,1,0,0,0,0,0,0.945312,-0.0957031,0.187988,1.4375,1.375,-0.5,-0.430828,-1.36083,-0.264101
2620,-1,1,-1,-4,1,-1,1,-1,0.944824,-0.0957031,0.183594,2.1875,-1.3125,-1.9375,-0.429416,-1.36124,-0.264822
2620,-1,-1,-2,0,-1,0,0,0,0.944824,-0.0957031,0.183594,2.1875,-1.3125,-1.9375,-0.429416,-1.36124,-0.264822
2621,-2,-2,-3,0,-2,-1,-2,0,0.944824,-0.0957031,0.183594,2.1875,-1.3125,-1.9375,-0.429416,-1.36124,-0.264822
2621,0,-2,-2,-1,0,-1,0,-1,0.944824,-0.0957031,0.183594,2.1875,-1.3125,-1.9375,-0.429416,-1.36124,-0.264822
2635,-1,-2,-1,0,-2,-2,-3,-1,0.947266,-0.0854492,0.180664,1.25,-3.75,-3.3125,-0.426568,-1.36304,-0.267352
2635,0,-1,0,-1,-1,-2,0,-2,0.947266,-0.0854492,0.180664,1.25,-3.75,-3.3125,-0.426568,-1.36304,-0.267352
2643,-2,1,1,-1,-2,-1,0,-1,0.947266,-0.0854492,0.180664,1.25,-3.75,-3.3125,-0.426568,-1.36304,-0.267352
2643,-2,1,-2,0,1,0,-1,0,0.947266,-0.0854492,0.180664,1.25,-3.75,-3.3125,-0.426568,-1.36304,-0.267352
2658,-1,-1,-2,-1,0,0,0,0,0.955078,-0.0805664,0.17334,-1.375,-5.875,-4.3125,-0.424946,-1.3658,-0.269534
2658,-1,0,0,-3,0,-1,0,-1,0.955078,-0.0805664,0.17334,-1.375,-5.875,-4.3125,-0.424946,-1.3658,-0.269534
2659,0,0,0,-1,-1,-2,0,-2,0.955078,-0.0805664,0.17334,-1.375,-5.875,-4.3125,-0.424946,-1.3658,-0.269534
2659,-2,-1,-2,-1,0,-2,-1,-2,0.955078,-0.0805664,0.17334,-1.375,-5.875,-4.3125,-0.424946,-1.3658,-0.269534
2689,1,0,-2,0,-1,-1,-2,-1,0.956055,-0.0854492,0.184082,-3.875,-7.625,-4.625,-0.424571,-1.3685,-0.271259
2689,-1,-2,0,-1,-2,0,-1,-2,0.956055,-0.0854492,0.184082,-3.875,-7.625,-4.625,-0.424571,-1.3685,-0.271259
2689,1,0,0,1,0,0,0,-1,0.956055,-0.0854492,0.184082,-3.875,-7.625,-4.625,-0.424571,-1.3685,-0.271259
2689,0,-1,-1,-3,-1,1,-1,-1,0.956055,-0.0854492,0.184082,-3.875,-7.625,-4.625,-0.424571,-1.3685,-0.271259
2695,-2,-1,-1,-2,1,0,-3,-1,0.958008,-0.0893555,0.172852,-5.6875,-9,-4.9375,-0.42648,-1.372,-0.271364
2695,-2,-2,-3,0,0,1,-2,0,0.958008,-0.0893555,0.172852,-5.6875,-9,-4.9375,-0.42648,-1.372,-0.271364
2703,-2,0,0,0,0,-1,0,-1,0.958008,-0.0893555,0.172852,-5.6875,-9,-4.9375,-0.42648,-1.372,-0.271364
2703,-1,-1,-1,1,-2,-3,-2,0,0.958008,-0.0893555,0.172852,-5.6875,-9,-4.9375,-0.42648,-1.372,-0.271364
2718,0,-4,-1,-1,-1,-1,1,-1,0.960938,-0.0874023,0.164062,-5.75,-9.75,-4.6875,-0.429569,-1.37616,-0.27043
2718,0,-1,-1,-1,-2,-2,-3,-2,0.960938,-0.0874023,0.164062,-5.75,-9.75,-4.6875,-0.429569,-1.37616,-0.27043
2718,0,0,-1,-1,-2,1,-1,0,0.960938,-0.0874023,0.164062,-5.75,-9.75,-4.6875,-0.429569,-1.37616,-0.27043
2718,1,1,-1,-1,-1,-2,1,-1,0.960938,-0.0874023,0.164062,-5.75,-9.75,-4.6875,-0.429569,-1.37616,-0.27043
2741,-2,-1,1,-2,-1,-1,-2,-1,0.971191,-0.0961914,0.165039,-5.1875,-10.125,-4.5,-0.433836,-1.37975,-0.267947
2741,-1,-2,-2,1,0,-1,0,-1,0.971191,-0.0961914,0.165039,-5.1875,-10.125,-4.5,-0.433836,-1.37975,-0.267947
2741,-2,-2,-1,-3,0,-1,0,0,0.971191,-0.0961914,0.165039,-5.1875,-10.125,-4.5,-0.433836,-1.37975,-0.267947
2741,-1,-1,-1,-2,-1,-2,0,-1,0.971191,-0.0961914,0.165039,-5.1875,-10.125,-4.5,-0.433836,-1.37975,-0.267947
2755,0,0,-2,1,0,-1,-1,-2,0.975586,-0.106445,0.175293,-3.8125,-10.5625,-3.6875,-0.440053,-1.38294,-0.262875
2755,-1,-2,1,-2,0,-2,2,0,0.975586,-0.106445,0.175293,-3.8125,-10.5625,-3.6875,-0.440053,-1.38294,-0.262875
2763,1,-1,1,-1,0,0,-1,-2,0.975586,-0.106445,0.175293,-3.8125,-10.5625,-3.6875,-0.440053,-1.38294,-0.262875
2763,0,-1,0,-1,-2,0,-2,0,0.975586,-0.106445,0.175293,-3.8125,-10.5625,-3.6875,-0.440053,-1.38294,-0.262875
2778,-1,1,-1,-1,-1,-1,1,-1,0.975586,-0.107422,0.171875,-0.375,-11.4375,-2.375,-0.448143,-1.38693,-0.255228
2778,1,1,-1,-2,-2,-1,1,0,0.975586,-0.107422,0.171875,-0.375,-11.4375,-2.375,-0.448143,-1.38693,-0.255228
2779,-1,-3,-2,-1,0,0,-2,0,0.975586,-0.107422,0.171875,-0.375,-11.4375,-2.375,-0.448143,-1.38693,-0.255228
2779,-2,-2,-2,0,-1,-1,-1,-3,0.975586,-0.107422,0.171875,-0.375,-11.4375,-2.375,-0.448143,-1.38693,-0.255228
2801,0,-1,0,1,0,-1,0,0,0.973145,-0.0966797,0.180664,2.375,-12.5,-0.375,-0.457941,-1.39002,-0.244327
2801,-1,1,-1,-1,-1,-3,0,-3,0.973145,-0.0966797,0.180664,2.375,-12.5,-0.375,-0.457941,-1.39002,-0.244327
2801,1,0,-2,-2,-1,-1,-1,-1,0.973145,-0.0966797,0.180664,2.375,-12.5,-0.375,-0.457941,-1.39002,-0.244327
2801,0,0,-1,0,-2,-2,-2,-1,0.973145,-0.0966797,0.180664,2.375,-12.5,-0.375,-0.457941,-1.39002,-0.244327
2815,-3,0,-1,-2,-2,-1,-2,0,0.962402,-0.0849609,0.179199,3.9375,-13.1875,2.1875,-0.471325,-1.39333,-0.229341
2815,1,0,-1,-3,0,-1,-4,0,0.962402,-0.0849609,0.179199,3.9375,-13.1875,2.1875,-0.471325,-1.39333,-0.229341
2830,-1,-1,0,-2,-2,-3,-1,-1,0.962402,-0.0849609,0.179199,3.9375,-13.1875,2.1875,-0.471325,-1.39333,-0.229341
2830,0,-1,0,-1,0,1,-2,-1,0.962402,-0.0849609,0.179199,3.9375,-13.1875,2.1875,-0.471325,-1.39333,-0.229341
2838,-2,0,-1,-1,-1,-1,-1,-1,0.966797,-0.105469,0.185059,7.9375,-14.1875,4.1875,-0.489496,-1.39575,-0.207968
2838,-1,-2,-3,-1,-2,-2,0,0,0.966797,-0.105469,0.185059,7.9375,-14.1875,4.1875,-0.489496,-1.39575,-0.207968
2838,-1,-2,-1,-2,-2,-1,0,-2,0.966797,-0.105469,0.185059,7.9375,-14.1875,4.1875,-0.489496,-1.39575,-0.207968
2838,-2,0,-2,0,0,1,-1,-2,0.966797,-0.105469,0.185059,7.9375,-14.1875,4.1875,-0.489496,-1.39575,-0.207968
2860,0,-1,-1,0,-2,-2,-2,0,0.962402,-0.116699,0.189941,12.875,-15,5.4375,-0.510138,-1.3979,-0.182384
2860,0,-2,-2,0,0,0,-1,0,0.962402,-0.116699,0.189941,12.875,-15,5.4375,-0.510138,-1.3979,-0.182384
2860,-1,-1,0,0,0,-1,-2,-1,0.962402,-0.116699,0.189941,12.875,-15,5.4375,-0.510138,-1.3979,-0.182384
2860,0,-1,0,-2,-1,-1,1,1,0.962402,-0.116699,0.189941,12.875,-15,5.4375,-0.510138,-1.3979,-0.182384
2882,0,-1,-1,-1,1,0,-2,-1,0.954102,-0.11084,0.181152,18.375,-15.625,6.5,-0.531385,-1.40047,-0.154386
2882,-1,-1,-1,0,0,-1,0,-1,0.954102,-0.11084,0.181152,18.375,-15.625,6.5,-0.531385,-1.40047,-0.154386
2883,-1,0,-2,0,-2,-1,-1,-1,0.954102,-0.11084,0.181152,18.375,-15.625,6.5,-0.531385,-1.40047,-0.154386
2883,1,-1,-1,-1,-2,-2,-3,-1,0.954102,-0.11084,0.181152,18.375,-15.625,6.5,-0.531385,-1.40047,-0.154386
2898,0,2,-1,-3,0,-2,0,0,0.944824,-0.0966797,0.185059,21.4375,-16.4375,7.3125,-0.551733,-1.40316,-0.126171
2898,-1,-1,-1,-2,-1,0,-1,-2,0.944824,-0.0966797,0.185059,21.4375,-16.4375,7.3125,-0.551733,-1.40316,-0.126171
2898,0,-1,-1,-1,0,1,0,-1,0.944824,-0.0966797,0.185059,21.4375,-16.4375,7.3125,-0.551733,-1.40316,-0.126171
2898,-1,0,-1,-2,-1,0,0,0,0.944824,-0.0966797,0.185059,21.4375,-16.4375,7.3125,-0.551733,-1.40316,-0.126171
2921,-1,-2,-1,1,-3,-1,-1,-2,0.962891,-0.0952148,0.196289,22.3125,-17.1875,7.6875,-0.572491,-1.40522,-0.0970194
2921,-1,-2,-1,-1,-1,-1,0,0,0.962891,-0.0952148,0.196289,22.3125,-17.1875,7.6875,-0.572491,-1.40522,-0.0970194
2921,0,-1,-2,1,-1,-2,0,1,0.962891,-0.0952148,0.196289,22.3125,-17.1875,7.6875,-0.572491,-1.40522,-0.0970194
2921,0,-1,-1,-1,0,-2,2,-3,0.962891,-0.0952148,0.196289,22.3125,-17.1875,7.6875,-0.572491,-1.40522,-0.0970194
2943,0,-2,-1,-1,0,-2,-1,-1,0.984863,-0.102539,0.200684,21.5625,-17.9375,7.625,-0.595397,-1.40777,-0.06629
2943,0,-2,-2,-1,-1,-1,-2,-1,0.984863,-0.102539,0.200684,21.5625,-17.9375,7.625,-0.595397,-1.40777,-0.06629
2943,0,-2,-1,-1,-1,0,0,-1,0.984863,-0.102539,0.200684,21.5625,-17.9375,7.625,-0.595397,-1.40777,-0.06629
2943,0,-3,-2,-1,0,-3,1,0,0.984863,-0.102539,0.200684,21.5625,-17.9375,7.625,-0.595397,-1.40777,-0.06629
2958,-1,0,-2,-1,-1,-1,0,-2,1,-0.110352,0.192383,20.875,-18.375,7,-0.619428,-1.40997,-0.0343098
2958,-2,-1,1,-1,-2,-2,-3,-1,1,-0.110352,0.192383,20.875,-18.375,7,-0.619428,-1.40997,-0.0343098
2958,-2,0,1,0,1,0,-2,0,1,-0.110352,0.192383,20.875,-18.375,7,-0.619428,-1.40997,-0.0343098
2958,-1,0,-2,0,-1,0,-1,0,1,-0.110352,0.192383,20.875,-18.375,7,-0.619428,-1.40997,-0.0343098
2988,0,-2,0,-1,1,-1,-2,0,1.00293,-0.0996094,0.188477,19.9375,-18.0625,6.25,-0.641561,-1.41214,-0.00447434
2988,-1,-1,-2,-1,-2,0,-1,-1,1.00293,-0.0996094,0.188477,19.9375,-18.0625,6.25,-0.641561,-1.41214,-0.00447434
2989,-1,0,-2,-1,-1,-2,0,-1,1.00293,-0.0996094,0.188477,19.9375,-18.0625,6.25,-0.641561,-1.41214,-0.00447434
2989,-2,-2,0,-2,-1,-1,0,-1,1.00293,-0.0996094,0.188477,19.9375,-18.0625,6.25,-0.641561,-1.41214,-0.00447434
3003,-3,-1,-1,-1,-2,-1,-1,-1,1.00049,-0.0961914,0.173828,18.8125,-17.3125,5.75,-0.663145,-1.41519,0.0239517
3003,-1,-1,1,-1,-1,-1,-1,0,1.00049,-0.0961914,0.173828,18.8125,-17.3125,5.75,-0.663145,-1.41519,0.0239517
3003,0,-1,-1,-1,0,-1,-2,1,1.00049,-0.0961914,0.173828,18.8125,-17.3125,5.75,-0.663145,-1.41519,0.0239517
3003,-1,1,-2,1,-2,0,-2,0,1.00049,-0.0961914,0.173828,18.8125,-17.3125,5.75,-0.663145,-1.41519,0.0239517
3018,1,-2,0,0,-2,-1,0,0,0.986816,-0.0864258,0.166016,18.375,-15.625,5.8125,-0.682716,-1.41716,0.050438
3018,-1,2,0,-1,2,0,-1,0,0.986816,-0.0864258,0.166016,18.375,-15.625,5.8125,-0.682716,-1.41716,0.050438
3018,0,0,-1,1,-2,-2,-1,-1,0.986816,-0.0864258,0.166016,18.375,-15.625,5.8125,-0.682716,-1.41716,0.050438
3018,0,-3,0,-1,-1,0,-3,-2,0.986816,-0.0864258,0.166016,18.375,-15.625,5.8125,-0.682716,-1.41716,0.050438
3040,-2,-1,1,0,-1,0,-1,-1,0.984863,-0.0791016,0.161133,19,-14,6.125,-0.699681,-1.41896,0.0745658
3040,-1,0,0,-1,0,-2,-1,0,0.984863,-0.0791016,0.161133,19,-14,6.125,-0.699681,-1.41896,0.0745658
3040,-1,0,-3,-2,1,0,-1,-2,0.984863,-0.0791016,0.161133,19,-14,6.125,-0.699681,-1.41896,0.0745658
3040,-1,-1,-1,-3,-2,-2,0,-1,0.984863,-0.0791016,0.161133,19,-14,6.125,-0.699681,-1.41896,0.0745658
3063,0,-2,-1,-1,-1,-1,2,0,0.993164,-0.0913086,0.15918,19.375,-11.9375,5.9375,-0.7155,-1.4198,0.097676
3063,-1,-2,-1,0,-2,1,-1,-2,0.993164,-0.0913086,0.15918,19.375,-11.9375,5.9375,-0.7155,-1.4198,0.097676
3063,-1,0,-2,0,-2,0,-1,-2,0.993164,-0.0913086,0.15918,19.375,-11.9375,5.9375,-0.7155,-1.4198,0.097676
3063,-2,-1,1,-1,-1,-1,0,-1,0.993164,-0.0913086,0.15918,19.375,-11.9375,5.9375,-0.7155,-1.4198,0.097676
3078,0,-2,-3,0,0,-1,-3,0,1.01172,-0.105469,0.151855,19.75,-9.6875,5.125,-0.728292,-1.42062,0.117554
3078,-2,0,-2,-1,0,0,-1,0,1.01172,-0.105469,0.151855,19.75,-9.6875,5.125,-0.728292,-1.42062,0.117554
3079,-1,-2,0,-1,-3,0,-1,-1,1.01172,-0.105469,0.151855,19.75,-9.6875,5.125,-0.728292,-1.42062,0.117554
3079,-2,-1,-1,-1,0,-2,-1,-1,1.01172,-0.105469,0.151855,19.75,-9.6875,5.125,-0.728292,-1.42062,0.117554
3101,0,0,-1,-1,0,-2,0,0,1.02441,-0.100586,0.134277,19.9375,-7.1875,3.625,-0.73605,-1.42108,0.132582
3101,2,-1,-1,1,-1,0,-1,-1,1.02441,-0.100586,0.134277,19.9375,-7.1875,3.625,-0.73605,-1.42108,0.132582
3102,-1,-1,-2,-2,-2,-2,-1,0,1.02441,-0.100586,0.134277,19.9375,-7.1875,3.625,-0.73605,-1.42108,0.132582
3102,-1,0,0,-1,-1,-1,0,1,1.02441,-0.100586,0.134277,19.9375,-7.1875,3.625,-0.73605,-1.42108,0.132582
3123,-1,-1,-1,-1,-1,0,-1,-1,1.03076,-0.0800781,0.127441,17.5625,-4.25,2.25,-0.735873,-1.42181,0.138684
3123,-1,-2,0,-3,0,-2,0,-2,1.03076,-0.0800781,0.127441,17.5625,-4.25,2.25,-0.735873,-1.42181,0.138684
3123,-1,-3,-1,-1,-2,2,-2,0,1.03076,-0.0800781,0.127441,17.5625,-4.25,2.25,-0.735873,-1.42181,0.138684
3123,0,0,-2,-1,-1,-1,-1,0,1.03076,-0.0800781,0.127441,17.5625,-4.25,2.25,-0.735873,-1.42181,0.138684
3138,-1,0,-3,-1,-1,0,-1,0,1.02686,-0.0625,0.116211,12.6875,-1.25,1.375,-0.731105,-1.42263,0.13824
3138,-2,1,-2,-1,0,-2,1,0,1.02686,-0.0625,0.116211,12.6875,-1.25,1.375,-0.731105,-1.42263,0.13824
3138,0,-1,1,-1,-1,-2,0,0,1.02686,-0.0625,0.116211,12.6875,-1.25,1.375,-0.731105,-1.42263,0.13824
3138,0,0,0,0,-1,-1,0,-2,1.02686,-0.0625,0.116211,12.6875,-1.25,1.375,-0.731105,-1.42263,0.13824
3160,-1,-3,0,-1,-2,-1,0,-2,1.00586,-0.0629883,0.12207,7.6875,0.6875,1.4375,-0.724108,-1.42268,0.134022
3160,-2,-2,-1,0,-1,-2,-2,1,1.00586,-0.0629883,0.12207,7.6875,0.6875,1.4375,-0.724108,-1.42268,0.134022
3161,-1,0,-2,-2,-1,-2,-1,-1,1.00586,-0.0629883,0.12207,7.6875,0.6875,1.4375,-0.724108,-1.42268,0.134022
3161,0,1,0,0,1,-1,-2,2,1.00586,-0.0629883,0.12207,7.6875,0.6875,1.4375,-0.724108,-1.42268,0.134022
3183,-1,0,-2,-1,-1,-2,-1,-1,0.991699,-0.0820312,0.134766,5.1875,1.8125,1.5,-0.717313,-1.42106,0.129338
3183,-2,-2,-2,0,-2,-2,-3,-1,0.991699,-0.0820312,0.134766,5.1875,1.8125,1.5,-0.717313,-1.42106,0.129338
3184,-1,-2,1,-1,-1,1,-1,-1,0.991699,-0.0820312,0.134766,5.1875,1.8125,1.5,-0.717313,-1.42106,0.129338
3184,-3,-2,-1,1,-2,0,-1,0,0.991699,-0.0820312,0.134766,5.1875,1.8125,1.5,-0.717313,-1.42106,0.129338
3198,-1,-3,-1,-1,1,0,-3,-2,0.995117,-0.104004,0.150879,6,1.375,1,-0.711334,-1.41951,0.125665
3198,0,-1,0,-1,1,0,-1,0,0.995117,-0.104004,0.150879,6,1.375,1,-0.711334,-1.41951,0.125665
3199,-1,-1,-3,-1,-1,-3,-2,0,0.995117,-0.104004,0.150879,6,1.375,1,-0.711334,-1.41951,0.125665
3199,0,0,-2,-1,-2,1,-2,-2,0.995117,-0.104004,0.150879,6,1.375,1,-0.711334,-1.41951,0.125665
3221,-1,0,-2,1,-1,-1,1,0,0.991699,-0.131348,0.164062,10.0625,-0.375,-0.25,-0.706774,-1.4185,0.124496
3221,-2,-1,0,-2,-2,0,0,-1,0.991699,-0.131348,0.164062,10.0625,-0.375,-0.25,-0.706774,-1.4185,0.124496
3221,-1,-1,-1,-1,0,-1,-1,-1,0.991699,-0.131348,0.164062,10.0625,-0.375,-0.25,-0.706774,-1.4185,0.124496
3221,-1,-3,2,-1,-3,-2,-1,-2,0.991699,-0.131348,0.164062,10.0625,-0.375,-0.25,-0.706774,-1.4185,0.124496
3243,0,0,0,-3,-2,-2,0,1,0.995117,-0.137695,0.171387,16.375,-3.25,-2.5,-0.700714,-1.41833,0.124171
3243,0,-2,-1,0,-2,0,-1,-1,0.995117,-0.137695,0.171387,16.375,-3.25,-2.5,-0.700714,-1.41833,0.124171
3244,-1,-3,-1,0,-1,-1,0,1,0.995117,-0.137695,0.171387,16.375,-3.25,-2.5,-0.700714,-1.41833,0.124171
3244,0,-2,-2,0,-2,-2,-1,-2,0.995117,-0.137695,0.171387,16.375,-3.25,-2.5,-0.700714,-1.41833,0.124171
3258,-1,1,0,-1,-1,1,-1,-3,1.00391,-0.124512,0.168945,21.8125,-6.625,-5.0625,-0.692295,-1.41973,0.123378
3258,-1,1,0,0,-1,-2,0,-1,1.00391,-0.124512,0.168945,21.8125,-6.625,-5.0625,-0.692295,-1.41973,0.123378
3265,0,1,0,-2,-1,0,1,-1,1.00391,-0.124512,0.168945,21.8125,-6.625,-5.0625,-0.692295,-1.41973,0.123378
3265,-1,-1,0,-2,1,-1,-1,1,1.00391,-0.124512,0.168945,21.8125,-6.625,-5.0625,-0.692295,-1.41973,0.123378
3281,-1,-1,0,0,-2,-1,-3,-1,1.01416,-0.11377,0.148926,22.375,-10,-7.625,-0.684969,-1.42374,0.123658
3281,0,-2,-1,-1,-1,-2,-1,-1,1.01416,-0.11377,0.148926,22.375,-10,-7.625,-0.684969,-1.42374,0.123658
3282,0,-3,-2,1,0,-3,-1,-1,1.01416,-0.11377,0.148926,22.375,-10,-7.625,-0.684969,-1.42374,0.123658
3282,0,0,0,-2,0,0,0,0,1.01416,-0.11377,0.148926,22.375,-10,-7.625,-0.684969,-1.42374,0.123658
3303,-1,-1,-1,-2,-3,0,-3,0,1.01514,-0.090332,0.123535,18.0625,-11.625,-9.625,-0.676389,-1.42869,0.121434
3303,-1,0,-1,-1,-2,-1,-1,0,1.01514,-0.090332,0.123535,18.0625,-11.625,-9.625,-0.676389,-1.42869,0.121434
3303,-2,0,-2,-1,-1,-2,0,-2,1.01514,-0.090332,0.123535,18.0625,-11.625,-9.625,-0.676389,-1.42869,0.121434
3303,-2,-2,0,-2,-1,-1,-2,0,1.01514,-0.090332,0.123535,18.0625,-11.625,-9.625,-0.676389,-1.42869,0.121434
3318,0,-1,-1,0,0,-1,-1,-1,1.01025,-0.0717773,0.11084,13.0625,-12.125,-10.375,-0.668287,-1.43441,0.117924
3318,-1,0,-1,-1,-1,0,0,-1,1.01025,-0.0717773,0.11084,13.0625,-12.125,-10.375,-0.668287,-1.43441,0.117924
3319,0,-2,-1,0,-2,1,-1,-1,1.01025,-0.0717773,0.11084,13.0625,-12.125,-10.375,-0.668287,-1.43441,0.117924
3319,-3,0,-3,0,-1,0,-2,-1,1.01025,-0.0717773,0.11084,13.0625,-12.125,-10.375,-0.668287,-1.43441,0.117924
3340,0,-2,-2,0,0,1,0,0,0.995117,-0.0737305,0.104004,8.875,-12.0625,-10.9375,-0.660557,-1.44004,0.113415
3340,-2,-2,-1,-1,-1,-1,0,-2,0.995117,-0.0737305,0.104004,8.875,-12.0625,-10.9375,-0.660557,-1.44004,0.113415
3341,-2,1,0,-2,0,1,0,-1,0.995117,-0.0737305,0.104004,8.875,-12.0625,-10.9375,-0.660557,-1.44004,0.113415
3341,0,0,0,0,-1,0,-2,-2,0.995117,-0.0737305,0.104004,8.875,-12.0625,-10.9375,-0.660557,-1.44004,0.113415
3363,-2,-1,-1,-1,-1,-3,0,-1,0.990234,-0.0825195,0.0966797,8.375,-11.5625,-11.5625,-0.653665,-1.44584,0.10923
3363,0,-2,1,-1,-2,0,-1,-1,0.990234,-0.0825195,0.0966797,8.375,-11.5625,-11.5625,-0.653665,-1.44584,0.10923
3364,-1,-2,1,-1,-2,-2,0,0,0.990234,-0.0825195,0.0966797,8.375,-11.5625,-11.5625,-0.653665,-1.44584,0.10923
3364,-1,-3,-1,0,-1,0,-1,0,0.990234,-0.0825195,0.0966797,8.375,-11.5625,-11.5625,-0.653665,-1.44584,0.10923
3378,-2,0,-1,0,-1,-1,-1,-1,1.00049,-0.0869141,0.0849609,10.0625,-10.625,-12.1875,-0.644258,-1.45106,0.103316
3378,0,1,-1,0,-1,0,-2,-1,1.00049,-0.0869141,0.0849609,10.0625,-10.625,-12.1875,-0.644258,-1.45106,0.103316
3378,0,-1,2,0,0,0,0,-2,1.00049,-0.0869141,0.0849609,10.0625,-10.625,-12.1875,-0.644258,-1.45106,0.103316
3378,-1,-1,-1,-1,-2,-2,-2,-1,1.00049,-0.0869141,0.0849609,10.0625,-10.625,-12.1875,-0.644258,-1.45106,0.103316
3400,0,-1,1,0,0,-1,-1,-2,1,-0.0927734,0.0717773,11.125,-8.8125,-13.0625,-0.63185,-1.45627,0.0946668
3400,-2,-1,-1,-2,0,-2,-1,-2,1,-0.0927734,0.0717773,11.125,-8.8125,-13.0625,-0.63185,-1.45627,0.0946668
3401,-1,-2,-1,0,-1,0,-2,-1,1,-0.0927734,0.0717773,11.125,-8.8125,-13.0625,-0.63185,-1.45627,0.0946668
3401,0,-1,-3,0,-1,1,0,-1,1,-0.0927734,0.0717773,11.125,-8.8125,-13.0625,-0.63185,-1.45627,0.0946668
3424,-1,-1,-2,-2,-1,-1,0,-1,1.00293,-0.0859375,0.0791016,12.3125,-7,-14,-0.609948,-1.46063,0.0770682
3424,1,-2,-1,-2,-1,0,-1,1,1.00293,-0.0859375,0.0791016,12.3125,-7,-14,-0.609948,-1.46063,0.0770682
3424,-1,-1,-3,0,-2,-1,0,1,1.00293,-0.0859375,0.0791016,12.3125,-7,-14,-0.609948,-1.46063,0.0770682
3424,-1,-2,0,-1,1,0,-1,-1,1.00293,-0.0859375,0.0791016,12.3125,-7,-14,-0.609948,-1.46063,0.0770682
3438,-3,-1,-2,-1,-2,0,-2,0,1.00684,-0.0786133,0.0683594,12.4375,-5.0625,-14.625,-0.582166,-1.46533,0.0534354
3438,0,-1,-1,-1,-1,0,-3,-1,1.00684,-0.0786133,0.0683594,12.4375,-5.0625,-14.625,-0.582166,-1.46533,0.0534354
3439,1,0,0,-1,-1,-1,1,0,1.00684,-0.0786133,0.0683594,12.4375,-5.0625,-14.625,-0.582166,-1.46533,0.0534354
3439,-1,1,-1,-1,-2,-2,-1,-1,1.00684,-0.0786133,0.0683594,12.4375,-5.0625,-14.625,-0.582166,-1.46533,0.0534354
3460,-2,1,0,0,1,-1,0,-3,0.986328,-0.0629883,0.065918,10.9375,-2.875,-14.5,-0.547419,-1.46925,0.0222067
3460,0,-1,-1,-1,-2,-1,0,-1,0.986328,-0.0629883,0.065918,10.9375,-2.875,-14.5,-0.547419,-1.46925,0.0222067
3461,-2,-2,-1,1,-1,0,-4,-1,0.986328,-0.0629883,0.065918,10.9375,-2.875,-14.5,-0.547419,-1.46925,0.0222067
3461,-1,-1,-1,-3,1,-2,2,-1,0.986328,-0.0629883,0.065918,10.9375,-2.875,-14.5,-0.547419,-1.46925,0.0222067
3483,-1,-2,-2,-2,0,0,-1,-1,0.973145,-0.0610352,0.0776367,9.6875,-1.25,-13.5625,-0.509361,-1.47195,-0.0126807
3483,-1,-2,-2,-1,-1,-3,-2,1,0.973145,-0.0610352,0.0776367,9.6875,-1.25,-13.5625,-0.509361,-1.47195,-0.0126807
3484,-1,0,-2,-3,0,-2,-2,0,0.973145,-0.0610352,0.0776367,9.6875,-1.25,-13.5625,-0.509361,-1.47195,-0.0126807
3484,0,-2,-1,-1,-1,0,-2,-1,0.973145,-0.0610352,0.0776367,9.6875,-1.25,-13.5625,-0.509361,-1.47195,-0.0126807
3498,-1,-1,-1,-2,0,-1,-1,1,0.95166,-0.065918,0.0766602,8.75,0,-12.125,-0.473852,-1.47323,-0.0450771
3498,0,0,-1,1,-1,0,0,-2,0.95166,-0.065918,0.0766602,8.75,0,-12.125,-0.473852,-1.47323,-0.0450771
3498,0,-2,-1,-2,-1,-1,-1,0,0.95166,-0.065918,0.0766602,8.75,0,-12.125,-0.473852,-1.47323,-0.0450771
3498,-2,-1,-2,1,-2,-2,0,-1,0.95166,-0.065918,0.0766602,8.75,0,-12.125,-0.473852,-1.47323,-0.0450771
3520,0,-1,0,1,-2,-2,-1,-1,0.945801,-0.0771484,0.0922852,10.4375,0.75,-11.5625,-0.439503,-1.47449,-0.0761881
3520,-1,-2,-3,-1,-1,-1,-1,0,0.945801,-0.0771484,0.0922852,10.4375,0.75,-11.5625,-0.439503,-1.47449,-0.0761881
3521,-1,0,1,-2,-1,-1,-3,-2,0.945801,-0.0771484,0.0922852,10.4375,0.75,-11.5625,-0.439503,-1.47449,-0.0761881
3521,1,0,0,-2,0,-1,-1,-3,0.945801,-0.0771484,0.0922852,10.4375,0.75,-11.5625,-0.439503,-1.47449,-0.0761881
3544,0,-1,-2,-1,-1,-1,-1,0,0.960449,-0.0820312,0.0878906,13.125,1.0625,-11.5625,-0.404712,-1.47499,-0.106459
3544,-2,0,1,-1,-1,-4,-1,0,0.960449,-0.0820312,0.0878906,13.125,1.0625,-11.5625,-0.404712,-1.47499,-0.106459
3544,-1,-2,-2,0,0,-1,1,0,0.960449,-0.0820312,0.0878906,13.125,1.0625,-11.5625,-0.404712,-1.47499,-0.106459
3544,2,0,0,-1,-3,-1,-1,0,0.960449,-0.0820312,0.0878906,13.125,1.0625,-11.5625,-0.404712,-1.47499,-0.106459
3558,-1,0,-1,-2,-1,-1,-3,0,0.972168,-0.0795898,0.0966797,14.3125,1.375,-12,-0.367221,-1.4754,-0.139195
3558,0,-2,-1,0,-2,-1,-2,-2,0.972168,-0.0795898,0.0966797,14.3125,1.375,-12,-0.367221,-1.4754,-0.139195
3558,-1,-1,-2,-2,-2,1,0,-1,0.972168,-0.0795898,0.0966797,14.3125,1.375,-12,-0.367221,-1.4754,-0.139195
3558,-2,-1,-2,-1,-1,0,1,0,0.972168,-0.0795898,0.0966797,14.3125,1.375,-12,-0.367221,-1.4754,-0.139195
3581,-1,-2,0,-1,-2,0,0,0,0.988281,-0.0629883,0.0825195,12.9375,2.125,-12.5,-0.325408,-1.47626,-0.176833
3581,-2,-1,-2,-1,0,0,-3,-2,0.988281,-0.0629883,0.0825195,12.9375,2.125,-12.5,-0.325408,-1.47626,-0.176833
3581,0,0,-1,-1,-2,-2,-3,-3,0.988281,-0.0629883,0.0825195,12.9375,2.125,-12.5,-0.325408,-1.47626,-0.176833
3581,-1,-2,-3,-1,-1,0,-2,-1,0.988281,-0.0629883,0.0825195,12.9375,2.125,-12.5,-0.325408,-1.47626,-0.176833
3602,1,-1,-1,-2,0,-1,0,0,0.992188,-0.0361328,0.078125,10.125,3.375,-12.125,-0.27896,-1.47684,-0.220151
3602,-3,-1,-1,0,1,0,1,-1,0.992188,-0.0361328,0.078125,10.125,3.375,-12.125,-0.27896,-1.47684,-0.220151
3603,-1,0,-1,-2,0,-2,-2,-3,0.992188,-0.0361328,0.078125,10.125,3.375,-12.125,-0.27896,-1.47684,-0.220151
3603,0,0,-2,-1,-1,-1,-1,-2,0.992188,-0.0361328,0.078125,10.125,3.375,-12.125,-0.27896,-1.47684,-0.220151
3618,-1,-1,-1,0,-1,-2,-1,-2,0.984863,-0.0263672,0.0664062,7.25,4.9375,-10.6875,-0.236271,-1.47601,-0.260108
3618,2,0,-1,0,0,0,-1,-2,0.984863,-0.0263672,0.0664062,7.25,4.9375,-10.6875,-0.236271,-1.47601,-0.260108
3618,-2,0,-1,0,-1,-1,-3,-1,0.984863,-0.0263672,0.0664062,7.25,4.9375,-10.6875,-0.236271,-1.47601,-0.260108
3618,-1,-1,0,0,-1,-1,-1,1,0.984863,-0.0263672,0.0664062,7.25,4.9375,-10.6875,-0.236271,-1.47601,-0.260108
3641,-2,0,-1,-2,-2,-2,0,0,0.983398,-0.0253906,0.0737305,4.625,6.3125,-8.75,-0.201366,-1.4754,-0.293846
3641,-1,0,0,-3,-2,0,2,0,0.983398,-0.0253906,0.0737305,4.625,6.3125,-8.75,-0.201366,-1.4754,-0.293846
3641,-2,-2,-1,0,0,0,0,-1,0.983398,-0.0253906,0.0737305,4.625,6.3125,-8.75,-0.201366,-1.4754,-0.293846
3641,-1,-3,-3,0,0,0,-3,-1,0.983398,-0.0253906,0.0737305,4.625,6.3125,-8.75,-0.201366,-1.4754,-0.293846
3664,-1,-2,-1,0,0,-1,-1,0,0.974609,-0.0322266,0.0791016,6.0625,8.1875,-6.9375,-0.173694,-1.47281,-0.319249
3664,-1,-2,-1,0,-2,-1,-2,0,0.974609,-0.0322266,0.0791016,6.0625,8.1875,-6.9375,-0.173694,-1.47281,-0.319249
3664,-2,1,-1,0,-1,0,0,1,0.974609,-0.0322266,0.0791016,6.0625,8.1875,-6.9375,-0.173694,-1.47281,-0.319249
3664,-1,0,-2,0,0,-2,0,-2,0.974609,-0.0322266,0.0791016,6.0625,8.1875,-6.9375,-0.173694,-1.47281,-0.319249
3678,-2,-1,-1,0,0,-2,-1,-2,0.973145,-0.0239258,0.0664062,9.75,10.0625,-5.75,-0.147911,-1.47072,-0.342024
3678,-1,0,1,1,0,0,-3,-3,0.973145,-0.0239258,0.0664062,9.75,10.0625,-5.75,-0.147911,-1.47072,-0.342024
3678,0,0,-1,-2,-1,-2,-2,0,0.973145,-0.0239258,0.0664062,9.75,10.0625,-5.75,-0.147911,-1.47072,-0.342024
3678,-2,0,-1,-2,-3,0,0,-1,0.973145,-0.0239258,0.0664062,9.75,10.0625,-5.75,-0.147911,-1.47072,-0.342024
3700,0,-1,-2,-1,-1,1,-1,-2,0.983887,-0.0170898,0.0668945,12.5,12.3125,-4.9375,-0.123719,-1.46828,-0.362371
3700,0,-1,-1,-2,0,-1,0,0,0.983887,-0.0170898,0.0668945,12.5,12.3125,-4.9375,-0.123719,-1.46828,-0.362371
3701,-1,-3,0,-1,-1,0,-2,0,0.983887,-0.0170898,0.0668945,12.5,12.3125,-4.9375,-0.123719,-1.46828,-0.362371
3701,-2,-1,1,-1,-1,-2,0,0,0.983887,-0.0170898,0.0668945,12.5,12.3125,-4.9375,-0.123719,-1.46828,-0.362371
3723,0,-1,-3,-1,-1,0,-1,-2,0.992188,-0.00634766,0.0600586,14.5625,14.8125,-4.5,-0.0986301,-1.46389,-0.382208
3723,-3,-1,-1,0,-1,-1,-1,-1,0.992188,-0.00634766,0.0600586,14.5625,14.8125,-4.5,-0.0986301,-1.46389,-0.382208
3724,0,0,-2,-2,-1,-2,-2,-1,0.992188,-0.00634766,0.0600586,14.5625,14.8125,-4.5,-0.0986301,-1.46389,-0.382208
3724,0,-2,0,0,-1,-2,0,-1,0.992188,-0.00634766,0.0600586,14.5625,14.8125,-4.5,-0.0986301,-1.46389,-0.382208
3740,0,-1,0,-1,-1,0,1,-2,1.00244,0.0102539,0.0556641,14.4375,17.25,-4,-0.0737053,-1.4596,-0.402297
3740,0,0,-1,-4,0,-1,-1,1,1.00244,0.0102539,0.0556641,14.4375,17.25,-4,-0.0737053,-1.4596,-0.402297
3740,-1,-1,-1,-1,0,-1,1,0,1.00244,0.0102539,0.0556641,14.4375,17.25,-4,-0.0737053,-1.4596,-0.402297
3740,1,-1,0,-2,-1,-1,-3,-2,1.00244,0.0102539,0.0556641,14.4375,17.25,-4,-0.0737053,-1.4596,-0.402297
3760,-2,0,0,0,0,0,-2,0,0.998535,0.0317383,0.0493164,11.375,19.875,-3.25,-0.0481746,-1.45418,-0.423771
3760,0,0,-1,0,0,-2,-2,-3,0.998535,0.0317383,0.0493164,11.375,19.875,-3.25,-0.0481746,-1.45418,-0.423771
3761,0,1,-1,-1,-1,1,0,-2,0.998535,0.0317383,0.0493164,11.375,19.875,-3.25,-0.0481746,-1.45418,-0.423771
3761,-1,0,0,-1,-1,0,-1,-1,0.998535,0.0317383,0.0493164,11.375,19.875,-3.25,-0.0481746,-1.45418,-0.423771
3784,0,-1,0,0,1,-1,0,-1,0.990723,0.0400391,0.0541992,8.3125,21.6875,-2.5625,-0.0271617,-1.4483,-0.441869
3784,-1,-1,-3,-1,-1,-1,-1,0,0.990723,0.0400391,0.0541992,8.3125,21.6875,-2.5625,-0.0271617,-1.4483,-0.441869
3784,-2,-2,0,0,-2,-1,-1,0,0.990723,0.0400391,0.0541992,8.3125,21.6875,-2.5625,-0.0271617,-1.4483,-0.441869
3784,-1,-1,-1,0,-2,0,-1,-1,0.990723,0.0400391,0.0541992,8.3125,21.6875,-2.5625,-0.0271617,-1.4483,-0.441869
3798,0,-1,2,-1,-2,0,-3,-1,0.974609,0.0395508,0.0527344,4.3125,23.1875,-1.9375,-0.0118874,-1.4423,-0.455738
3798,-2,-1,0,-2,-3,0,-1,0,0.974609,0.0395508,0.0527344,4.3125,23.1875,-1.9375,-0.0118874,-1.4423,-0.455738
3799,-1,-3,-1,-2,0,-2,-2,-2,0.974609,0.0395508,0.0527344,4.3125,23.1875,-1.9375,-0.0118874,-1.4423,-0.455738
3799,-2,1,-2,0,-1,-2,-2,-2,0.974609,0.0395508,0.0527344,4.3125,23.1875,-1.9375,-0.0118874,-1.4423,-0.455738
3821,-1,0,-1,-3,-1,-1,-2,0,0.965332,0.0371094,0.0546875,2,24,-1.875,0.00123679,-1.43561,-0.468002
3821,-1,-1,-2,0,1,-3,-3,-1,0.965332,0.0371094,0.0546875,2,24,-1.875,0.00123679,-1.43561,-0.468002
3821,-1,0,-2,1,0,-2,-1,-1,0.965332,0.0371094,0.0546875,2,24,-1.875,0.00123679,-1.43561,-0.468002
3821,-1,-1,-1,-3,-1,0,0,0,0.965332,0.0371094,0.0546875,2,24,-1.875,0.00123679,-1.43561,-0.468002
3843,-1,-1,-2,0,-1,-1,0,0,0.950195,0.0478516,0.0615234,3,24,-1.9375,0.0150806,-1.42862,-0.48064
3843,-1,-3,-1,-1,-2,0,-2,-1,0.950195,0.0478516,0.0615234,3,24,-1.9375,0.0150806,-1.42862,-0.48064
3843,-1,-3,-2,-1,-2,-1,0,0,0.950195,0.0478516,0.0615234,3,24,-1.9375,0.0150806,-1.42862,-0.48064
3843,0,1,-2,0,0,-1,-1,-2,0.950195,0.0478516,0.0615234,3,24,-1.9375,0.0150806,-1.42862,-0.48064
3858,-1,0,0,-2,-1,-2,1,-1,0.952637,0.0556641,0.0820312,5.875,23.1875,-2.125,0.0300233,-1.4223,-0.493538
3858,0,0,-1,-1,-2,0,-1,-1,0.952637,0.0556641,0.0820312,5.875,23.1875,-2.125,0.0300233,-1.4223,-0.493538
3858,0,-1,-2,-2,0,-1,-2,1,0.952637,0.0556641,0.0820312,5.875,23.1875,-2.125,0.0300233,-1.4223,-0.493538
3858,-2,-2,-2,-1,-3,-1,0,-1,0.952637,0.0556641,0.0820312,5.875,23.1875,-2.125,0.0300233,-1.4223,-0.493538
3880,-2,0,-1,0,-2,-1,1,0,0.965332,0.0571289,0.0825195,10.9375,20.625,-2.125,0.0453032,-1.4165,-0.504955
3880,-3,1,1,-1,-2,0,0,-2,0.965332,0.0571289,0.0825195,10.9375,20.625,-2.125,0.0453032,-1.4165,-0.504955
3881,0,-1,-3,0,-1,0,1,-3,0.965332,0.0571289,0.0825195,10.9375,20.625,-2.125,0.0453032,-1.4165,-0.504955
3881,0,1,4,0,0,0,-1,0,0.965332,0.0571289,0.0825195,10.9375,20.625,-2.125,0.0453032,-1.4165,-0.504955
3902,-2,-3,-5,-1,-1,1,1,1,0.963379,0.0712891,0.0957031,14.5625,17.4375,-2,0.0631159,-1.41195,-0.517638
3902,-1,-1,0,-1,-1,-1,-1,-1,0.963379,0.0712891,0.0957031,14.5625,17.4375,-2,0.0631159,-1.41195,-0.517638
3904,-1,-1,-1,-1,-2,0,1,0,0.963379,0.0712891,0.0957031,14.5625,17.4375,-2,0.0631159,-1.41195,-0.517638
3904,-2,-2,-1,-1,0,0,-2,-1,0.963379,0.0712891,0.0957031,14.5625,17.4375,-2,0.0631159,-1.41195,-0.517638
3917,-1,-2,-2,0,0,0,-1,0,0.959473,0.0820312,0.100098,17.9375,13.1875,-1.6875,0.08224,-1.40839,-0.530372
3917,0,-2,-3,-1,-1,-2,0,-1,0.959473,0.0820312,0.100098,17.9375,13.1875,-1.6875,0.08224,-1.40839,-0.530372
3926,-1,0,0,1,-1,-2,0,-3,0.959473,0.0820312,0.100098,17.9375,13.1875,-1.6875,0.08224,-1.40839,-0.530372
3926,0,0,-2,0,1,-1,0,-1,0.959473,0.0820312,0.100098,17.9375,13.1875,-1.6875,0.08224,-1.40839,-0.530372
3941,-1,1,1,-1,0,-2,-2,-1,0.956055,0.097168,0.0917969,18.5625,9.1875,-1.375,0.102348,-1.40643,-0.543831
3941,-2,1,-2,0,-1,-1,-1,-2,0.956055,0.097168,0.0917969,18.5625,9.1875,-1.375,0.102348,-1.40643,-0.543831
3941,1,1,0,-2,-1,-1,-2,0,0.956055,0.097168,0.0917969,18.5625,9.1875,-1.375,0.102348,-1.40643,-0.543831
3941,0,-3,-1,-1,-2,-2,-1,0,0.956055,0.097168,0.0917969,18.5625,9.1875,-1.375,0.102348,-1.40643,-0.543831
3963,-1,-2,1,-1,-2,0,-3,-2,0.936523,0.104492,0.0957031,20,5.625,-1.5,0.12477,-1.4055,-0.559034
3963,-1,0,-1,-1,-1,1,-1,-2,0.936523,0.104492,0.0957031,20,5.625,-1.5,0.12477,-1.4055,-0.559034
3964,0,-3,-1,-2,-3,-2,-1,-1,0.936523,0.104492,0.0957031,20,5.625,-1.5,0.12477,-1.4055,-0.559034
3964,-2,-1,-1,2,1,-1,-2,-1,0.936523,0.104492,0.0957031,20,5.625,-1.5,0.12477,-1.4055,-0.559034
3977,0,1,0,-2,-2,-1,0,0,0.916016,0.10791,0.100586,22.6875,2.0625,-1.25,0.148521,-1.40561,-0.574721
3977,-1,-1,-1,-1,-1,-1,-1,-2,0.916016,0.10791,0.100586,22.6875,2.0625,-1.25,0.148521,-1.40561,-0.574721
3985,-1,-4,-3,0,-1,-1,0,0,0.916016,0.10791,0.100586,22.6875,2.0625,-1.25,0.148521,-1.40561,-0.574721
3985,-2,-2,-2,0,-2,0,1,1,0.916016,0.10791,0.100586,22.6875,2.0625,-1.25,0.148521,-1.40561,-0.574721
4000,-3,-1,-1,0,-1,-2,0,-1,0.899414,0.111328,0.111816,28.625,-2.0625,-0.8125,0.173873,-1.40643,-0.589733
4000,-1,1,3,0,-1,-1,-1,-2,0.899414,0.111328,0.111816,28.625,-2.0625,-0.8125,0.173873,-1.40643,-0.589733
4001,-2,-4,-5,0,-1,-2,-1,-2,0.899414,0.111328,0.111816,28.625,-2.0625,-0.8125,0.173873,-1.40643,-0.589733
4001,-1,-2,-2,-2,0,-3,-3,-2,0.899414,0.111328,0.111816,28.625,-2.0625,-0.8125,0.173873,-1.40643,-0.589733
4023,1,-2,1,-1,1,0,0,0,0.908691,0.114746,0.124512,34.375,-6.875,-1,0.204317,-1.40951,-0.608379
4023,-1,-2,-2,-2,1,-1,1,2,0.908691,0.114746,0.124512,34.375,-6.875,-1,0.204317,-1.40951,-0.608379
4024,-1,1,3,1,-4,0,-2,-3,0.908691,0.114746,0.124512,34.375,-6.875,-1,0.204317,-1.40951,-0.608379
4024,0,-3,-1,-2,0,0,-1,-1,0.908691,0.114746,0.124512,34.375,-6.875,-1,0.204317,-1.40951,-0.608379
4038,-2,-2,-3,-2,-1,0,-1,-2,0.923828,0.114258,0.123535,35.8125,-11.25,-1.3125,0.237672,-1.41319,-0.629101
4038,-1,-4,-4,-1,-2,0,0,-1,0.923828,0.114258,0.123535,35.8125,-11.25,-1.3125,0.237672,-1.41319,-0.629101
4046,1,4,0,0,1,-1,-2,-1,0.923828,0.114258,0.123535,35.8125,-11.25,-1.3125,0.237672,-1.41319,-0.629101
4046,1,4,1,-1,-2,0,-2,0,0.923828,0.114258,0.123535,35.8125,-11.25,-1.3125,0.237672,-1.41319,-0.629101
4061,1,3,0,-1,-2,-1,-1,-1,0.933594,0.120117,0.119141,34.375,-15.375,-2.25,0.276343,-1.41811,-0.655689
4061,0,-3,-4,-1,0,0,-1,-1,0.933594,0.120117,0.119141,34.375,-15.375,-2.25,0.276343,-1.41811,-0.655689
4061,-4,-1,-2,-2,0,-1,-1,0,0.933594,0.120117,0.119141,34.375,-15.375,-2.25,0.276343,-1.41811,-0.655689
4061,-2,-2,0,-1,-3,-1,-1,-3,0.933594,0.120117,0.119141,34.375,-15.375,-2.25,0.276343,-1.41811,-0.655689
4083,-1,4,3,-1,-1,-1,-2,-1,0.914062,0.114746,0.097168,29.9375,-18.1875,-2.75,0.318122,-1.42398,-0.687118
4083,-1,-2,0,0,-2,0,-2,0,0.914062,0.114746,0.097168,29.9375,-18.1875,-2.75,0.318122,-1.42398,-0.687118
4083,0,0,2,-1,-2,0,-1,-1,0.914062,0.114746,0.097168,29.9375,-18.1875,-2.75,0.318122,-1.42398,-0.687118
4083,-2,-1,1,-1,0,-1,0,0,0.914062,0.114746,0.097168,29.9375,-18.1875,-2.75,0.318122,-1.42398,-0.687118
4097,-1,-8,-6,-4,0,-1,-1,-1,0.871094,0.127441,0.0917969,26.875,-18.6875,-2.8125,0.363218,-1.42943,-0.722762
4097,-1,-2,0,-2,0,-1,0,1,0.871094,0.127441,0.0917969,26.875,-18.6875,-2.8125,0.363218,-1.42943,-0.722762
4105,-1,1,3,-1,1,0,-2,-2,0.871094,0.127441,0.0917969,26.875,-18.6875,-2.8125,0.363218,-1.42943,-0.722762
4105,0,1,0,0,0,-2,-2,-2,0.871094,0.127441,0.0917969,26.875,-18.6875,-2.8125,0.363218,-1.42943,-0.722762
4120,-1,0,-2,1,-2,-1,-1,-1,0.852051,0.116699,0.102539,31.75,-19.9375,-3.3125,0.412872,-1.43511,-0.761513
4120,1,-2,-5,-1,-1,-1,0,-1,0.852051,0.116699,0.102539,31.75,-19.9375,-3.3125,0.412872,-1.43511,-0.761513
4121,0,-1,-1,1,0,-1,1,0,0.852051,0.116699,0.102539,31.75,-19.9375,-3.3125,0.412872,-1.43511,-0.761513
4121,1,-2,3,0,-1,0,1,-1,0.852051,0.116699,0.102539,31.75,-19.9375,-3.3125,0.412872,-1.43511,-0.761513
4143,1,-8,-5,-1,-1,-3,0,0,0.876953,0.102539,0.117188,33.625,-21.875,-5.1875,0.468326,-1.43997,-0.80539
4143,0,7,2,-1,-2,-3,-2,-1,0.876953,0.102539,0.117188,33.625,-21.875,-5.1875,0.468326,-1.43997,-0.80539
4144,0,3,1,-1,-3,-1,1,0,0.876953,0.102539,0.117188,33.625,-21.875,-5.1875,0.468326,-1.43997,-0.80539
4144,2,5,-2,-1,0,0,-1,0,0.876953,0.102539,0.117188,33.625,-21.875,-5.1875,0.468326,-1.43997,-0.80539
4157,-3,0,0,0,-1,0,-1,-2,0.885742,0.102539,0.0961914,28.5625,-22.4375,-5.9375,0.528975,-1.44576,-0.856541
4157,-2,-5,-1,-1,0,-1,-1,-1,0.885742,0.102539,0.0961914,28.5625,-22.4375,-5.9375,0.528975,-1.44576,-0.856541
4166,-1,-3,-3,-1,2,-2,-2,-1,0.885742,0.102539,0.0961914,28.5625,-22.4375,-5.9375,0.528975,-1.44576,-0.856541
4166,2,1,1,-1,-2,-2,0,0,0.885742,0.102539,0.0961914,28.5625,-22.4375,-5.9375,0.528975,-1.44576,-0.856541
4180,0,2,1,0,0,-1,-1,-2,0.882812,0.132324,0.0952148,22.75,-22.375,-4.9375,0.593494,-1.44988,-0.913201
4180,1,1,-1,0,-1,-2,1,0,0.882812,0.132324,0.0952148,22.75,-22.375,-4.9375,0.593494,-1.44988,-0.913201
4180,-4,-3,-1,-1,-2,0,0,-1,0.882812,0.132324,0.0952148,22.75,-22.375,-4.9375,0.593494,-1.44988,-0.913201
4180,-2,-7,-7,-2,-2,0,1,-1,0.882812,0.132324,0.0952148,22.75,-22.375,-4.9375,0.593494,-1.44988,-0.913201
4203,0,0,2,-1,-1,-1,0,1,0.912109,0.131348,0.123047,16.3125,-22.8125,-4.1875,0.654966,-1.45417,-0.969369
4203,0,2,1,-2,-1,-1,0,-1,0.912109,0.131348,0.123047,16.3125,-22.8125,-4.1875,0.654966,-1.45417,-0.969369
4203,-1,-5,-2,-1,-1,-1,-1,-1,0.912109,0.131348,0.123047,16.3125,-22.8125,-4.1875,0.654966,-1.45417,-0.969369
4203,0,-3,-4,-2,-2,0,-3,-1,0.912109,0.131348,0.123047,16.3125,-22.8125,-4.1875,0.654966,-1.45417,-0.969369
4218,-1,1,3,0,0,-1,-2,1,0.938477,0.108398,0.138184,7.1875,-23.75,-3.0625,0.708793,-1.45859,-1.02113
4218,-1,4,-2,-1,-1,0,-1,-2,0.938477,0.108398,0.138184,7.1875,-23.75,-3.0625,0.708793,-1.45859,-1.02113
4225,3,4,-2,-3,-1,-3,1,-1,0.938477,0.108398,0.138184,7.1875,-23.75,-3.0625,0.708793,-1.45859,-1.02113
4225,-4,-5,9,0,0,-1,0,-2,0.938477,0.108398,0.138184,7.1875,-23.75,-3.0625,0.708793,-1.45859,-1.02113
4240,0,3,-12,1,-1,-2,-1,-3,0.938965,0.0898438,0.129395,4.5625,-24.9375,-2.5,0.762128,-1.46225,-1.07304
4240,-1,-4,8,0,-2,0,-1,-1,0.938965,0.0898438,0.129395,4.5625,-24.9375,-2.5,0.762128,-1.46225,-1.07304
4247,-2,-3,-9,-3,-3,0,-1,0,0.938965,0.0898438,0.129395,4.5625,-24.9375,-2.5,0.762128,-1.46225,-1.07304
4247,0,0,-4,-2,0,-2,-1,0,0.938965,0.0898438,0.129395,4.5625,-24.9375,-2.5,0.762128,-1.46225,-1.07304
4263,2,0,6,-1,2,-2,-1,2,0.916016,0.0981445,0.109863,6.75,-25.25,-2.125,0.825837,-1.46647,-1.13478
4263,0,0,13,-1,-1,-1,0,1,0.916016,0.0981445,0.109863,6.75,-25.25,-2.125,0.825837,-1.46647,-1.13478
4263,2,-4,-14,1,-1,-1,-1,-1,0.916016,0.0981445,0.109863,6.75,-25.25,-2.125,0.825837,-1.46647,-1.13478
4263,-2,-3,6,-1,-2,0,-1,-1,0.916016,0.0981445,0.109863,6.75,-25.25,-2.125,0.825837,-1.46647,-1.13478
4286,-2,-4,-16,-1,-4,-2,-2,-3,0.887207,0.112793,0.0996094,5.5625,-24.5625,-2.3125,0.895602,-1.47091,-1.20307
4286,-2,5,-1,-1,-2,0,-2,-2,0.887207,0.112793,0.0996094,5.5625,-24.5625,-2.3125,0.895602,-1.47091,-1.20307
4286,-1,4,8,0,-2,2,1,0,0.887207,0.112793,0.0996094,5.5625,-24.5625,-2.3125,0.895602,-1.47091,-1.20307
4286,-2,4,0,-1,0,-1,-2,-1,0.887207,0.112793,0.0996094,5.5625,-24.5625,-2.3125,0.895602,-1.47091,-1.20307
4300,-4,-10,-2,0,-2,0,-1,-1,0.86084,0.104004,0.0976562,3.375,-22.625,-2.625,0.960674,-1.47271,-1.26724
4300,0,-5,-4,-1,-1,-3,0,-1,0.86084,0.104004,0.0976562,3.375,-22.625,-2.625,0.960674,-1.47271,-1.26724
4301,-1,1,7,-1,-1,0,-1,0,0.86084,0.104004,0.0976562,3.375,-22.625,-2.625,0.960674,-1.47271,-1.26724
4301,-1,1,-5,2,1,0,0,-2,0.86084,0.104004,0.0976562,3.375,-22.625,-2.625,0.960674,-1.47271,-1.26724
4323,0,6,13,-1,-1,1,-2,-2,0.82666,0.081543,0.0717773,7.875,-19.375,-3.9375,1.02431,-1.4744,-1.32849
4323,-1,-14,-21,-3,1,-2,-1,0,0.82666,0.081543,0.0717773,7.875,-19.375,-3.9375,1.02431,-1.4744,-1.32849
4323,-3,-7,6,1,-2,-1,-3,0,0.82666,0.081543,0.0717773,7.875,-19.375,-3.9375,1.02431,-1.4744,-1.32849
4323,-2,2,-9,-1,-2,1,0,1,0.82666,0.081543,0.0717773,7.875,-19.375,-3.9375,1.02431,-1.4744,-1.32849
4344,-1,11,6,-2,-2,-1,1,0,0.782715,0.0849609,0.0400391,12,-14.5625,-4.5625,1.08434,-1.47559,-1.38455
4344,-4,-6,-11,-2,-1,-3,0,-2,0.782715,0.0849609,0.0400391,12,-14.5625,-4.5625,1.08434,-1.47559,-1.38455
4353,1,1,-8,-2,0,-1,-3,-1,0.782715,0.0849609,0.0400391,12,-14.5625,-4.5625,1.08434,-1.47559,-1.38455
4353,2,-3,6,0,-1,-1,1,0,0.782715,0.0849609,0.0400391,12,-14.5625,-4.5625,1.08434,-1.47559,-1.38455
4360,0,-2,-5,-2,0,0,-2,0,0.760742,0.0981445,0.0224609,15.0625,-8.75,-3.375,1.12933,-1.4757,-1.4245
4360,-1,-1,4,1,1,0,0,-1,0.760742,0.0981445,0.0224609,15.0625,-8.75,-3.375,1.12933,-1.4757,-1.4245
4361,-3,6,-2,-2,-1,0,1,-1,0.760742,0.0981445,0.0224609,15.0625,-8.75,-3.375,1.12933,-1.4757,-1.4245
4361,-1,-5,-9,-4,-3,-3,-1,-1,0.760742,0.0981445,0.0224609,15.0625,-8.75,-3.375,1.12933,-1.4757,-1.4245
4383,1,-1,5,0,0,-2,0,0,0.745605,0.117188,-0.00488281,16.875,-4.75,0.125,1.16265,-1.47478,-1.45182
4383,-3,-6,-3,0,-1,1,-2,-2,0.745605,0.117188,-0.00488281,16.875,-4.75,0.125,1.16265,-1.47478,-1.45182
4383,-4,-18,0,0,1,0,0,-1,0.745605,0.117188,-0.00488281,16.875,-4.75,0.125,1.16265,-1.47478,-1.45182
4383,0,8,-1,-1,-1,1,-2,0,0.745605,0.117188,-0.00488281,16.875,-4.75,0.125,1.16265,-1.47478,-1.45182
4406,-1,-9,-6,-3,-3,-1,-1,0,0.737793,0.124512,0.00195312,14.8125,0.375,3.3125,1.17439,-1.47502,-1.45835
4406,0,1,8,-3,-1,-1,-1,0,0.737793,0.124512,0.00195312,14.8125,0.375,3.3125,1.17439,-1.47502,-1.45835
4407,-1,1,-7,2,-1,2,1,1,0.737793,0.124512,0.00195312,14.8125,0.375,3.3125,1.17439,-1.47502,-1.45835
4407,-2,1,2,-4,-1,-1,-2,0,0.737793,0.124512,0.00195312,14.8125,0.375,3.3125,1.17439,-1.47502,-1.45835
4420,2,-1,-3,-1,-3,-4,0,0,0.814941,0.0717773,0.0737305,17.0625,3,6.75,1.15038,-1.47681,-1.42834
4420,1,6,-2,3,2,1,0,0,0.814941,0.0717773,0.0737305,17.0625,3,6.75,1.15038,-1.47681,-1.42834
4421,-1,6,17,-2,-2,-1,-1,-1,0.814941,0.0717773,0.0737305,17.0625,3,6.75,1.15038,-1.47681,-1.42834
4421,-2,-1,-4,0,1,3,-1,0,0.814941,0.0717773,0.0737305,17.0625,3,6.75,1.15038,-1.47681,-1.42834
4443,-3,-12,-15,-1,-1,0,0,0,0.930664,0.00537109,0.134766,23.1875,-3.6875,11.4375,1.1199,-1.48054,-1.38982
4443,-2,7,1,-3,-4,-3,0,-1,0.930664,0.00537109,0.134766,23.1875,-3.6875,11.4375,1.1199,-1.48054,-1.38982
4443,-2,-5,-6,-1,-1,-2,0,-2,0.930664,0.00537109,0.134766,23.1875,-3.6875,11.4375,1.1199,-1.48054,-1.38982
4443,2,4,7,2,-1,-1,0,-1,0.930664,0.00537109,0.134766,23.1875,-3.6875,11.4375,1.1199,-1.48054,-1.38982
4466,-6,-12,5,-3,0,-1,-2,-4,0.974609,-0.0268555,0.152832,22,-13.375,12,1.11373,-1.48846,-1.37629
4466,0,-2,-9,-2,-3,-2,-3,-1,0.974609,-0.0268555,0.152832,22,-13.375,12,1.11373,-1.48846,-1.37629
4467,2,14,-11,-1,1,-1,-1,-1,0.974609,-0.0268555,0.152832,22,-13.375,12,1.11373,-1.48846,-1.37629
4467,-9,-42,-11,-2,-1,-2,-2,-3,0.974609,-0.0268555,0.152832,22,-13.375,12,1.11373,-1.48846,-1.37629
4480,-1,2,6,-1,-1,0,1,0,0.95459,-0.0224609,0.125977,19.75,-20.5,11.1875,1.14168,-1.49581,-1.39764
4480,1,5,-11,-2,-1,0,0,-1,0.95459,-0.0224609,0.125977,19.75,-20.5,11.1875,1.14168,-1.49581,-1.39764
4480,2,25,2,2,-1,-1,-2,1,0.95459,-0.0224609,0.125977,19.75,-20.5,11.1875,1.14168,-1.49581,-1.39764
4480,2,-2,5,1,0,0,1,2,0.95459,-0.0224609,0.125977,19.75,-20.5,11.1875,1.14168,-1.49581,-1.39764
4503,-2,10,-5,-1,-2,-2,-3,-1,0.916992,-0.0200195,0.0429688,17.75,-21.3125,9.25,1.20919,-1.50356,-1.45922
4503,2,-10,9,-1,-1,1,-1,-1,0.916992,-0.0200195,0.0429688,17.75,-21.3125,9.25,1.20919,-1.50356,-1.45922
4503,-2,-8,-3,-4,-1,0,-2,-1,0.916992,-0.0200195,0.0429688,17.75,-21.3125,9.25,1.20919,-1.50356,-1.45922
4503,4,27,6,2,2,-1,-1,-1,0.916992,-0.0200195,0.0429688,17.75,-21.3125,9.25,1.20919,-1.50356,-1.45922
4526,-3,-1,-9,-1,0,-2,-2,-4,0.820312,0.0229492,-0.0136719,14.125,-17.75,7.375,1.29717,-1.50771,-1.54234
4526,-1,12,10,-1,-2,-3,-1,-1,0.820312,0.0229492,-0.0136719,14.125,-17.75,7.375,1.29717,-1.50771,-1.54234
4527,5,12,-9,-1,-1,-2,1,1,0.820312,0.0229492,-0.0136719,14.125,-17.75,7.375,1.29717,-1.50771,-1.54234
4527,-5,-35,-5,-3,0,-2,0,-2,0.820312,0.0229492,-0.0136719,14.125,-17.75,7.375,1.29717,-1.50771,-1.54234
4540,5,-20,6,-1,-2,1,1,0,0.742676,0.0444336,-0.0415039,12.625,-13.1875,8.5,1.38409,-1.51249,-1.62491
4540,-10,-21,12,0,-1,-2,-4,-4,0.742676,0.0444336,-0.0415039,12.625,-13.1875,8.5,1.38409,-1.51249,-1.62491
4548,-4,-36,-13,-2,-1,1,1,-1,0.742676,0.0444336,-0.0415039,12.625,-13.1875,8.5,1.38409,-1.51249,-1.62491
4548,2,26,6,-3,1,0,-1,-1,0.742676,0.0444336,-0.0415039,12.625,-13.1875,8.5,1.38409,-1.51249,-1.62491
4563,3,34,3,1,-1,0,0,-2,0.739258,0.00732422,-0.0527344,10,-8.8125,7.0625,1.4571,-1.51642,-1.6945
4563,1,-7,-8,-1,0,-1,-1,0,0.739258,0.00732422,-0.0527344,10,-8.8125,7.0625,1.4571,-1.51642,-1.6945
4563,-1,4,10,0,0,-2,-1,1,0.739258,0.00732422,-0.0527344,10,-8.8125,7.0625,1.4571,-1.51642,-1.6945
4563,-4,-4,2,2,-2,-2,0,-2,0.739258,0.00732422,-0.0527344,10,-8.8125,7.0625,1.4571,-1.51642,-1.6945
4587,3,6,0,0,2,1,1,2,0.793457,0.0078125,-0.0263672,9.75,-4.125,2.75,1.49618,-1.51785,-1.73011
4587,0,11,-3,0,-1,-1,-1,-2,0.793457,0.0078125,-0.0263672,9.75,-4.125,2.75,1.49618,-1.51785,-1.73011
4588,-5,6,14,-3,-3,-2,-2,-2,0.793457,0.0078125,-0.0263672,9.75,-4.125,2.75,1.49618,-1.51785,-1.73011
4588,4,-5,-19,-1,-1,-1,1,1,0.793457,0.0078125,-0.0263672,9.75,-4.125,2.75,1.49618,-1.51785,-1.73011
4601,-2,3,13,1,-1,-3,-2,-2,0.857422,0.00292969,-0.00292969,6.3125,0.0625,-0.4375,1.49948,-1.51859,-1.73133
4601,5,13,-6,2,0,2,3,4,0.857422,0.00292969,-0.00292969,6.3125,0.0625,-0.4375,1.49948,-1.51859,-1.73133
4601,-8,-15,-13,-4,-2,-4,-3,-4,0.857422,0.00292969,-0.00292969,6.3125,0.0625,-0.4375,1.49948,-1.51859,-1.73133
4601,-4,0,9,-2,-2,-2,-2,-3,0.857422,0.00292969,-0.00292969,6.3125,0.0625,-0.4375,1.49948,-1.51859,-1.73133
4624,1,29,-2,1,1,2,1,1,0.885254,0.0161133,-0.0136719,-1.4375,4.1875,-0.1875,1.47667,-1.51965,-1.70886
4624,-1,-24,-14,-5,-2,-1,-1,-3,0.885254,0.0161133,-0.0136719,-1.4375,4.1875,-0.1875,1.47667,-1.51965,-1.70886
4624,2,14,4,2,0,-1,-1,-1,0.885254,0.0161133,-0.0136719,-1.4375,4.1875,-0.1875,1.47667,-1.51965,-1.70886
4624,-3,-1,4,0,-1,1,0,0,0.885254,0.0161133,-0.0136719,-1.4375,4.1875,-0.1875,1.47667,-1.51965,-1.70886
4646,-1,3,7,-2,-1,-2,-1,-1,0.907227,0.0478516,-0.0634766,-12.125,6.9375,1.625,1.45692,-1.51932,-1.69329
4646,2,9,-7,-1,-1,-3,0,0,0.907227,0.0478516,-0.0634766,-12.125,6.9375,1.625,1.45692,-1.51932,-1.69329
4647,-2,-16,1,1,1,0,1,-1,0.907227,0.0478516,-0.0634766,-12.125,6.9375,1.625,1.45692,-1.51932,-1.69329
4647,3,61,-9,-2,-3,-2,0,-1,0.907227,0.0478516,-0.0634766,-12.125,6.9375,1.625,1.45692,-1.51932,-1.69329
4660,0,-26,-13,-2,-2,1,-1,-1,0.943359,0.0844727,-0.0688477,-27.6875,11.25,2.625,1.40691,-1.51951,-1.65275
4660,-7,30,10,1,0,1,-2,-3,0.943359,0.0844727,-0.0688477,-27.6875,11.25,2.625,1.40691,-1.51951,-1.65275
4661,0,-26,0,-1,-3,-2,-3,-1,0.943359,0.0844727,-0.0688477,-27.6875,11.25,2.625,1.40691,-1.51951,-1.65275
4661,4,26,1,0,1,-1,0,0,0.943359,0.0844727,-0.0688477,-27.6875,11.25,2.625,1.40691,-1.51951,-1.65275
4683,-2,16,10,-1,-3,-4,-2,-2,0.953613,0.0205078,-0.0273438,-34.9375,13.5,4.375,1.31474,-1.52117,-1.57267
4683,0,-42,0,1,-1,-1,0,3,0.953613,0.0205078,-0.0273438,-34.9375,13.5,4.375,1.31474,-1.52117,-1.57267
4691,3,43,13,-2,0,0,2,2,0.953613,0.0205078,-0.0273438,-34.9375,13.5,4.375,1.31474,-1.52117,-1.57267
4691,-1,-4,-21,-2,-2,-2,-1,-1,0.953613,0.0205078,-0.0273438,-34.9375,13.5,4.375,1.31474,-1.52117,-1.57267
4707,-1,-50,-9,-2,1,2,-1,2,1.00928,-0.0239258,-0.0219727,-30.9375,13.875,3.75,1.20544,-1.52229,-1.47396
4707,-10,-24,-4,-3,-1,-10,-3,-5,1.00928,-0.0239258,-0.0219727,-30.9375,13.875,3.75,1.20544,-1.52229,-1.47396
4707,4,-4,5,1,-6,-5,-1,-1,1.00928,-0.0239258,-0.0219727,-30.9375,13.875,3.75,1.20544,-1.52229,-1.47396
4707,-4,-17,10,2,5,22,2,2,1.00928,-0.0239258,-0.0219727,-30.9375,13.875,3.75,1.20544,-1.52229,-1.47396
4720,1,24,-1,-2,5,-7,0,0,1.06738,-0.034668,-0.0332031,-19.25,16.9375,1.125,1.09123,-1.52291,-1.36629
4720,2,-6,-7,-4,-7,2,-1,-1,1.06738,-0.034668,-0.0332031,-19.25,16.9375,1.125,1.09123,-1.52291,-1.36629
4728,-9,-58,0,1,-1,16,3,2,1.06738,-0.034668,-0.0332031,-19.25,16.9375,1.125,1.09123,-1.52291,-1.36629
4728,-1,5,-11,-4,-12,-11,-4,-2,1.06738,-0.034668,-0.0332031,-19.25,16.9375,1.125,1.09123,-1.52291,-1.36629
4743,-8,-29,5,0,-8,5,-1,0,1.12207,0.0200195,-0.0253906,-12.1875,17.9375,1.125,0.98948,-1.52156,-1.26876
4743,1,90,2,-1,6,-5,-2,-3,1.12207,0.0200195,-0.0253906,-12.1875,17.9375,1.125,0.98948,-1.52156,-1.26876
4743,0,5,-7,-5,0,-9,-5,-4,1.12207,0.0200195,-0.0253906,-12.1875,17.9375,1.125,0.98948,-1.52156,-1.26876
4743,-6,-6,-4,-1,-2,1,0,-4,1.12207,0.0200195,-0.0253906,-12.1875,17.9375,1.125,0.98948,-1.52156,-1.26876
4766,-5,-39,-2,1,7,2,5,2,1.17871,0.0532227,-0.0229492,-9.125,16.375,1.1875,0.913436,-1.51821,-1.19545
4766,6,36,9,-2,-4,-3,1,2,1.17871,0.0532227,-0.0229492,-9.125,16.375,1.1875,0.913436,-1.51821,-1.19545
4766,0,-31,-30,-3,-1,-9,-1,-1,1.17871,0.0532227,-0.0229492,-9.125,16.375,1.1875,0.913436,-1.51821,-1.19545
4766,6,72,26,4,6,5,3,-2,1.17871,0.0532227,-0.0229492,-9.125,16.375,1.1875,0.913436,-1.51821,-1.19545
4781,-4,6,-17,-4,-6,-8,-5,1,1.18506,0.0849609,-0.0322266,-20.625,16.875,3,0.846615,-1.51622,-1.13567
4781,-1,-14,9,2,5,8,0,-8,1.18506,0.0849609,-0.0322266,-20.625,16.875,3,0.846615,-1.51622,-1.13567
4788,5,63,20,1,23,-12,-3,2,1.18506,0.0849609,-0.0322266,-20.625,16.875,3,0.846615,-1.51622,-1.13567
4788,-6,-91,-27,-7,-5,16,-3,-2,1.18506,0.0849609,-0.0322266,-20.625,16.875,3,0.846615,-1.51622,-1.13567
4803,0,-11,-1,-1,-19,-17,1,-2,1.17725,0.0737305,-0.0419922,-25.3125,20.3125,6.5625,0.75395,-1.51431,-1.05161
4803,-4,3,4,-1,-19,16,-4,-1,1.17725,0.0737305,-0.0419922,-25.3125,20.3125,6.5625,0.75395,-1.51431,-1.05161
4804,3,-1,-3,-1,-8,18,2,1,1.17725,0.0737305,-0.0419922,-25.3125,20.3125,6.5625,0.75395,-1.51431,-1.05161
4804,-1,-24,4,0,6,-12,-1,0,1.17725,0.0737305,-0.0419922,-25.3125,20.3125,6.5625,0.75395,-1.51431,-1.05161
4826,-3,8,-2,0,7,6,-4,-3,1.16504,0.0649414,-0.065918,-24.4375,23.375,9.1875,0.651196,-1.51234,-0.957224
4826,-1,-14,-13,-3,2,-16,-3,1,1.16504,0.0649414,-0.065918,-24.4375,23.375,9.1875,0.651196,-1.51234,-0.957224
4827,1,-15,4,2,-1,-14,-3,-2,1.16504,0.0649414,-0.065918,-24.4375,23.375,9.1875,0.651196,-1.51234,-0.957224
4827,4,18,5,-4,-4,-5,-1,3,1.16504,0.0649414,-0.065918,-24.4375,23.375,9.1875,0.651196,-1.51234,-0.957224
4841,-6,-18,-10,-3,0,0,-3,-4,1.15527,0.0830078,-0.0283203,-27.1875,21.25,7.375,0.572329,-1.50867,-0.887575
4841,-2,-22,1,3,5,-4,5,2,1.15527,0.0830078,-0.0283203,-27.1875,21.25,7.375,0.572329,-1.50867,-0.887575
4841,-3,-41,-7,-3,-5,4,-2,-3,1.15527,0.0830078,-0.0283203,-27.1875,21.25,7.375,0.572329,-1.50867,-0.887575
4841,-1,91,1,0,-5,-6,-3,1,1.15527,0.0830078,-0.0283203,-27.1875,21.25,7.375,0.572329,-1.50867,-0.887575
4863,7,52,20,2,2,1,0,2,1.13232,0.090332,-0.0380859,-32.4375,19.875,9.5625,0.498375,-1.50645,-0.824791
4863,-2,-43,-2,-2,-2,-2,-5,-2,1.13232,0.090332,-0.0380859,-32.4375,19.875,9.5625,0.498375,-1.50645,-0.824791
4863,-1,11,-2,-2,-2,6,2,0,1.13232,0.090332,-0.0380859,-32.4375,19.875,9.5625,0.498375,-1.50645,-0.824791
4863,1,-30,6,2,-3,-8,-2,0,1.13232,0.090332,-0.0380859,-32.4375,19.875,9.5625,0.498375,-1.50645,-0.824791
4886,6,9,-54,-17,-4,0,-1,1,1.16553,0.0620117,-0.0136719,-30.3125,20.25,10.875,0.412996,-1.50305,-0.749603
4886,1,19,22,26,8,5,2,2,1.16553,0.0620117,-0.0136719,-30.3125,20.25,10.875,0.412996,-1.50305,-0.749603
4887,-4,-15,-14,-4,-5,-2,1,-2,1.16553,0.0620117,-0.0136719,-30.3125,20.25,10.875,0.412996,-1.50305,-0.749603
4887,2,-21,17,0,-2,-5,1,2,1.16553,0.0620117,-0.0136719,-30.3125,20.25,10.875,0.412996,-1.50305,-0.749603
4909,-5,6,20,2,-1,1,-4,-4,1.18066,0.0141602,0.0200195,-24.9375,19.875,12.5,0.312792,-1.4995,-0.657813
4909,6,-11,1,-18,-5,0,-1,2,1.18066,0.0141602,0.0200195,-24.9375,19.875,12.5,0.312792,-1.4995,-0.657813
4909,-2,12,-25,0,-4,-3,0,0,1.18066,0.0141602,0.0200195,-24.9375,19.875,12.5,0.312792,-1.4995,-0.657813
4909,1,-21,0,12,7,2,3,15,1.18066,0.0141602,0.0200195,-24.9375,19.875,12.5,0.312792,-1.4995,-0.657813
4922,1,-4,-7,3,-1,3,3,3,1.21387,-0.0102539,0.015625,-9.1875,15.25,11.125,0.235467,-1.49714,-0.583452
4922,-10,-6,3,-3,-1,-4,-3,-17,1.21387,-0.0102539,0.015625,-9.1875,15.25,11.125,0.235467,-1.49714,-0.583452
4930,4,14,26,-3,-9,-7,-6,-15,1.21387,-0.0102539,0.015625,-9.1875,15.25,11.125,0.235467,-1.49714,-0.583452
4930,0,-11,-15,-13,-1,-2,-2,9,1.21387,-0.0102539,0.015625,-9.1875,15.25,11.125,0.235467,-1.49714,-0.583452
4946,3,-7,4,4,1,-1,-2,8,1.21094,0.0273438,-0.0493164,-14,12.25,7.875,0.194465,-1.49668,-0.547232
4946,0,-4,25,0,4,5,10,12,1.21094,0.0273438,-0.0493164,-14,12.25,7.875,0.194465,-1.49668,-0.547232
4947,8,37,-17,3,3,5,4,3,1.21094,0.0273438,-0.0493164,-14,12.25,7.875,0.194465,-1.49668,-0.547232
4947,-1,-89,-11,-8,-9,-13,-14,-21,1.21094,0.0273438,-0.0493164,-14,12.25,7.875,0.194465,-1.49668,-0.547232
4969,-26,8,6,-1,10,-6,-1,33,1.19531,0.00830078,-0.0478516,-30.375,14.4375,8.875,0.136799,-1.49536,-0.499879
4969,-10,4,-18,-2,-11,-6,-4,-24,1.19531,0.00830078,-0.0478516,-30.375,14.4375,8.875,0.136799,-1.49536,-0.499879
4969,-18,17,8,-2,-2,10,-1,-9,1.19531,0.00830078,-0.0478516,-30.375,14.4375,8.875,0.136799,-1.49536,-0.499879
4969,5,-46,-10,1,-1,-6,4,-5,1.19531,0.00830078,-0.0478516,-30.375,14.4375,8.875,0.136799,-1.49536,-0.499879
4983,24,28,11,2,24,-13,1,3,1.20117,0.03125,0.0361328,-29.4375,18.125,7.1875,0.094636,-1.49112,-0.467892
4983,-12,-9,-4,-5,-13,-14,-8,-7,1.20117,0.03125,0.0361328,-29.4375,18.125,7.1875,0.094636,-1.49112,-0.467892
4983,3,-4,3,1,-9,42,7,4,1.20117,0.03125,0.0361328,-29.4375,18.125,7.1875,0.094636,-1.49112,-0.467892
4983,-17,3,-3,-4,-11,6,-6,-15,1.20117,0.03125,0.0361328,-29.4375,18.125,7.1875,0.094636,-1.49112,-0.467892
5006,5,-26,-5,-2,-9,8,3,-1,1.11719,0.0102539,0.0380859,-23.8125,14.1875,8.375,0.0496603,-1.4871,-0.430904
5006,7,-1,-9,3,15,-11,4,13,1.11719,0.0102539,0.0380859,-23.8125,14.1875,8.375,0.0496603,-1.4871,-0.430904
5007,0,-4,7,-1,4,-20,-5,3,1.11719,0.0102539,0.0380859,-23.8125,14.1875,8.375,0.0496603,-1.4871,-0.430904
5007,-5,19,12,1,-3,3,-2,-4,1.11719,0.0102539,0.0380859,-23.8125,14.1875,8.375,0.0496603,-1.4871,-0.430904
5020,10,-30,-31,-5,-1,-1,1,-11,1.07227,-0.0375977,-0.0654297,-8.3125,0.9375,6.5625,0.00649474,-1.49129,-0.39089
5020,-31,9,10,-3,0,3,4,-32,1.07227,-0.0375977,-0.0654297,-8.3125,0.9375,6.5625,0.00649474,-1.49129,-0.39089
5028,1,-19,-33,16,4,-7,-8,56,1.07227,-0.0375977,-0.0654297,-8.3125,0.9375,6.5625,0.00649474,-1.49129,-0.39089
5028,-18,-1,-13,-6,0,-2,8,-22,1.07227,-0.0375977,-0.0654297,-8.3125,0.9375,6.5625,0.00649474,-1.49129,-0.39089
5043,-6,14,12,2,-8,1,-4,7,1.15283,0.123047,-0.0390625,-8.25,-5.75,-3.3125,0.0587062,-1.49622,-0.44589
5043,-5,-4,-7,-10,-3,26,-2,-15,1.15283,0.123047,-0.0390625,-8.25,-5.75,-3.3125,0.0587062,-1.49622,-0.44589
5044,1,-12,9,-11,-7,-22,-13,-29,1.15283,0.123047,-0.0390625,-8.25,-5.75,-3.3125,0.0587062,-1.49622,-0.44589
5044,4,14,3,-1,1,-28,-11,-13,1.15283,0.123047,-0.0390625,-8.25,-5.75,-3.3125,0.0587062,-1.49622,-0.44589
5066,7,2,6,-2,5,21,0,8,1.11426,0.0429688,-0.0219727,-7.125,-8.1875,-5.5,0.100623,-1.50073,-0.490134
5066,10,1,-5,2,-7,-12,-6,25,1.11426,0.0429688,-0.0219727,-7.125,-8.1875,-5.5,0.100623,-1.50073,-0.490134
5067,3,6,12,1,-7,3,9,-19,1.11426,0.0429688,-0.0219727,-7.125,-8.1875,-5.5,0.100623,-1.50073,-0.490134
5067,9,10,-4,1,2,6,3,1,1.11426,0.0429688,-0.0219727,-7.125,-8.1875,-5.5,0.100623,-1.50073,-0.490134
5080,-8,-6,2,-2,1,-18,2,-37,1.09961,0.0224609,-0.0102539,-18,-5.4375,0.1875,0.104585,-1.50432,-0.500287
5080,22,-2,-6,3,0,41,2,33,1.09961,0.0224609,-0.0102539,-18,-5.4375,0.1875,0.104585,-1.50432,-0.500287
5088,-13,-1,-4,-4,-2,12,-1,-4,1.09961,0.0224609,-0.0102539,-18,-5.4375,0.1875,0.104585,-1.50432,-0.500287
5088,-3,8,2,-2,-3,6,4,7,1.09961,0.0224609,-0.0102539,-18,-5.4375,0.1875,0.104585,-1.50432,-0.500287
5102,1,-5,6,3,-2,1,0,13,1.09814,0.0766602,0.0112305,-8.5625,-8.3125,-3.8125,0.156651,-1.50838,-0.555315
5102,-7,-15,-3,4,11,-19,-3,-25,1.09814,0.0766602,0.0112305,-8.5625,-8.3125,-3.8125,0.156651,-1.50838,-0.555315
5103,47,28,2,-3,0,-8,-3,12,1.09814,0.0766602,0.0112305,-8.5625,-8.3125,-3.8125,0.156651,-1.50838,-0.555315
5103,5,-10,1,1,-2,10,2,-1,1.09814,0.0766602,0.0112305,-8.5625,-8.3125,-3.8125,0.156651,-1.50838,-0.555315
5127,-2,17,7,1,12,0,-6,3,1.08203,0.0527344,-0.0102539,-24,-11.75,-3.875,0.203864,-1.51327,-0.610813
5127,31,1,-8,0,-4,-43,18,32,1.08203,0.0527344,-0.0102539,-24,-11.75,-3.875,0.203864,-1.51327,-0.610813
5127,-46,-13,3,-3,-21,-13,-11,-16,1.08203,0.0527344,-0.0102539,-24,-11.75,-3.875,0.203864,-1.51327,-0.610813
5127,-8,-7,-4,-1,21,0,-7,-17,1.08203,0.0527344,-0.0102539,-24,-11.75,-3.875,0.203864,-1.51327,-0.610813
5140,4,7,4,1,-24,-5,-28,-42,1.06152,-0.0537109,0.0566406,-30.8125,-6.625,-4.75,0.202238,-1.51735,-0.620804
5140,8,1,-4,-9,-43,5,1,23,1.06152,-0.0537109,0.0566406,-30.8125,-6.625,-4.75,0.202238,-1.51735,-0.620804
5148,-5,-1,0,-4,8,30,5,-17,1.06152,-0.0537109,0.0566406,-30.8125,-6.625,-4.75,0.202238,-1.51735,-0.620804
5148,0,10,1,1,-20,-21,7,5,1.06152,-0.0537109,0.0566406,-30.8125,-6.625,-4.75,0.202238,-1.51735,-0.620804
5163,-6,-1,2,2,10,10,12,1,1.03418,-0.0244141,0.0517578,-17.9375,-3.875,-7.125,0.230626,-1.51816,-0.655377
5163,-7,1,-1,0,10,-17,-14,-18,1.03418,-0.0244141,0.0517578,-17.9375,-3.875,-7.125,0.230626,-1.51816,-0.655377
5163,-10,-13,-3,2,17,5,18,25,1.03418,-0.0244141,0.0517578,-17.9375,-3.875,-7.125,0.230626,-1.51816,-0.655377
5163,-1,3,4,0,15,3,0,-3,1.03418,-0.0244141,0.0517578,-17.9375,-3.875,-7.125,0.230626,-1.51816,-0.655377
5186,-1,1,-2,-2,-5,-28,5,-22,1.01025,0.0771484,0.0820312,-1.9375,-11.375,-14.625,0.364402,-1.51866,-0.789689
5186,6,11,2,-3,-16,-17,-24,-3,1.01025,0.0771484,0.0820312,-1.9375,-11.375,-14.625,0.364402,-1.51866,-0.789689
5187,-4,1,1,0,-10,-3,-7,4,1.01025,0.0771484,0.0820312,-1.9375,-11.375,-14.625,0.364402,-1.51866,-0.789689
5187,-9,-1,1,4,45,-76,-4,11,1.01025,0.0771484,0.0820312,-1.9375,-11.375,-14.625,0.364402,-1.51866,-0.789689
5200,-6,-14,-11,-14,-68,49,6,6,1.07129,0.205078,0.0605469,-16.1875,-14.125,-17.4375,0.574852,-1.51855,-1.00603
5200,-12,-8,-4,1,9,47,2,-40,1.07129,0.205078,0.0605469,-16.1875,-14.125,-17.4375,0.574852,-1.51855,-1.00603
5208,6,0,3,1,-9,3,0,10,1.07129,0.205078,0.0605469,-16.1875,-14.125,-17.4375,0.574852,-1.51855,-1.00603
5208,13,16,3,2,-17,22,0,18,1.07129,0.205078,0.0605469,-16.1875,-14.125,-17.4375,0.574852,-1.51855,-1.00603
5223,-9,-5,-2,1,18,-2,7,-2,1.05469,0.175293,0.00976562,-24.375,-15,-20.125,0.78445,-1.51554,-1.22401
5223,-8,-6,-4,1,32,-62,-2,5,1.05469,0.175293,0.00976562,-24.375,-15,-20.125,0.78445,-1.51554,-1.22401
5224,1,-10,-5,-4,-20,48,-2,2,1.05469,0.175293,0.00976562,-24.375,-15,-20.125,0.78445,-1.51554,-1.22401
5224,-5,-3,-6,-5,-13,-10,-1,-27,1.05469,0.175293,0.00976562,-24.375,-15,-20.125,0.78445,-1.51554,-1.22401
5246,20,20,8,3,1,-5,-3,14,1.04492,0.0742188,0.0683594,-35.1875,-8.5625,-13.4375,0.868534,-1.5139,-1.32069
5246,-2,-21,-5,1,5,23,3,1,1.04492,0.0742188,0.0683594,-35.1875,-8.5625,-13.4375,0.868534,-1.5139,-1.32069
5247,15,6,9,9,42,-51,-1,7,1.04492,0.0742188,0.0683594,-35.1875,-8.5625,-13.4375,0.868534,-1.5139,-1.32069
5247,2,1,1,-4,-29,14,2,16,1.04492,0.0742188,0.0683594,-35.1875,-8.5625,-13.4375,0.868534,-1.5139,-1.32069
5269,-11,-11,-1,3,4,-2,5,-6,1.01514,-0.00976562,0.0712891,-44.875,-2.75,-11.1875,0.881199,-1.51106,-1.34897
5269,0,10,3,-1,-7,11,-9,4,1.01514,-0.00976562,0.0712891,-44.875,-2.75,-11.1875,0.881199,-1.51106,-1.34897
5269,-13,2,-7,-3,6,-22,-7,-12,1.01514,-0.00976562,0.0712891,-44.875,-2.75,-11.1875,0.881199,-1.51106,-1.34897
5269,41,-12,3,0,-7,19,-2,13,1.01514,-0.00976562,0.0712891,-44.875,-2.75,-11.1875,0.881199,-1.51106,-1.34897
5283,-21,16,3,-1,37,-1,4,-4,0.998535,-0.0644531,0.100586,-27.375,-0.5,-9.3125,0.858581,-1.50943,-1.33595
5283,1,-8,-7,-1,-25,-3,11,-6,0.998535,-0.0644531,0.100586,-27.375,-0.5,-9.3125,0.858581,-1.50943,-1.33595
5284,-25,-19,-13,-12,-18,13,-13,-12,0.998535,-0.0644531,0.100586,-27.375,-0.5,-9.3125,0.858581,-1.50943,-1.33595
5284,-3,-4,-6,-1,0,15,-5,9,0.998535,-0.0644531,0.100586,-27.375,-0.5,-9.3125,0.858581,-1.50943,-1.33595
5306,-3,-15,-7,-4,-8,-20,-6,-6,1.02344,-0.0175781,0.223145,-15.625,6.375,-15.3125,0.815196,-1.50257,-1.29828
5306,11,27,0,-2,20,19,15,26,1.02344,-0.0175781,0.223145,-15.625,6.375,-15.3125,0.815196,-1.50257,-1.29828
5307,7,4,10,8,1,-25,0,-33,1.02344,-0.0175781,0.223145,-15.625,6.375,-15.3125,0.815196,-1.50257,-1.29828
5307,2,24,-1,-2,-7,6,-5,-13,1.02344,-0.0175781,0.223145,-15.625,6.375,-15.3125,0.815196,-1.50257,-1.29828
5329,-18,-60,-13,-1,3,-3,-7,-5,1.01709,-0.0483398,0.163574,-3.375,12.25,-12,0.760892,-1.49655,-1.24528
5329,-9,-8,-9,-1,1,5,7,2,1.01709,-0.0483398,0.163574,-3.375,12.25,-12,0.760892,-1.49655,-1.24528
5329,5,10,23,1,-5,18,4,7,1.01709,-0.0483398,0.163574,-3.375,12.25,-12,0.760892,-1.49655,-1.24528
5329,12,28,-1,4,10,-16,-4,13,1.01709,-0.0483398,0.163574,-3.375,12.25,-12,0.760892,-1.49655,-1.24528
5343,6,21,13,4,7,-53,0,2,0.939453,-0.151855,0.19043,10.1875,15.8125,-1.625,0.647623,-1.49363,-1.12876
5343,-1,-10,-8,-5,-15,43,0,-7,0.939453,-0.151855,0.19043,10.1875,15.8125,-1.625,0.647623,-1.49363,-1.12876
5344,11,1,-8,-3,4,13,24,13,0.939453,-0.151855,0.19043,10.1875,15.8125,-1.625,0.647623,-1.49363,-1.12876
5344,4,-3,10,2,5,17,8,4,0.939453,-0.151855,0.19043,10.1875,15.8125,-1.625,0.647623,-1.49363,-1.12876
5374,2,-4,-17,-1,-10,17,8,10,0.930176,-0.133789,0.223145,33.5625,9.6875,2,0.554746,-1.48918,-1.02387
5374,29,20,11,8,24,25,19,15,0.930176,-0.133789,0.223145,33.5625,9.6875,2,0.554746,-1.48918,-1.02387
5374,25,14,11,1,-6,-47,-29,1,0.930176,-0.133789,0.223145,33.5625,9.6875,2,0.554746,-1.48918,-1.02387
5374,-49,-10,-9,-6,-16,-21,-15,-22,0.930176,-0.133789,0.223145,33.5625,9.6875,2,0.554746,-1.48918,-1.02387
5389,-5,11,6,2,-6,0,-21,-7,0.924316,-0.106445,0.151855,56.25,3.875,1.5625,0.509657,-1.48925,-0.959591
5389,37,-7,3,-9,-8,-49,1,16,0.924316,-0.106445,0.151855,56.25,3.875,1.5625,0.509657,-1.48925,-0.959591
5389,-3,6,10,11,12,15,17,2,0.924316,-0.106445,0.151855,56.25,3.875,1.5625,0.509657,-1.48925,-0.959591
5389,10,9,-4,-7,16,13,5,1,0.924316,-0.106445,0.151855,56.25,3.875,1.5625,0.509657,-1.48925,-0.959591
5403,-40,-69,-58,-11,-2,25,-11,-5,0.950195,0.0371094,0.106445,58.625,-1.75,-2.5625,0.536469,-1.48828,-0.965873
5403,3,13,18,6,23,39,18,43,0.950195,0.0371094,0.106445,58.625,-1.75,-2.5625,0.536469,-1.48828,-0.965873
5403,-25,-49,-41,-9,-3,3,7,-4,0.950195,0.0371094,0.106445,58.625,-1.75,-2.5625,0.536469,-1.48828,-0.965873
5403,-14,-22,12,-5,-27,-62,-31,-63,0.950195,0.0371094,0.106445,58.625,-1.75,-2.5625,0.536469,-1.48828,-0.965873
5426,18,41,-4,-3,-6,-5,8,-20,0.953125,0.0336914,0.109375,43.6875,-1.8125,0.5,0.545021,-1.48836,-0.959308
5426,-46,-16,-19,-4,3,34,2,-11,0.953125,0.0336914,0.109375,43.6875,-1.8125,0.5,0.545021,-1.48836,-0.959308
5426,8,-5,0,-4,2,15,-8,15,0.953125,0.0336914,0.109375,43.6875,-1.8125,0.5,0.545021,-1.48836,-0.959308
5426,-34,-22,-28,-11,-19,-82,-44,-48,0.953125,0.0336914,0.109375,43.6875,-1.8125,0.5,0.545021,-1.48836,-0.959308
5449,28,9,17,4,-9,43,19,-32,0.955566,0.00390625,0.0791016,25.0625,-7.0625,-3.125,0.568241,-1.4901,-0.97395
5449,15,5,-4,5,3,57,0,-26,0.955566,0.00390625,0.0791016,25.0625,-7.0625,-3.125,0.568241,-1.4901,-0.97395
5450,-13,20,11,0,1,-22,26,12,0.955566,0.00390625,0.0791016,25.0625,-7.0625,-3.125,0.568241,-1.4901,-0.97395
5450,10,3,-11,-2,-1,0,-22,109,0.955566,0.00390625,0.0791016,25.0625,-7.0625,-3.125,0.568241,-1.4901,-0.97395
5463,6,6,15,-1,6,-74,-40,-70,0.957031,-0.078125,0.034668,13.375,-11.0625,-1.125,0.57633,-1.49432,-0.977269
5463,-24,-4,-2,2,-2,8,-3,-75,0.957031,-0.078125,0.034668,13.375,-11.0625,-1.125,0.57633,-1.49432,-0.977269
5472,19,1,1,0,12,11,12,13,0.980957,-0.174316,0.00244141,16.5,-12.1875,1.8125,0.556673,-1.50224,-0.952127
5472,33,17,12,16,8,61,98,65,0.980957,-0.174316,0.00244141,16.5,-12.1875,1.8125,0.556673,-1.50224,-0.952127
5486,-23,-19,-13,-8,-2,43,3,78,0.980957,-0.174316,0.00244141,16.5,-12.1875,1.8125,0.556673,-1.50224,-0.952127
5486,-16,-7,0,-5,-13,-108,-47,-21,0.980957,-0.174316,0.00244141,16.5,-12.1875,1.8125,0.556673,-1.50224,-0.952127
5493,-45,-13,-17,-15,-30,-68,-54,-74,1.06738,-0.0556641,-0.12207,13.8125,-12.5625,-1.4375,0.614224,-1.51057,-1.00491
5493,20,1,5,-5,-15,-78,-55,-13,1.06738,-0.0556641,-0.12207,13.8125,-12.5625,-1.4375,0.614224,-1.51057,-1.00491
5509,13,27,26,9,6,25,25,58,1.06738,-0.0556641,-0.12207,13.8125,-12.5625,-1.4375,0.614224,-1.51057,-1.00491
5509,10,9,0,2,15,41,30,2,1.06738,-0.0556641,-0.12207,13.8125,-12.5625,-1.4375,0.614224,-1.51057,-1.00491
5510,5,22,2,2,4,55,-8,-2,1.23877,-0.145996,-0.0473633,-4.875,0.125,4.0625,0.548535,-1.51612,-0.941004
5510,-22,-37,-15,-9,-1,-15,10,-10,1.23877,-0.145996,-0.0473633,-4.875,0.125,4.0625,0.548535,-1.51612,-0.941004
5522,5,-1,0,-3,-4,-2,4,-5,1.23877,-0.145996,-0.0473633,-4.875,0.125,4.0625,0.548535,-1.51612,-0.941004
5522,-25,-10,-5,-4,-6,-11,-13,-2,1.23877,-0.145996,-0.0473633,-4.875,0.125,4.0625,0.548535,-1.51612,-0.941004
5531,13,11,12,12,22,83,26,10,1.15527,-0.271973,-0.0991211,-20.4375,10.5625,26.1875,0.24855,-1.52268,-0.648071
5531,15,2,6,7,12,64,59,38,1.15527,-0.271973,-0.0991211,-20.4375,10.5625,26.1875,0.24855,-1.52268,-0.648071
5546,-33,-2,-2,-8,-24,-101,-50,-18,1.15527,-0.271973,-0.0991211,-20.4375,10.5625,26.1875,0.24855,-1.52268,-0.648071
5546,-4,-13,-11,-13,-24,-65,-22,24,1.15527,-0.271973,-0.0991211,-20.4375,10.5625,26.1875,0.24855,-1.52268,-0.648071
5548,-28,-13,0,3,7,-13,-21,7,0.989746,-0.0209961,0.0644531,-0.5625,5.875,18.3125,0.0976015,-1.52207,-0.497349
5548,36,-23,-6,7,20,70,-5,26,0.989746,-0.0209961,0.0644531,-0.5625,5.875,18.3125,0.0976015,-1.52207,-0.497349
5569,7,8,-1,-6,-9,21,-10,-86,0.989746,-0.0209961,0.0644531,-0.5625,5.875,18.3125,0.0976015,-1.52207,-0.497349
5569,-22,1,6,5,1,-20,18,1,0.989746,-0.0209961,0.0644531,-0.5625,5.875,18.3125,0.0976015,-1.52207,-0.497349
5570,11,-12,-6,-16,-18,-33,-8,17,1.13184,0.166992,0.0639648,-10.8125,-7.875,13.3125,0.0868495,-1.52391,-0.489965
5570,-21,-8,11,5,5,8,-28,-11,1.13184,0.166992,0.0639648,-10.8125,-7.875,13.3125,0.0868495,-1.52391,-0.489965
5583,50,35,31,20,14,29,41,115,1.13184,0.166992,0.0639648,-10.8125,-7.875,13.3125,0.0868495,-1.52391,-0.489965
5583,22,-10,-14,-17,-6,-6,1,-30,1.13184,0.166992,0.0639648,-10.8125,-7.875,13.3125,0.0868495,-1.52391,-0.489965
5591,3,22,-6,16,-2,-17,-7,-35,1.15576,0.109375,0.206543,-46.4375,3.5,22.9375,-0.039474,-1.51937,-0.379717
5591,-23,-80,-35,-12,-6,13,9,5,1.15576,0.109375,0.206543,-46.4375,3.5,22.9375,-0.039474,-1.51937,-0.379717
5607,29,-30,-11,-4,4,4,12,-2,1.15576,0.109375,0.206543,-46.4375,3.5,22.9375,-0.039474,-1.51937,-0.379717
5607,42,25,8,-4,-3,6,-19,5,1.15576,0.109375,0.206543,-46.4375,3.5,22.9375,-0.039474,-1.51937,-0.379717
5608,25,24,26,2,0,-9,-4,26,1.37402,-0.0336914,0.0229492,-70.1875,15.5625,32.75,-0.266715,-1.51303,-0.176449
5608,-49,16,-6,2,0,9,5,-35,1.37402,-0.0336914,0.0229492,-70.1875,15.5625,32.75,-0.266715,-1.51303,-0.176449
5629,22,18,3,10,4,-5,-6,13,1.37402,-0.0336914,0.0229492,-70.1875,15.5625,32.75,-0.266715,-1.51303,-0.176449
5629,16,-17,-10,-2,5,16,22,42,1.37402,-0.0336914,0.0229492,-70.1875,15.5625,32.75,-0.266715,-1.51303,-0.176449
5630,71,51,32,-24,-15,-24,-6,-9,1.08789,-0.157715,0.195801,-16.375,25.5625,48.25,-0.483113,-1.49432,0.0346884
5630,0,-48,9,23,10,13,-2,-12,1.08789,-0.157715,0.195801,-16.375,25.5625,48.25,-0.483113,-1.49432,0.0346884
5643,-90,-21,-26,-21,-5,4,2,-25,1.08789,-0.157715,0.195801,-16.375,25.5625,48.25,-0.483113,-1.49432,0.0346884
5643,-13,-6,-15,4,-8,-7,-2,20,1.08789,-0.157715,0.195801,-16.375,25.5625,48.25,-0.483113,-1.49432,0.0346884
5651,-8,-24,-3,-1,12,-14,7,17,1.1377,0.132324,0.204102,27.75,12.3125,16.3125,-0.448048,-1.48766,0.00953775
5651,99,68,21,-9,-8,6,-7,17,1.1377,0.132324,0.204102,27.75,12.3125,16.3125,-0.448048,-1.48766,0.00953775
5666,-37,-6,20,6,-2,8,-8,-63,1.1377,0.132324,0.204102,27.75,12.3125,16.3125,-0.448048,-1.48766,0.00953775
5666,-15,-18,-36,-14,-18,7,3,6,1.1377,0.132324,0.204102,27.75,12.3125,16.3125,-0.448048,-1.48766,0.00953775
5667,51,32,-1,-10,-1,-16,4,54,1.08887,0.244141,0.212891,5.375,13.375,17.375,-0.399359,-1.48141,-0.0369834
5667,-62,18,-71,-11,21,13,17,-55,1.08887,0.244141,0.212891,5.375,13.375,17.375,-0.399359,-1.48141,-0.0369834
5689,-42,-9,38,39,15,26,-19,-14,1.08887,0.244141,0.212891,5.375,13.375,17.375,-0.399359,-1.48141,-0.0369834
5689,19,4,39,0,-37,-60,-71,-41,1.08887,0.244141,0.212891,5.375,13.375,17.375,-0.399359,-1.48141,-0.0369834
5690,-35,-54,-60,-66,-54,-16,1,-10,1.08105,-0.0864258,0.0429688,-6.875,18.25,27.1875,-0.479223,-1.47163,0.0410493
5690,27,47,72,-87,21,-16,1,31,1.08105,-0.0864258,0.0429688,-6.875,18.25,27.1875,-0.479223,-1.47163,0.0410493
5702,0,41,33,83,34,35,32,36,1.08105,-0.0864258,0.0429688,-6.875,18.25,27.1875,-0.479223,-1.47163,0.0410493
5702,-13,19,51,46,30,66,37,26,1.08105,-0.0864258,0.0429688,-6.875,18.25,27.1875,-0.479223,-1.47163,0.0410493
5711,-19,-30,2,27,13,23,17,7,0.859375,-0.270996,-0.0463867,33.0625,15.75,37.125,-0.605383,-1.46021,0.178668
5711,12,-10,-89,-101,-108,-50,-22,-31,0.859375,-0.270996,-0.0463867,33.0625,15.75,37.125,-0.605383,-1.46021,0.178668
5725,4,-38,-79,-128,-4,-21,24,11,0.859375,-0.270996,-0.0463867,33.0625,15.75,37.125,-0.605383,-1.46021,0.178668
5725,20,18,78,91,93,35,-13,14,0.859375,-0.270996,-0.0463867,33.0625,15.75,37.125,-0.605383,-1.46021,0.178668
5728,6,31,78,7,-5,22,25,-4,0.956543,0.105469,-0.141602,22.125,14.5,18.75,-0.617738,-1.45873,0.199151
5728,-8,57,46,51,43,16,8,-23,0.956543,0.105469,-0.141602,22.125,14.5,18.75,-0.617738,-1.45873,0.199151
5749,20,-48,25,-10,-85,-70,-21,35,0.956543,0.105469,-0.141602,22.125,14.5,18.75,-0.617738,-1.45873,0.199151
5749,-17,-29,-128,-128,-83,-101,-31,1,0.956543,0.105469,-0.141602,22.125,14.5,18.75,-0.617738,-1.45873,0.199151
5750,-29,-40,58,99,-94,-35,-31,-25,0.960938,-0.059082,-0.109375,-49.625,24.6875,22.25,-0.66767,-1.45171,0.231447
5750,26,-8,69,103,86,15,-19,-37,0.960938,-0.059082,-0.109375,-49.625,24.6875,22.25,-0.66767,-1.45171,0.231447
5763,-28,19,82,124,83,61,8,-9,0.960938,-0.059082,-0.109375,-49.625,24.6875,22.25,-0.66767,-1.45171,0.231447
5763,-6,52,31,-20,-1,19,14,27,0.960938,-0.059082,-0.109375,-49.625,24.6875,22.25,-0.66767,-1.45171,0.231447
5771,-24,-13,-57,-98,-27,-1,11,-18,0.926758,-0.0966797,-0.147461,-44.5,25.8125,26.75,-0.727895,-1.44291,0.276043
5771,-46,-8,-55,-77,-91,17,8,20,0.926758,-0.0966797,-0.147461,-44.5,25.8125,26.75,-0.727895,-1.44291,0.276043
5786,53,-13,-24,-68,-35,-70,-21,9,0.926758,-0.0966797,-0.147461,-44.5,25.8125,26.75,-0.727895,-1.44291,0.276043
5786,5,-16,-54,-73,27,25,15,-16,0.926758,-0.0966797,-0.147461,-44.5,25.8125,26.75,-0.727895,-1.44291,0.276043
5788,-12,-15,7,83,36,1,-43,-16,1.05762,0.181641,-0.0966797,-12.5,16.4375,20.1875,-0.729527,-1.44168,0.273586
5788,6,-4,-9,-45,-17,23,33,3,1.05762,0.181641,-0.0966797,-12.5,16.4375,20.1875,-0.729527,-1.44168,0.273586
5809,-9,11,14,-21,1,15,-24,-5,1.05762,0.181641,-0.0966797,-12.5,16.4375,20.1875,-0.729527,-1.44168,0.273586
