0,5,0,3,0,0,0,-1,-1,0.8125,0.277832,0.463867,12.6875,-10.75,29.625,0.647802,-1.05032,-2.8455
0,-2,-4,-11,-3,-2,-1,-1,-1,0.8125,0.277832,0.463867,12.6875,-10.75,29.625,0.647802,-1.05032,-2.8455
3,3,4,3,-2,-1,-2,0,0,0.8125,0.277832,0.463867,12.6875,-10.75,29.625,0.647802,-1.05032,-2.8455
3,-6,-1,3,-2,1,0,-2,-2,0.8125,0.277832,0.463867,12.6875,-10.75,29.625,0.647802,-1.05032,-2.8455
3,-4,-2,-1,1,0,-1,-1,-1,0.8125,0.277832,0.463867,12.6875,-10.75,29.625,0.647802,-1.05032,-2.8455
3,-1,1,4,-1,0,0,-3,0,0.8125,0.277832,0.463867,12.6875,-10.75,29.625,0.647802,-1.05032,-2.8455
4,1,-1,-3,-1,-2,-2,-2,-2,0.8125,0.277832,0.463867,12.6875,-10.75,29.625,0.647802,-1.05032,-2.8455
4,-2,1,0,1,0,-1,1,-1,0.8125,0.277832,0.463867,12.6875,-10.75,29.625,0.647802,-1.05032,-2.8455
14,-3,-4,-3,-1,-1,-1,-1,-1,0.820801,0.260742,0.472168,11.1875,-11.25,26.875,0.639169,-1.05774,-2.83193
14,-1,-4,-2,-2,-1,0,1,-3,0.820801,0.260742,0.472168,11.1875,-11.25,26.875,0.639169,-1.05774,-2.83193
24,-8,-3,-3,-1,0,-1,1,-1,0.820801,0.260742,0.472168,11.1875,-11.25,26.875,0.639169,-1.05774,-2.83193
24,10,3,2,0,1,0,-2,1,0.820801,0.260742,0.472168,11.1875,-11.25,26.875,0.639169,-1.05774,-2.83193
35,-14,-2,-2,-2,-2,-1,-1,-1,0.838379,0.249512,0.471191,12.6875,-11.1875,25.75,0.630944,-1.06483,-2.81853
35,0,0,0,1,-1,-2,0,0,0.838379,0.249512,0.471191,12.6875,-11.1875,25.75,0.630944,-1.06483,-2.81853
39,1,-3,-2,-1,-1,-1,-1,-1,0.838379,0.249512,0.471191,12.6875,-11.1875,25.75,0.630944,-1.06483,-2.81853
39,6,-1,1,-2,-4,-1,-1,0,0.838379,0.249512,0.471191,12.6875,-11.1875,25.75,0.630944,-1.06483,-2.81853
55,3,0,-2,0,-2,0,-1,0,0.850098,0.25293,0.463379,15.4375,-11.25,22.0625,0.625601,-1.07121,-2.80723
55,3,1,2,1,-1,0,-2,1,0.850098,0.25293,0.463379,15.4375,-11.25,22.0625,0.625601,-1.07121,-2.80723
71,3,1,-2,-1,0,0,-1,2,0.850098,0.25293,0.463379,15.4375,-11.25,22.0625,0.625601,-1.07121,-2.80723
71,-5,-4,-5,-2,0,-3,-2,-2,0.850098,0.25293,0.463379,15.4375,-11.25,22.0625,0.625601,-1.07121,-2.80723
72,1,1,0,-2,-1,0,0,-1,0.847168,0.270996,0.474609,11.3125,-10.6875,17.8125,0.621332,-1.0759,-2.79856
72,-2,-2,-3,-2,-1,0,0,-1,0.847168,0.270996,0.474609,11.3125,-10.6875,17.8125,0.621332,-1.0759,-2.79856
118,3,-2,0,0,1,0,0,0,0.851074,0.241211,0.478027,-3.1875,-10.8125,12.6875,0.60798,-1.08383,-2.78574
118,-7,-5,-2,0,-2,-1,-1,-2,0.851074,0.241211,0.478027,-3.1875,-10.8125,12.6875,0.60798,-1.08383,-2.78574
119,-3,-1,-2,1,-1,-1,-2,-1,0.851074,0.241211,0.478027,-3.1875,-10.8125,12.6875,0.60798,-1.08383,-2.78574
119,-5,-1,-1,-2,-2,-2,0,0,0.851074,0.241211,0.478027,-3.1875,-10.8125,12.6875,0.60798,-1.08383,-2.78574
122,-12,-4,-4,-2,0,-2,-1,0,0.851074,0.241211,0.478027,-3.1875,-10.8125,12.6875,0.60798,-1.08383,-2.78574
122,-3,2,-3,0,-1,-1,-2,-2,0.851074,0.241211,0.478027,-3.1875,-10.8125,12.6875,0.60798,-1.08383,-2.78574
123,1,1,-1,0,0,1,-2,0,0.851074,0.241211,0.478027,-3.1875,-10.8125,12.6875,0.60798,-1.08383,-2.78574
123,-5,-3,-3,-3,0,0,0,-2,0.851074,0.241211,0.478027,-3.1875,-10.8125,12.6875,0.60798,-1.08383,-2.78574
130,-2,-1,1,-1,-2,-1,0,-1,0.853516,0.229492,0.474121,1.4375,-10.6875,11.3125,0.60189,-1.08738,-2.77942
130,-2,-2,1,0,0,0,-1,-3,0.853516,0.229492,0.474121,1.4375,-10.6875,11.3125,0.60189,-1.08738,-2.77942
136,-3,-2,-2,-3,-3,-3,-1,-2,0.853516,0.229492,0.474121,1.4375,-10.6875,11.3125,0.60189,-1.08738,-2.77942
136,3,2,0,0,-1,-2,-1,1,0.853516,0.229492,0.474121,1.4375,-10.6875,11.3125,0.60189,-1.08738,-2.77942
153,-2,0,1,0,-1,0,1,-2,0.863281,0.232422,0.460449,6.4375,-10.0625,8.875,0.599524,-1.09066,-2.77497
153,2,0,0,0,0,1,-1,1,0.863281,0.232422,0.460449,6.4375,-10.0625,8.875,0.599524,-1.09066,-2.77497
167,1,-1,0,0,-3,-2,-1,-2,0.863281,0.232422,0.460449,6.4375,-10.0625,8.875,0.599524,-1.09066,-2.77497
167,4,0,2,0,0,-3,-1,0,0.863281,0.232422,0.460449,6.4375,-10.0625,8.875,0.599524,-1.09066,-2.77497
169,-9,-2,-2,-2,0,-2,-2,-3,0.873047,0.229004,0.465332,7.5625,-9.625,6.875,0.598081,-1.09363,-2.77129
169,-1,-1,-1,-1,-2,-2,0,1,0.873047,0.229004,0.465332,7.5625,-9.625,6.875,0.598081,-1.09363,-2.77129
191,-2,-2,-3,1,0,0,-1,-1,0.873047,0.229004,0.465332,7.5625,-9.625,6.875,0.598081,-1.09363,-2.77129
191,6,2,2,0,-1,0,-3,-1,0.873047,0.229004,0.465332,7.5625,-9.625,6.875,0.598081,-1.09363,-2.77129
192,9,3,1,-2,-2,-1,-1,-1,0.87793,0.216797,0.443848,10.625,-9.125,5.4375,0.598202,-1.09626,-2.76825
192,-1,-1,0,-1,-2,0,0,-1,0.87793,0.216797,0.443848,10.625,-9.125,5.4375,0.598202,-1.09626,-2.76825
214,-3,-1,0,-1,-1,-1,0,-1,0.87793,0.216797,0.443848,10.625,-9.125,5.4375,0.598202,-1.09626,-2.76825
214,-4,-3,-3,-1,-2,-1,-1,-4,0.87793,0.216797,0.443848,10.625,-9.125,5.4375,0.598202,-1.09626,-2.76825
217,2,-1,-2,-1,-2,0,-2,-1,0.87793,0.209473,0.430664,12,-7.6875,3.875,0.599561,-1.09881,-2.76591
217,-2,-3,-1,-4,-3,-1,0,-1,0.87793,0.209473,0.430664,12,-7.6875,3.875,0.599561,-1.09881,-2.76591
219,3,2,-1,-2,0,0,0,-1,0.87793,0.209473,0.430664,12,-7.6875,3.875,0.599561,-1.09881,-2.76591
219,-5,-3,-3,-2,0,-1,-2,-2,0.87793,0.209473,0.430664,12,-7.6875,3.875,0.599561,-1.09881,-2.76591
230,5,2,2,0,0,1,0,0,0.886719,0.216797,0.404297,10.5625,-5.875,2.875,0.600964,-1.10085,-2.76395
230,-4,1,0,0,0,-1,-1,-1,0.886719,0.216797,0.404297,10.5625,-5.875,2.875,0.600964,-1.10085,-2.76395
244,0,0,-5,1,0,-1,-1,1,0.886719,0.216797,0.404297,10.5625,-5.875,2.875,0.600964,-1.10085,-2.76395
244,0,0,-1,0,1,0,0,0,0.886719,0.216797,0.404297,10.5625,-5.875,2.875,0.600964,-1.10085,-2.76395
245,0,0,-5,1,0,-1,-1,1,0.886719,0.216797,0.404297,10.5625,-5.875,2.875,0.600964,-1.10085,-2.76395
245,0,0,-1,0,1,0,0,0,0.886719,0.216797,0.404297,10.5625,-5.875,2.875,0.600964,-1.10085,-2.76395
246,3,0,-2,0,-2,0,-1,0,0.886719,0.216797,0.404297,10.5625,-5.875,2.875,0.600964,-1.10085,-2.76395
246,3,1,2,1,-1,0,-2,1,0.886719,0.216797,0.404297,10.5625,-5.875,2.875,0.600964,-1.10085,-2.76395
246,3,1,-2,-1,0,0,-1,2,0.886719,0.216797,0.404297,10.5625,-5.875,2.875,0.600964,-1.10085,-2.76395
246,-5,-4,-5,-2,0,-3,-2,-2,0.886719,0.216797,0.404297,10.5625,-5.875,2.875,0.600964,-1.10085,-2.76395
251,1,1,0,-2,-1,0,0,-1,0.847168,0.270996,0.474609,11.3125,-10.6875,17.8125,0.621332,-1.0759,-2.79856
251,-2,-2,-3,-2,-1,0,0,-1,0.847168,0.270996,0.474609,11.3125,-10.6875,17.8125,0.621332,-1.0759,-2.79856
267,0,0,-5,1,0,-1,-1,1,0.853027,0.269531,0.479004,1.625,-10.6875,14,0.615657,-1.07995,-2.7922
267,0,0,-1,0,1,0,0,0,0.853027,0.269531,0.479004,1.625,-10.6875,14,0.615657,-1.07995,-2.7922
268,7,-1,1,-1,1,-1,-2,2,0.868652,0.239258,0.28418,7.0625,-6.9375,3.5,0.606127,-1.10515,-2.76654
268,-3,-2,0,-2,1,-1,0,0,0.868652,0.239258,0.28418,7.0625,-6.9375,3.5,0.606127,-1.10515,-2.76654
273,0,-5,1,-1,-2,1,0,-1,0.868652,0.239258,0.28418,7.0625,-6.9375,3.5,0.606127,-1.10515,-2.76654
273,-7,-2,-1,-2,-2,1,1,-3,0.868652,0.239258,0.28418,7.0625,-6.9375,3.5,0.606127,-1.10515,-2.76654
274,0,-1,1,-2,-4,-1,-1,-1,1.07959,0.29248,0.398926,7.4375,-1.875,1.625,0.60924,-1.107,-2.76697
274,0,0,0,0,0,-2,-2,-3,1.07959,0.29248,0.398926,7.4375,-1.875,1.625,0.60924,-1.107,-2.76697
279,-2,0,2,-1,-3,-1,0,-1,1.07959,0.29248,0.398926,7.4375,-1.875,1.625,0.60924,-1.107,-2.76697
279,1,1,0,-1,1,0,-2,0,1.07959,0.29248,0.398926,7.4375,-1.875,1.625,0.60924,-1.107,-2.76697
288,1,-1,2,-3,-3,0,1,-1,0.98584,0.238281,0.731445,8.25,0.0625,0.1875,0.600114,-1.10188,-2.75608
288,-2,-2,1,-2,0,1,-1,0,0.98584,0.238281,0.731445,8.25,0.0625,0.1875,0.600114,-1.10188,-2.75608
301,-1,0,1,-2,-1,0,-1,0,0.98584,0.238281,0.731445,8.25,0.0625,0.1875,0.600114,-1.10188,-2.75608
301,-2,-2,1,-2,-2,0,-1,-2,0.98584,0.238281,0.731445,8.25,0.0625,0.1875,0.600114,-1.10188,-2.75608
310,-4,-3,-1,-2,-1,-1,-1,-2,1.46045,0.375977,1.19189,1.375,1.6875,1.875,0.57988,-1.09175,-2.73737
310,-1,-1,-1,-1,-2,0,-1,-2,1.46045,0.375977,1.19189,1.375,1.6875,1.875,0.57988,-1.09175,-2.73737
316,-6,-1,1,1,0,0,-2,-3,1.46045,0.375977,1.19189,1.375,1.6875,1.875,0.57988,-1.09175,-2.73737
316,-5,-1,1,0,-1,-1,-1,0,1.46045,0.375977,1.19189,1.375,1.6875,1.875,0.57988,-1.09175,-2.73737
331,-3,-2,-2,-1,0,0,-1,0,1.20264,0.257812,0.550293,2.6875,3.0625,1.75,0.574204,-1.09166,-2.73098
331,2,1,-1,-3,0,0,-1,-1,1.20264,0.257812,0.550293,2.6875,3.0625,1.75,0.574204,-1.09166,-2.73098
339,-2,1,0,0,-1,0,0,0,1.20264,0.257812,0.550293,2.6875,3.0625,1.75,0.574204,-1.09166,-2.73098
339,-4,-3,0,0,-3,1,-3,-1,1.20264,0.257812,0.550293,2.6875,3.0625,1.75,0.574204,-1.09166,-2.73098
347,-2,0,1,-2,-1,0,-3,-3,0.666992,0.0913086,0.0351562,7.0625,3.625,0.6875,0.577856,-1.09646,-2.73153
347,1,0,1,-1,1,0,-4,-1,0.666992,0.0913086,0.0351562,7.0625,3.625,0.6875,0.577856,-1.09646,-2.73153
362,-3,-2,1,-4,-1,-3,-2,-4,0.666992,0.0913086,0.0351562,7.0625,3.625,0.6875,0.577856,-1.09646,-2.73153
362,4,-1,0,-4,-2,-4,-1,-2,0.666992,0.0913086,0.0351562,7.0625,3.625,0.6875,0.577856,-1.09646,-2.73153
370,-1,-3,0,0,0,-2,-2,-1,0.316406,-0.0078125,-0.429199,7.75,4.1875,0.5625,0.591062,-1.10666,-2.74049
370,4,-1,-2,-2,-3,-1,-2,0,0.316406,-0.0078125,-0.429199,7.75,4.1875,0.5625,0.591062,-1.10666,-2.74049
376,2,-2,-1,0,0,-1,-3,0,0.316406,-0.0078125,-0.429199,7.75,4.1875,0.5625,0.591062,-1.10666,-2.74049
376,2,-1,-3,0,-3,0,-1,0,0.316406,-0.0078125,-0.429199,7.75,4.1875,0.5625,0.591062,-1.10666,-2.74049
391,-5,-2,-1,-1,-2,-2,-2,-1,0.335449,0.0234375,-0.17041,7.25,4.4375,0.25,0.597863,-1.11149,-2.74388
391,2,0,-2,-2,-1,-3,-1,-1,0.335449,0.0234375,-0.17041,7.25,4.4375,0.25,0.597863,-1.11149,-2.74388
399,1,-2,-1,-2,-2,-2,-1,0,0.335449,0.0234375,-0.17041,7.25,4.4375,0.25,0.597863,-1.11149,-2.74388
399,3,-1,0,0,0,-2,-1,-1,0.335449,0.0234375,-0.17041,7.25,4.4375,0.25,0.597863,-1.11149,-2.74388
407,1,-2,0,-1,-1,0,0,-1,1.20117,0.188965,0.63916,-3.5625,2.5,1.625,0.583712,-1.11035,-2.7318
407,-6,-2,-1,-1,-2,-1,-1,-1,1.20117,0.188965,0.63916,-3.5625,2.5,1.625,0.583712,-1.11035,-2.7318
421,-3,-2,-3,-1,1,-1,-2,-3,1.20117,0.188965,0.63916,-3.5625,2.5,1.625,0.583712,-1.11035,-2.7318
421,-1,-2,-1,-1,0,0,-2,0,1.20117,0.188965,0.63916,-3.5625,2.5,1.625,0.583712,-1.11035,-2.7318
430,1,1,-2,-1,-1,-2,-2,-3,0.945312,0.126953,0.430664,-0.25,6.375,-1.125,0.574792,-1.109,-2.72352
430,1,-1,-1,2,0,0,0,-2,0.945312,0.126953,0.430664,-0.25,6.375,-1.125,0.574792,-1.109,-2.72352
437,1,1,0,0,0,-2,0,-1,0.945312,0.126953,0.430664,-0.25,6.375,-1.125,0.574792,-1.109,-2.72352
437,-1,-2,0,1,-2,0,0,-2,0.945312,0.126953,0.430664,-0.25,6.375,-1.125,0.574792,-1.109,-2.72352
451,-3,-1,-1,-1,-2,0,-1,0,0.87793,0.172852,0.362793,3.25,3.25,-1.1875,0.572818,-1.1088,-2.72061
451,1,1,0,-2,0,-2,-1,0,0.87793,0.172852,0.362793,3.25,3.25,-1.1875,0.572818,-1.1088,-2.72061
459,-4,1,0,-1,-3,-2,-2,-2,0.87793,0.172852,0.362793,3.25,3.25,-1.1875,0.572818,-1.1088,-2.72061
459,4,-1,0,-1,0,0,0,1,0.87793,0.172852,0.362793,3.25,3.25,-1.1875,0.572818,-1.1088,-2.72061
468,-11,-1,-2,-2,-2,-3,-2,-2,0.85791,0.165039,0.362305,4.3125,2.125,-1.75,0.571245,-1.10853,-2.7179
468,-1,0,-2,-1,-1,0,-1,0,0.85791,0.165039,0.362305,4.3125,2.125,-1.75,0.571245,-1.10853,-2.7179
481,-1,-4,-6,-1,-1,0,-1,-1,0.85791,0.165039,0.362305,4.3125,2.125,-1.75,0.571245,-1.10853,-2.7179
481,4,3,-5,-1,-1,-2,-1,1,0.85791,0.165039,0.362305,4.3125,2.125,-1.75,0.571245,-1.10853,-2.7179
490,5,1,-4,-1,1,2,1,1,0.865234,0.168457,0.369629,4.4375,1.8125,-1.625,0.569953,-1.10836,-2.71537
490,-12,-5,-4,-1,0,-2,0,-3,0.865234,0.168457,0.369629,4.4375,1.8125,-1.625,0.569953,-1.10836,-2.71537
497,-1,2,-1,-1,0,-2,0,1,0.865234,0.168457,0.369629,4.4375,1.8125,-1.625,0.569953,-1.10836,-2.71537
497,-4,-1,-1,-1,0,0,-2,-3,0.865234,0.168457,0.369629,4.4375,1.8125,-1.625,0.569953,-1.10836,-2.71537
511,1,1,1,0,0,0,-2,-1,0.861816,0.160645,0.375977,7.875,0.5625,-1.3125,0.569423,-1.10856,-2.71255
511,3,2,-1,0,1,-1,0,0,0.861816,0.160645,0.375977,7.875,0.5625,-1.3125,0.569423,-1.10856,-2.71255
519,3,1,1,1,3,1,0,-2,0.861816,0.160645,0.375977,7.875,0.5625,-1.3125,0.569423,-1.10856,-2.71255
519,6,7,2,0,-1,0,0,2,0.861816,0.160645,0.375977,7.875,0.5625,-1.3125,0.569423,-1.10856,-2.71255
527,0,-1,-2,0,0,1,-1,-2,1.13525,0.199219,0.588379,3.5,0.1875,0.375,0.56244,-1.10784,-2.70507
527,4,1,-2,-1,-2,1,-2,1,1.13525,0.199219,0.588379,3.5,0.1875,0.375,0.56244,-1.10784,-2.70507
541,-2,-1,0,-1,-1,-1,-2,-1,1.13525,0.199219,0.588379,3.5,0.1875,0.375,0.56244,-1.10784,-2.70507
541,2,2,1,-1,1,-1,1,1,1.13525,0.199219,0.588379,3.5,0.1875,0.375,0.56244,-1.10784,-2.70507
551,-3,1,2,1,1,1,0,-1,0.330078,-0.00292969,-0.165527,5.1875,-1.9375,-1,0.570164,-1.11468,-2.71064
551,1,1,-1,0,0,-2,-1,1,0.330078,-0.00292969,-0.165527,5.1875,-1.9375,-1,0.570164,-1.11468,-2.71064
557,-2,-2,1,-2,0,0,0,0,0.330078,-0.00292969,-0.165527,5.1875,-1.9375,-1,0.570164,-1.11468,-2.71064
557,-4,-4,4,-2,0,0,1,-3,0.330078,-0.00292969,-0.165527,5.1875,-1.9375,-1,0.570164,-1.11468,-2.71064
571,-1,-1,-1,-1,1,-3,0,-2,1.14697,0.315918,0.453613,-2.3125,-1.75,-0.9375,0.571653,-1.11506,-2.71298
571,-10,-5,0,-3,0,-1,-2,-1,1.14697,0.315918,0.453613,-2.3125,-1.75,-0.9375,0.571653,-1.11506,-2.71298
578,-6,0,-1,-2,-1,0,1,-1,1.14697,0.315918,0.453613,-2.3125,-1.75,-0.9375,0.571653,-1.11506,-2.71298
578,-7,-2,0,1,2,0,0,-3,1.14697,0.315918,0.453613,-2.3125,-1.75,-0.9375,0.571653,-1.11506,-2.71298
588,4,1,0,-3,0,-1,0,1,1.03418,0.267578,0.241211,-0.625,-5.625,-0.75,0.579333,-1.12018,-2.72059
588,4,0,2,0,-1,-1,1,-2,1.03418,0.267578,0.241211,-0.625,-5.625,-0.75,0.579333,-1.12018,-2.72059
602,-7,-4,-3,-1,-2,-2,-2,-3,1.03418,0.267578,0.241211,-0.625,-5.625,-0.75,0.579333,-1.12018,-2.72059
602,-2,-2,-3,-4,-1,1,-1,0,1.03418,0.267578,0.241211,-0.625,-5.625,-0.75,0.579333,-1.12018,-2.72059
611,1,0,0,1,0,-1,-1,-1,0.841309,0.179688,0.356934,-0.4375,-0.8125,-1.125,0.57773,-1.12029,-2.71951
611,0,-1,-1,-1,-2,1,0,-1,0.841309,0.179688,0.356934,-0.4375,-0.8125,-1.125,0.57773,-1.12029,-2.71951
616,5,1,2,1,-2,0,-2,1,0.841309,0.179688,0.356934,-0.4375,-0.8125,-1.125,0.57773,-1.12029,-2.71951
616,-3,-2,-1,-1,-1,0,-1,-3,0.841309,0.179688,0.356934,-0.4375,-0.8125,-1.125,0.57773,-1.12029,-2.71951
631,0,-1,1,2,-1,0,0,-1,0.855957,0.183594,0.36377,1.25,-1.3125,-0.75,0.576483,-1.1208,-2.71823
631,-40,-2,1,-1,-1,0,-2,-2,0.855957,0.183594,0.36377,1.25,-1.3125,-0.75,0.576483,-1.1208,-2.71823
638,-18,-2,1,-1,-1,-1,1,-3,0.855957,0.183594,0.36377,1.25,-1.3125,-0.75,0.576483,-1.1208,-2.71823
638,-9,-3,0,0,0,-2,0,-1,0.855957,0.183594,0.36377,1.25,-1.3125,-0.75,0.576483,-1.1208,-2.71823
647,10,-1,0,-1,-2,-1,0,0,0.859863,0.192871,0.363281,5,-0.75,0.4375,0.576137,-1.12112,-2.71631
647,17,-2,1,-1,-1,-1,-1,0,0.859863,0.192871,0.363281,5,-0.75,0.4375,0.576137,-1.12112,-2.71631
661,14,1,-1,-1,1,-2,-2,0,0.859863,0.192871,0.363281,5,-0.75,0.4375,0.576137,-1.12112,-2.71631
661,7,-1,-2,0,0,-2,-4,0,0.859863,0.192871,0.363281,5,-0.75,0.4375,0.576137,-1.12112,-2.71631
671,5,-1,-1,1,1,-1,-1,0,0.869629,0.210938,0.361328,6.5,-0.25,0.6875,0.576905,-1.12144,-2.71489
671,10,1,-1,1,-2,-2,-1,-2,0.869629,0.210938,0.361328,6.5,-0.25,0.6875,0.576905,-1.12144,-2.71489
676,3,0,0,0,0,-1,1,0,0.869629,0.210938,0.361328,6.5,-0.25,0.6875,0.576905,-1.12144,-2.71489
676,5,-1,0,0,-3,0,-1,-2,0.869629,0.210938,0.361328,6.5,-0.25,0.6875,0.576905,-1.12144,-2.71489
691,-3,-4,-2,-1,0,-1,-1,0,0.871094,0.224121,0.36084,3.5625,0.5625,0.875,0.576935,-1.12122,-2.71358
691,5,2,-2,-2,-1,-1,0,-1,0.871094,0.224121,0.36084,3.5625,0.5625,0.875,0.576935,-1.12122,-2.71358
699,4,-2,-1,-3,-1,1,-1,0,0.871094,0.224121,0.36084,3.5625,0.5625,0.875,0.576935,-1.12122,-2.71358
699,-1,0,-2,-2,-2,-2,0,0,0.871094,0.224121,0.36084,3.5625,0.5625,0.875,0.576935,-1.12122,-2.71358
708,-7,-1,-2,-1,0,-2,0,-1,0.870605,0.216309,0.362305,1.8125,1.125,1.6875,0.575215,-1.12135,-2.71117
708,4,-1,0,0,0,-1,1,0,0.870605,0.216309,0.362305,1.8125,1.125,1.6875,0.575215,-1.12135,-2.71117
721,4,3,0,1,0,-1,0,0,0.870605,0.216309,0.362305,1.8125,1.125,1.6875,0.575215,-1.12135,-2.71117
721,-8,1,-1,-1,-2,-1,0,-2,0.870605,0.216309,0.362305,1.8125,1.125,1.6875,0.575215,-1.12135,-2.71117
730,-7,0,-2,0,-2,-1,-3,-2,0.878418,0.213867,0.36084,1.1875,2.125,1.625,0.572889,-1.121,-2.7083
730,1,0,1,0,-1,-1,-1,0,0.878418,0.213867,0.36084,1.1875,2.125,1.625,0.572889,-1.121,-2.7083
745,0,1,-1,-1,-2,-2,1,0,0.878418,0.213867,0.36084,1.1875,2.125,1.625,0.572889,-1.121,-2.7083
745,-4,-3,-2,1,0,-2,1,0,0.878418,0.213867,0.36084,1.1875,2.125,1.625,0.572889,-1.121,-2.7083
751,-4,-2,1,-1,0,0,-1,0,0.864258,0.200195,0.366211,1.75,3.375,2.4375,0.569071,-1.12044,-2.7037
751,-10,-5,-1,-2,0,-1,-3,-4,0.864258,0.200195,0.366211,1.75,3.375,2.4375,0.569071,-1.12044,-2.7037
759,-10,-3,-4,-2,0,-1,-2,-3,0.864258,0.200195,0.366211,1.75,3.375,2.4375,0.569071,-1.12044,-2.7037
759,-1,-1,0,0,-1,-2,-1,-1,0.864258,0.200195,0.366211,1.75,3.375,2.4375,0.569071,-1.12044,-2.7037
768,-3,-2,-1,-3,-3,-1,0,-1,0.848633,0.201172,0.376953,3.5,3.5,2.875,0.565261,-1.11971,-2.69849
768,5,1,0,1,0,-1,-2,2,0.848633,0.201172,0.376953,3.5,3.5,2.875,0.565261,-1.11971,-2.69849
781,1,-1,-2,0,-1,-1,-2,-1,0.848633,0.201172,0.376953,3.5,3.5,2.875,0.565261,-1.11971,-2.69849
781,0,-4,1,-2,1,1,0,-1,0.848633,0.201172,0.376953,3.5,3.5,2.875,0.565261,-1.11971,-2.69849
790,-3,0,-1,-2,-2,-2,-2,-4,0.851562,0.211914,0.374023,4.25,3.3125,1.625,0.563471,-1.11871,-2.69506
790,0,0,-2,-2,-2,0,-1,1,0.851562,0.211914,0.374023,4.25,3.3125,1.625,0.563471,-1.11871,-2.69506
796,2,-1,2,-1,3,1,-1,1,0.851562,0.211914,0.374023,4.25,3.3125,1.625,0.563471,-1.11871,-2.69506
796,1,1,-1,-2,0,-2,-1,-2,0.851562,0.211914,0.374023,4.25,3.3125,1.625,0.563471,-1.11871,-2.69506
811,-2,0,1,-2,-2,0,0,0,0.842285,0.22168,0.369629,2.25,3.3125,0.6875,0.561924,-1.1172,-2.6926
811,-3,-1,-2,0,-2,-3,0,-1,0.842285,0.22168,0.369629,2.25,3.3125,0.6875,0.561924,-1.1172,-2.6926
819,4,2,-2,-3,-2,-1,-1,0,0.842285,0.22168,0.369629,2.25,3.3125,0.6875,0.561924,-1.1172,-2.6926
819,-4,-14,-2,-2,0,-1,-1,-2,0.842285,0.22168,0.369629,2.25,3.3125,0.6875,0.561924,-1.1172,-2.6926
828,0,-1,-2,1,1,-2,-1,-2,0.842773,0.20166,0.371582,0,2.8125,0.1875,0.55935,-1.11628,-2.69002
828,2,0,-1,-1,-1,1,0,1,0.842773,0.20166,0.371582,0,2.8125,0.1875,0.55935,-1.11628,-2.69002
841,-4,1,1,-1,0,-2,-1,-1,0.842773,0.20166,0.371582,0,2.8125,0.1875,0.55935,-1.11628,-2.69002
841,-9,-3,-1,-3,-1,-2,-1,-2,0.842773,0.20166,0.371582,0,2.8125,0.1875,0.55935,-1.11628,-2.69002
850,-7,-1,0,0,0,-1,-1,0,0.847656,0.197754,0.375488,-1.1875,2.75,-0.3125,0.556373,-1.11535,-2.68753
850,0,0,-1,-1,-2,-2,-1,0,0.847656,0.197754,0.375488,-1.1875,2.75,-0.3125,0.556373,-1.11535,-2.68753
856,2,0,0,0,-3,0,-1,0,0.847656,0.197754,0.375488,-1.1875,2.75,-0.3125,0.556373,-1.11535,-2.68753
856,2,4,1,1,-1,0,-2,-1,0.847656,0.197754,0.375488,-1.1875,2.75,-0.3125,0.556373,-1.11535,-2.68753
871,3,-4,-2,-2,0,0,0,-1,0.847168,0.1875,0.37207,1.0625,2.375,-0.625,0.554117,-1.11445,-2.68496
871,-1,0,1,0,-1,-1,0,-1,0.847168,0.1875,0.37207,1.0625,2.375,-0.625,0.554117,-1.11445,-2.68496
879,-4,-3,-1,1,1,-3,0,0,0.847168,0.1875,0.37207,1.0625,2.375,-0.625,0.554117,-1.11445,-2.68496
879,0,3,-1,-1,-2,0,-1,0,0.847168,0.1875,0.37207,1.0625,2.375,-0.625,0.554117,-1.11445,-2.68496
888,-5,-5,-4,-3,-1,-2,-2,-2,0.859863,0.203613,0.366211,2.625,2.125,-0.5,0.553486,-1.11375,-2.68353
888,4,2,-2,-1,-2,0,1,0,0.859863,0.203613,0.366211,2.625,2.125,-0.5,0.553486,-1.11375,-2.68353
901,-5,-3,-2,-1,-1,-2,0,-3,0.859863,0.203613,0.366211,2.625,2.125,-0.5,0.553486,-1.11375,-2.68353
901,13,8,3,0,-2,0,0,2,0.859863,0.203613,0.366211,2.625,2.125,-0.5,0.553486,-1.11375,-2.68353
918,-8,-2,-1,0,-1,-1,-1,-3,0.853516,0.210449,0.373535,2,1.9375,-0.75,0.552713,-1.11278,-2.68212
918,0,-1,0,-1,-1,0,-2,-2,0.853516,0.210449,0.373535,2,1.9375,-0.75,0.552713,-1.11278,-2.68212
919,1,0,-1,0,0,1,-2,-1,0.853516,0.210449,0.373535,2,1.9375,-0.75,0.552713,-1.11278,-2.68212
919,-3,5,-2,-2,-1,-1,-1,2,0.853516,0.210449,0.373535,2,1.9375,-0.75,0.552713,-1.11278,-2.68212
931,3,-2,2,-1,-1,0,-1,0,0.85791,0.221191,0.360352,-1.9375,2,-1.1875,0.552239,-1.11224,-2.6823
931,-3,-3,-2,-1,-1,-1,-3,-1,0.85791,0.221191,0.360352,-1.9375,2,-1.1875,0.552239,-1.11224,-2.6823
938,0,0,0,1,-3,-3,-1,-1,0.85791,0.221191,0.360352,-1.9375,2,-1.1875,0.552239,-1.11224,-2.6823
938,-1,1,1,-1,0,-1,-1,0,0.85791,0.221191,0.360352,-1.9375,2,-1.1875,0.552239,-1.11224,-2.6823
947,2,1,0,-1,0,0,-1,1,0.856934,0.200684,0.372559,-4.9375,1.5625,-0.625,0.548723,-1.11158,-2.68061
947,-1,0,0,1,1,-2,-1,-1,0.856934,0.200684,0.372559,-4.9375,1.5625,-0.625,0.548723,-1.11158,-2.68061
961,1,0,-2,-2,0,1,1,-1,0.856934,0.200684,0.372559,-4.9375,1.5625,-0.625,0.548723,-1.11158,-2.68061
961,-5,-6,-3,0,-1,0,0,-3,0.856934,0.200684,0.372559,-4.9375,1.5625,-0.625,0.548723,-1.11158,-2.68061
979,1,-1,-2,-1,-3,-2,0,0,0.863281,0.179688,0.378906,-5.75,1.0625,-0.625,0.544614,-1.11141,-2.67872
979,0,1,-1,0,-1,-1,-1,-1,0.863281,0.179688,0.378906,-5.75,1.0625,-0.625,0.544614,-1.11141,-2.67872
979,-1,0,1,-2,-2,1,-2,0,0.863281,0.179688,0.378906,-5.75,1.0625,-0.625,0.544614,-1.11141,-2.67872
979,-2,1,0,-1,-2,-1,0,-1,0.863281,0.179688,0.378906,-5.75,1.0625,-0.625,0.544614,-1.11141,-2.67872
991,2,26,3,1,2,0,-3,0,0.853027,0.179199,0.376465,-1.875,0.375,-0.1875,0.54152,-1.11136,-2.67642
991,-4,-43,-9,-2,-2,-2,-2,-2,0.853027,0.179199,0.376465,-1.875,0.375,-0.1875,0.54152,-1.11136,-2.67642
999,1,-20,-3,-1,-1,-3,-1,-2,0.853027,0.179199,0.376465,-1.875,0.375,-0.1875,0.54152,-1.11136,-2.67642
999,-6,1,-1,-1,-1,-3,0,0,0.853027,0.179199,0.376465,-1.875,0.375,-0.1875,0.54152,-1.11136,-2.67642
1008,2,20,4,-1,-1,1,2,0,0.848633,0.194336,0.370117,1.125,-0.25,-0.125,0.540575,-1.11134,-2.67536
1008,-5,7,1,0,-1,0,-1,0,0.848633,0.194336,0.370117,1.125,-0.25,-0.125,0.540575,-1.11134,-2.67536
1022,-1,-1,2,-1,-1,0,-1,-1,0.848633,0.194336,0.370117,1.125,-0.25,-0.125,0.540575,-1.11134,-2.67536
1022,-3,-2,-4,-3,-3,-2,-3,-2,0.848633,0.194336,0.370117,1.125,-0.25,-0.125,0.540575,-1.11134,-2.67536
1030,1,-15,-2,0,-3,0,-1,-1,0.853516,0.20459,0.366211,1.9375,-0.1875,0.0625,0.540674,-1.11162,-2.6747
1030,3,18,1,0,-1,1,2,0,0.853516,0.20459,0.366211,1.9375,-0.1875,0.0625,0.540674,-1.11162,-2.6747
1036,1,1,0,1,2,-1,-2,0,0.853516,0.20459,0.366211,1.9375,-0.1875,0.0625,0.540674,-1.11162,-2.6747
1036,1,8,3,0,0,1,-2,0,0.853516,0.20459,0.366211,1.9375,-0.1875,0.0625,0.540674,-1.11162,-2.6747
1051,0,15,-2,0,-1,-1,-1,-1,0.857422,0.202637,0.365234,-0.0625,-0.0625,0.375,0.540397,-1.11153,-2.67451
1051,-1,2,1,0,-1,-2,-1,0,0.857422,0.202637,0.365234,-0.0625,-0.0625,0.375,0.540397,-1.11153,-2.67451
1059,4,10,1,-1,-1,-3,0,1,0.857422,0.202637,0.365234,-0.0625,-0.0625,0.375,0.540397,-1.11153,-2.67451
1059,-3,-4,0,0,-2,1,-1,-1,0.857422,0.202637,0.365234,-0.0625,-0.0625,0.375,0.540397,-1.11153,-2.67451
1068,2,0,2,-1,0,1,1,1,0.850098,0.185547,0.376953,-0.4375,0.375,0.9375,0.540017,-1.11154,-2.67413
1068,-2,-2,2,1,1,-1,-1,-2,0.850098,0.185547,0.376953,-0.4375,0.375,0.9375,0.540017,-1.11154,-2.67413
1081,-1,-2,-1,-2,-1,-3,-1,-1,0.850098,0.185547,0.376953,-0.4375,0.375,0.9375,0.540017,-1.11154,-2.67413
1081,-3,-2,-2,0,0,-1,0,1,0.850098,0.185547,0.376953,-0.4375,0.375,0.9375,0.540017,-1.11154,-2.67413
1089,-4,-16,-4,1,-2,-1,-1,-2,0.850586,0.182617,0.373047,3.0625,0.1875,1.0625,0.538408,-1.1118,-2.67165
1089,-1,3,-1,-1,-2,0,-1,0,0.850586,0.182617,0.373047,3.0625,0.1875,1.0625,0.538408,-1.1118,-2.67165
1113,0,-1,-1,-3,-3,0,-1,-2,0.850586,0.182617,0.373047,3.0625,0.1875,1.0625,0.538408,-1.1118,-2.67165
1113,6,-4,-2,-1,1,0,1,-1,0.850586,0.182617,0.373047,3.0625,0.1875,1.0625,0.538408,-1.1118,-2.67165
1114,-7,-7,-3,-5,0,-2,-1,-2,0.848633,0.205566,0.379395,4.6875,-0.3125,0.625,0.538844,-1.11173,-2.67045
1114,-5,-8,-3,-3,0,-1,-1,-3,0.848633,0.205566,0.379395,4.6875,-0.3125,0.625,0.538844,-1.11173,-2.67045
1135,-1,6,-1,0,-2,0,-1,1,0.848633,0.205566,0.379395,4.6875,-0.3125,0.625,0.538844,-1.11173,-2.67045
1135,5,-3,2,-1,0,-1,-2,-3,0.848633,0.205566,0.379395,4.6875,-0.3125,0.625,0.538844,-1.11173,-2.67045
1136,1,-5,0,-1,-1,-1,1,-1,0.856934,0.214355,0.365723,-0.6875,-0.3125,0.5625,0.538844,-1.11173,-2.67045
1136,-1,6,0,0,0,-1,1,-2,0.856934,0.214355,0.365723,-0.6875,-0.3125,0.5625,0.538844,-1.11173,-2.67045
1149,-3,-4,-2,-1,-2,-1,-2,-1,0.856934,0.214355,0.365723,-0.6875,-0.3125,0.5625,0.538844,-1.11173,-2.67045
1149,0,1,-4,-1,-1,-1,-1,-2,0.856934,0.214355,0.365723,-0.6875,-0.3125,0.5625,0.538844,-1.11173,-2.67045
1158,6,2,-1,0,-2,0,-3,-1,0.866211,0.199219,0.37207,-3.625,-0.0625,1.5625,0.535512,-1.11204,-2.66836
1158,-3,-25,-3,0,-2,-1,-1,0,0.866211,0.199219,0.37207,-3.625,-0.0625,1.5625,0.535512,-1.11204,-2.66836
1172,-3,4,-2,0,-1,-3,0,-3,0.866211,0.199219,0.37207,-3.625,-0.0625,1.5625,0.535512,-1.11204,-2.66836
1172,-7,-11,-2,-1,-1,-2,-2,0,0.866211,0.199219,0.37207,-3.625,-0.0625,1.5625,0.535512,-1.11204,-2.66836
1174,-1,-2,-1,-1,1,-1,0,-1,0.858887,0.182617,0.375488,-1.1875,-0.25,1.8125,0.532077,-1.11265,-2.66553
1174,1,10,1,-1,0,-1,-1,0,0.858887,0.182617,0.375488,-1.1875,-0.25,1.8125,0.532077,-1.11265,-2.66553
1195,0,4,-1,-1,0,-1,0,-1,0.858887,0.182617,0.375488,-1.1875,-0.25,1.8125,0.532077,-1.11265,-2.66553
1195,4,-1,1,-3,-1,0,1,0,0.858887,0.182617,0.375488,-1.1875,-0.25,1.8125,0.532077,-1.11265,-2.66553
1196,-5,10,1,-1,-1,-1,-1,0,0.857422,0.193848,0.378418,1.5,-0.3125,1.3125,0.530488,-1.11306,-2.66338
1196,6,-32,0,-1,-1,0,0,0,0.857422,0.193848,0.378418,1.5,-0.3125,1.3125,0.530488,-1.11306,-2.66338
1209,-4,7,-7,-1,0,-1,-1,-3,0.857422,0.193848,0.378418,1.5,-0.3125,1.3125,0.530488,-1.11306,-2.66338
1209,0,-1,-2,0,-2,-2,-2,0,0.857422,0.193848,0.378418,1.5,-0.3125,1.3125,0.530488,-1.11306,-2.66338
1218,3,8,2,0,-1,0,0,2,0.85498,0.204102,0.380371,1.8125,-0.5625,1.1875,0.529649,-1.11317,-2.66195
1218,3,39,4,2,0,-2,0,0,0.85498,0.204102,0.380371,1.8125,-0.5625,1.1875,0.529649,-1.11317,-2.66195
1232,-6,-50,-5,0,-3,-1,-2,-2,0.85498,0.204102,0.380371,1.8125,-0.5625,1.1875,0.529649,-1.11317,-2.66195
1232,-6,1,1,1,-2,0,1,0,0.85498,0.204102,0.380371,1.8125,-0.5625,1.1875,0.529649,-1.11317,-2.66195
1234,-2,-9,-4,0,-2,-1,-1,-2,0.847656,0.202148,0.380859,-0.0625,-0.125,1.625,0.527742,-1.11318,-2.66005
1234,1,19,3,1,-1,-1,0,0,0.847656,0.202148,0.380859,-0.0625,-0.125,1.625,0.527742,-1.11318,-2.66005
1255,8,21,3,-1,2,-1,1,2,0.847656,0.202148,0.380859,-0.0625,-0.125,1.625,0.527742,-1.11318,-2.66005
1255,-3,-1,-2,-2,0,-1,-1,-3,0.847656,0.202148,0.380859,-0.0625,-0.125,1.625,0.527742,-1.11318,-2.66005
1256,-2,-11,-2,-3,-1,-2,0,0,0.852051,0.194336,0.380371,0.125,0.125,2.125,0.525268,-1.11316,-2.65746
1256,0,1,0,-4,-2,0,-2,0,0.852051,0.194336,0.380371,0.125,0.125,2.125,0.525268,-1.11316,-2.65746
1269,-4,12,-1,-2,-1,1,-2,-2,0.852051,0.194336,0.380371,0.125,0.125,2.125,0.525268,-1.11316,-2.65746
1269,-4,-29,-3,-1,-1,-2,1,-2,0.852051,0.194336,0.380371,0.125,0.125,2.125,0.525268,-1.11316,-2.65746
1278,0,-9,-2,-1,-1,-2,-1,0,0.849609,0.195312,0.375977,1.5625,0.0625,1.5,0.523709,-1.11347,-2.65534
1278,-1,0,-4,0,-1,0,-1,0,0.849609,0.195312,0.375977,1.5625,0.0625,1.5,0.523709,-1.11347,-2.65534
1291,2,-12,4,0,1,-1,2,3,0.849609,0.195312,0.375977,1.5625,0.0625,1.5,0.523709,-1.11347,-2.65534
1291,-1,4,-2,-2,-1,0,-1,0,0.849609,0.195312,0.375977,1.5625,0.0625,1.5,0.523709,-1.11347,-2.65534
1300,-5,-4,-7,-2,-1,-2,-1,-2,0.857422,0.209961,0.375977,1.3125,-0.375,1,0.523438,-1.1136,-2.65459
1300,-3,-17,-3,-2,-1,-3,0,-1,0.857422,0.209961,0.375977,1.3125,-0.375,1,0.523438,-1.1136,-2.65459
1315,-2,7,0,-3,-1,1,-1,-1,0.857422,0.209961,0.375977,1.3125,-0.375,1,0.523438,-1.1136,-2.65459
1315,0,3,0,0,0,-2,0,1,0.857422,0.209961,0.375977,1.3125,-0.375,1,0.523438,-1.1136,-2.65459
1317,0,-8,-1,-2,0,-1,-1,-2,0.858398,0.201172,0.379395,1.5625,-0.375,1.75,0.522179,-1.1138,-2.65274
1317,-4,4,-1,0,1,-1,-1,-2,0.858398,0.201172,0.379395,1.5625,-0.375,1.75,0.522179,-1.1138,-2.65274
1329,0,-2,-1,0,-2,0,2,-1,0.858398,0.201172,0.379395,1.5625,-0.375,1.75,0.522179,-1.1138,-2.65274
1329,2,6,0,1,-1,-1,-1,0,0.858398,0.201172,0.379395,1.5625,-0.375,1.75,0.522179,-1.1138,-2.65274
1338,0,-1,-2,-1,-2,0,-1,-4,0.858398,0.200684,0.375977,0.1875,0,1.5625,0.520508,-1.11398,-2.651
1338,-1,0,-3,-1,0,0,-1,-2,0.858398,0.200684,0.375977,0.1875,0,1.5625,0.520508,-1.11398,-2.651
1352,-7,2,-2,-2,1,0,-2,-1,0.858398,0.200684,0.375977,0.1875,0,1.5625,0.520508,-1.11398,-2.651
1352,1,9,-1,0,1,-1,-2,0,0.858398,0.200684,0.375977,0.1875,0,1.5625,0.520508,-1.11398,-2.651
1360,-2,-7,-2,0,1,0,-1,-1,0.856934,0.201172,0.373535,0.125,0.25,1.75,0.518688,-1.11405,-2.64898
1360,0,-17,-3,-2,-2,0,-1,1,0.856934,0.201172,0.373535,0.125,0.25,1.75,0.518688,-1.11405,-2.64898
1375,3,-3,-1,1,-3,-2,-1,-1,0.856934,0.201172,0.373535,0.125,0.25,1.75,0.518688,-1.11405,-2.64898
1375,1,17,3,-2,-2,-1,0,0,0.856934,0.201172,0.373535,0.125,0.25,1.75,0.518688,-1.11405,-2.64898
1377,1,-3,-1,-2,0,-2,0,-1,0.852539,0.212891,0.374023,1.5625,-0.25,1.5625,0.518504,-1.11424,-2.64812
1377,-7,2,-2,-4,0,-2,0,-1,0.852539,0.212891,0.374023,1.5625,-0.25,1.5625,0.518504,-1.11424,-2.64812
1388,3,3,2,-2,-2,0,-2,1,0.852539,0.212891,0.374023,1.5625,-0.25,1.5625,0.518504,-1.11424,-2.64812
1388,3,30,-1,0,0,-1,0,-2,0.852539,0.212891,0.374023,1.5625,-0.25,1.5625,0.518504,-1.11424,-2.64812
1398,2,-8,0,1,-2,1,-1,0,0.863281,0.213867,0.367188,-0.1875,-0.5625,0.4375,0.518504,-1.11424,-2.64812
1398,2,-33,-3,2,0,-2,-2,-1,0.863281,0.213867,0.367188,-0.1875,-0.5625,0.4375,0.518504,-1.11424,-2.64812
1413,-15,-5,-5,-1,-2,-3,-2,-6,0.863281,0.213867,0.367188,-0.1875,-0.5625,0.4375,0.518504,-1.11424,-2.64812
1413,1,-3,1,0,-1,-1,0,1,0.863281,0.213867,0.367188,-0.1875,-0.5625,0.4375,0.518504,-1.11424,-2.64812
1414,-1,15,0,-1,-2,0,-1,-1,0.86084,0.196289,0.370605,-1.25,-0.375,1.1875,0.516681,-1.11439,-2.6467
1414,-2,13,0,-2,-2,0,1,-1,0.86084,0.196289,0.370605,-1.25,-0.375,1.1875,0.516681,-1.11439,-2.6467
1435,0,-7,1,-1,-1,0,0,-1,0.86084,0.196289,0.370605,-1.25,-0.375,1.1875,0.516681,-1.11439,-2.6467
1435,-3,-19,-2,0,0,0,-2,-2,0.86084,0.196289,0.370605,-1.25,-0.375,1.1875,0.516681,-1.11439,-2.6467
1437,2,6,0,0,1,1,-3,1,0.855469,0.197266,0.369629,-1.125,-0.0625,1.1875,0.514939,-1.11466,-2.6454
1437,-1,5,1,-1,-2,0,0,0,0.855469,0.197266,0.369629,-1.125,-0.0625,1.1875,0.514939,-1.11466,-2.6454
1457,1,-3,0,-1,-1,-1,0,1,0.855469,0.197266,0.369629,-1.125,-0.0625,1.1875,0.514939,-1.11466,-2.6454
1457,-4,-8,0,0,-1,0,1,-1,0.855469,0.197266,0.369629,-1.125,-0.0625,1.1875,0.514939,-1.11466,-2.6454
1459,-8,-18,-3,-1,-1,0,-2,-2,0.847656,0.195801,0.374023,-1.0625,-0.125,1,0.51347,-1.11472,-2.64425
1459,-4,12,-1,-2,-1,-2,-2,-3,0.847656,0.195801,0.374023,-1.0625,-0.125,1,0.51347,-1.11472,-2.64425
1473,2,0,-3,-1,0,-1,-1,1,0.847656,0.195801,0.374023,-1.0625,-0.125,1,0.51347,-1.11472,-2.64425
1473,1,-10,-3,0,-2,0,-4,-1,0.847656,0.195801,0.374023,-1.0625,-0.125,1,0.51347,-1.11472,-2.64425
1474,0,-3,2,-1,-3,-1,-2,1,0.844238,0.203613,0.370605,-0.875,-0.5,0.375,0.513195,-1.11462,-2.64405
1474,-4,8,2,-1,0,-1,0,-1,0.844238,0.203613,0.370605,-0.875,-0.5,0.375,0.513195,-1.11462,-2.64405
1495,-4,-18,-5,0,0,-2,-2,-2,0.844238,0.203613,0.370605,-0.875,-0.5,0.375,0.513195,-1.11462,-2.64405
1495,-4,-60,-7,-2,-1,-2,0,-3,0.844238,0.203613,0.370605,-0.875,-0.5,0.375,0.513195,-1.11462,-2.64405
1497,5,8,-2,0,-2,-1,1,-1,0.845215,0.199219,0.381836,-1.1875,-0.75,0.125,0.512296,-1.11471,-2.64359
1497,-1,1,0,0,-2,0,-1,-2,0.845215,0.199219,0.381836,-1.1875,-0.75,0.125,0.512296,-1.11471,-2.64359
1518,3,11,2,-2,-1,-3,1,0,0.845215,0.199219,0.381836,-1.1875,-0.75,0.125,0.512296,-1.11471,-2.64359
1518,7,21,3,0,-1,1,1,2,0.845215,0.199219,0.381836,-1.1875,-0.75,0.125,0.512296,-1.11471,-2.64359
1519,-4,-6,-2,1,0,-2,0,-1,0.852051,0.200684,0.371094,-1.3125,-1.0625,0.5625,0.511423,-1.11489,-2.64323
1519,-2,-8,-2,0,-2,-1,-1,-1,0.852051,0.200684,0.371094,-1.3125,-1.0625,0.5625,0.511423,-1.11489,-2.64323
1533,-4,11,0,1,-3,-1,-3,-4,0.852051,0.200684,0.371094,-1.3125,-1.0625,0.5625,0.511423,-1.11489,-2.64323
1533,-1,10,-3,-4,-2,0,-3,-2,0.852051,0.200684,0.371094,-1.3125,-1.0625,0.5625,0.511423,-1.11489,-2.64323
1534,-1,3,0,0,1,0,-1,0,0.850586,0.193848,0.375488,-1.625,-0.875,0.375,0.509973,-1.11509,-2.64242
1534,-3,3,-3,-2,-2,-1,-1,-1,0.850586,0.193848,0.375488,-1.625,-0.875,0.375,0.509973,-1.11509,-2.64242
1555,2,-2,1,0,-1,0,0,2,0.850586,0.193848,0.375488,-1.625,-0.875,0.375,0.509973,-1.11509,-2.64242
1555,-6,-3,-3,-1,-3,-1,-3,0,0.850586,0.193848,0.375488,-1.625,-0.875,0.375,0.509973,-1.11509,-2.64242
1557,1,0,0,-3,-1,-1,-1,1,0.845215,0.190918,0.372559,-1.4375,-1,0.5,0.508755,-1.11548,-2.64176
1557,9,3,-3,-2,-1,-1,-1,1,0.845215,0.190918,0.372559,-1.4375,-1,0.5,0.508755,-1.11548,-2.64176
1577,2,-4,-2,-2,0,0,0,-1,0.845215,0.190918,0.372559,-1.4375,-1,0.5,0.508755,-1.11548,-2.64176
1577,-7,1,0,-3,0,-1,-2,-3,0.845215,0.190918,0.372559,-1.4375,-1,0.5,0.508755,-1.11548,-2.64176
1579,-2,2,1,0,-2,-2,0,-1,0.853027,0.197266,0.371582,-1.4375,-0.8125,0.1875,0.508069,-1.11568,-2.64171
1579,6,-17,-3,-1,1,-1,0,0,0.853027,0.197266,0.371582,-1.4375,-0.8125,0.1875,0.508069,-1.11568,-2.64171
1592,-2,2,1,-2,-1,-1,0,-1,0.853027,0.197266,0.371582,-1.4375,-0.8125,0.1875,0.508069,-1.11568,-2.64171
1592,1,9,2,1,-2,-2,1,0,0.853027,0.197266,0.371582,-1.4375,-0.8125,0.1875,0.508069,-1.11568,-2.64171
1599,-5,-3,0,2,-1,0,-4,-4,0.858887,0.201172,0.37207,-1.375,-0.875,0.3125,0.507469,-1.11595,-2.64155
1599,-2,12,1,-2,-2,1,-3,0,0.858887,0.201172,0.37207,-1.375,-0.875,0.3125,0.507469,-1.11595,-2.64155
1615,-4,-14,-2,1,-1,0,-1,-1,0.858887,0.201172,0.37207,-1.375,-0.875,0.3125,0.507469,-1.11595,-2.64155
1615,-7,-5,-3,-2,-1,-3,-1,0,0.858887,0.201172,0.37207,-1.375,-0.875,0.3125,0.507469,-1.11595,-2.64155
1617,-4,6,-3,-2,-1,-3,0,-2,0.861328,0.206543,0.378418,-1.75,-1,0.375,0.506783,-1.11615,-2.6415
1617,0,3,-1,1,-1,-2,-2,-1,0.861328,0.206543,0.378418,-1.75,-1,0.375,0.506783,-1.11615,-2.6415
1638,-2,6,1,-2,0,0,1,0,0.861328,0.206543,0.378418,-1.75,-1,0.375,0.506783,-1.11615,-2.6415
1638,0,2,-3,-1,-1,-2,-1,-3,0.861328,0.206543,0.378418,-1.75,-1,0.375,0.506783,-1.11615,-2.6415
1639,-1,2,-1,-2,-3,0,1,-1,0.853027,0.199707,0.387695,-2.625,-1.8125,0.9375,0.505116,-1.11633,-2.64087
1639,1,-5,1,1,-3,-1,-2,-1,0.853027,0.199707,0.387695,-2.625,-1.8125,0.9375,0.505116,-1.11633,-2.64087
1652,-9,-3,-1,-3,-3,-2,-3,-3,0.853027,0.199707,0.387695,-2.625,-1.8125,0.9375,0.505116,-1.11633,-2.64087
1652,3,-3,0,0,0,1,-1,0,0.853027,0.199707,0.387695,-2.625,-1.8125,0.9375,0.505116,-1.11633,-2.64087
1659,0,-11,-5,-3,-2,-2,-2,-1,0.851074,0.200195,0.379395,-2.875,-2.375,0.5,0.504169,-1.11689,-2.641
1659,0,3,-2,-2,-1,1,-1,-1,0.851074,0.200195,0.379395,-2.875,-2.375,0.5,0.504169,-1.11689,-2.641
1675,3,2,0,0,-1,0,-2,0,0.851074,0.200195,0.379395,-2.875,-2.375,0.5,0.504169,-1.11689,-2.641
1675,0,5,2,1,-1,1,1,1,0.851074,0.200195,0.379395,-2.875,-2.375,0.5,0.504169,-1.11689,-2.641
1677,-6,19,-3,-1,-2,0,-2,-4,0.852539,0.194336,0.373047,-1.8125,-2.375,0.125,0.503627,-1.11752,-2.64125
1677,-3,-3,-2,0,-1,-1,-2,-2,0.852539,0.194336,0.373047,-1.8125,-2.375,0.125,0.503627,-1.11752,-2.64125
1698,3,1,-2,-1,0,0,-2,1,0.852539,0.194336,0.373047,-1.8125,-2.375,0.125,0.503627,-1.11752,-2.64125
1698,-1,6,-1,-1,-1,0,-2,0,0.852539,0.194336,0.373047,-1.8125,-2.375,0.125,0.503627,-1.11752,-2.64125
1700,4,6,2,-2,-1,-2,-1,-1,0.856445,0.193848,0.371094,-1.375,-2.125,-0.4375,0.503515,-1.11799,-2.6417
1700,1,-1,1,-2,0,-1,1,1,0.856445,0.193848,0.371094,-1.375,-2.125,-0.4375,0.503515,-1.11799,-2.6417
1712,-2,3,-3,-2,0,0,-2,-2,0.856445,0.193848,0.371094,-1.375,-2.125,-0.4375,0.503515,-1.11799,-2.6417
1712,-6,5,-3,-3,0,-3,-1,-2,0.856445,0.193848,0.371094,-1.375,-2.125,-0.4375,0.503515,-1.11799,-2.6417
1718,1,-4,-2,-3,0,-1,0,2,0.862305,0.194824,0.375,0.125,-1.8125,-0.5,0.504045,-1.11842,-2.64239
1718,-1,-15,-2,-1,-2,-2,0,-1,0.862305,0.194824,0.375,0.125,-1.8125,-0.5,0.504045,-1.11842,-2.64239
1735,6,-4,0,-1,0,1,1,1,0.862305,0.194824,0.375,0.125,-1.8125,-0.5,0.504045,-1.11842,-2.64239
1735,-2,-2,-1,0,-1,0,1,-1,0.862305,0.194824,0.375,0.125,-1.8125,-0.5,0.504045,-1.11842,-2.64239
1736,0,-5,1,1,0,-1,1,0,0.864746,0.200195,0.37793,1,-1.8125,-0.5625,0.504859,-1.11857,-2.64301
1736,-2,0,0,1,-3,1,-1,-1,0.864746,0.200195,0.37793,1,-1.8125,-0.5625,0.504859,-1.11857,-2.64301
1757,2,5,2,2,1,1,1,1,0.864746,0.200195,0.37793,1,-1.8125,-0.5625,0.504859,-1.11857,-2.64301
1757,3,-8,-2,-1,-2,0,-2,-2,0.864746,0.200195,0.37793,1,-1.8125,-0.5625,0.504859,-1.11857,-2.64301
1760,-3,-9,1,1,1,-1,-2,-1,0.867188,0.205078,0.378906,1.1875,-1.25,-0.75,0.505883,-1.11881,-2.64368
1760,3,7,0,-1,0,-3,-1,0,0.867188,0.205078,0.378906,1.1875,-1.25,-0.75,0.505883,-1.11881,-2.64368
1772,-7,-2,-1,-1,-3,-4,-2,-5,0.867188,0.205078,0.378906,1.1875,-1.25,-0.75,0.505883,-1.11881,-2.64368
1772,3,14,2,0,-1,-1,0,2,0.867188,0.205078,0.378906,1.1875,-1.25,-0.75,0.505883,-1.11881,-2.64368
1779,-2,-39,-5,-2,-3,-1,-1,0,0.857422,0.20459,0.378906,0.0625,-1.3125,-0.5,0.506377,-1.11872,-2.64425
1779,-7,-24,-2,-3,-1,0,-1,-2,0.857422,0.20459,0.378906,0.0625,-1.3125,-0.5,0.506377,-1.11872,-2.64425
1795,0,4,-3,0,-2,0,-2,-1,0.857422,0.20459,0.378906,0.0625,-1.3125,-0.5,0.506377,-1.11872,-2.64425
1795,-2,2,-1,-1,0,-2,-2,-1,0.857422,0.20459,0.378906,0.0625,-1.3125,-0.5,0.506377,-1.11872,-2.64425
1797,1,12,2,0,-1,1,1,1,0.857422,0.201172,0.371582,-2.75,-1.1875,-0.4375,0.505862,-1.11889,-2.64477
1797,6,9,0,-1,0,-1,2,0,0.857422,0.201172,0.371582,-2.75,-1.1875,-0.4375,0.505862,-1.11889,-2.64477
1817,-4,-4,-2,-3,-1,-1,-1,-2,0.857422,0.201172,0.371582,-2.75,-1.1875,-0.4375,0.505862,-1.11889,-2.64477
1817,-2,-6,-2,-4,-2,0,-2,-1,0.857422,0.201172,0.371582,-2.75,-1.1875,-0.4375,0.505862,-1.11889,-2.64477
1819,4,4,-1,0,-2,-1,-3,-1,0.857422,0.187988,0.373047,-2.5625,-1.25,-0.5,0.504726,-1.11919,-2.64478
1819,-3,1,-2,-2,-1,1,0,-1,0.857422,0.187988,0.373047,-2.5625,-1.25,-0.5,0.504726,-1.11919,-2.64478
1832,-2,0,0,-2,0,-1,1,0,0.857422,0.187988,0.373047,-2.5625,-1.25,-0.5,0.504726,-1.11919,-2.64478
1832,0,-1,-1,-3,0,1,0,-2,0.857422,0.187988,0.373047,-2.5625,-1.25,-0.5,0.504726,-1.11919,-2.64478
1839,3,0,3,0,0,1,2,2,0.861816,0.182617,0.387695,0.125,-1.4375,-0.5,0.504103,-1.11931,-2.64428
1839,-3,37,-1,0,-1,-2,-3,-1,0.861816,0.182617,0.387695,0.125,-1.4375,-0.5,0.504103,-1.11931,-2.64428
1856,0,-19,-3,1,-3,-3,1,0,0.861816,0.182617,0.387695,0.125,-1.4375,-0.5,0.504103,-1.11931,-2.64428
1856,2,-10,-1,-2,-1,-2,-1,-2,0.861816,0.182617,0.387695,0.125,-1.4375,-0.5,0.504103,-1.11931,-2.64428
1857,1,20,2,0,0,-1,-2,-1,0.859863,0.187988,0.37793,2.8125,-1.3125,-0.625,0.504874,-1.11947,-2.64426
1857,-5,-22,-4,-2,-1,-2,-3,-2,0.859863,0.187988,0.37793,2.8125,-1.3125,-0.625,0.504874,-1.11947,-2.64426
1877,4,5,0,1,0,0,1,3,0.859863,0.187988,0.37793,2.8125,-1.3125,-0.625,0.504874,-1.11947,-2.64426
1877,0,-5,-2,0,-1,-3,-1,-2,0.859863,0.187988,0.37793,2.8125,-1.3125,-0.625,0.504874,-1.11947,-2.64426
1879,-3,7,-1,0,-1,-2,1,0,0.859375,0.202637,0.371582,3.375,-1.1875,-0.6875,0.506741,-1.11956,-2.64502
1879,-1,-1,-1,-1,-2,-1,0,0,0.859375,0.202637,0.371582,3.375,-1.1875,-0.6875,0.506741,-1.11956,-2.64502
1892,8,0,1,-1,1,-1,0,2,0.859375,0.202637,0.371582,3.375,-1.1875,-0.6875,0.506741,-1.11956,-2.64502
1892,-3,-4,-1,0,-3,-1,-2,-1,0.859375,0.202637,0.371582,3.375,-1.1875,-0.6875,0.506741,-1.11956,-2.64502
1899,-1,-4,-3,-2,0,-1,-2,-2,0.856445,0.197754,0.370117,0.8125,-1.125,-0.625,0.507323,-1.11953,-2.64548
1899,0,-3,-1,-1,-2,-1,-1,0,0.856445,0.197754,0.370117,0.8125,-1.125,-0.625,0.507323,-1.11953,-2.64548
1915,0,-2,2,0,-1,-1,0,-2,0.856445,0.197754,0.370117,0.8125,-1.125,-0.625,0.507323,-1.11953,-2.64548
1915,-1,28,1,-1,0,0,0,-1,0.856445,0.197754,0.370117,0.8125,-1.125,-0.625,0.507323,-1.11953,-2.64548
1916,-4,-26,-4,-3,-2,0,-1,-1,0.854492,0.192871,0.371582,-0.8125,-0.875,-0.125,0.507214,-1.11962,-2.64529
1916,1,-1,-2,0,0,-1,-1,0,0.854492,0.192871,0.371582,-0.8125,-0.875,-0.125,0.507214,-1.11962,-2.64529
1937,-1,4,2,0,-1,-2,-1,-1,0.854492,0.192871,0.371582,-0.8125,-0.875,-0.125,0.507214,-1.11962,-2.64529
1937,-4,5,0,-1,-1,-1,0,-1,0.854492,0.192871,0.371582,-0.8125,-0.875,-0.125,0.507214,-1.11962,-2.64529
1939,-8,3,-1,0,1,-4,0,-2,0.853027,0.1875,0.373535,0.8125,-0.625,-0.125,0.507018,-1.11965,-2.64522
1939,0,-4,-2,-1,-1,0,0,-1,0.853027,0.1875,0.373535,0.8125,-0.625,-0.125,0.507018,-1.11965,-2.64522
1952,-1,4,0,-3,-1,0,-3,0,0.853027,0.1875,0.373535,0.8125,-0.625,-0.125,0.507018,-1.11965,-2.64522
1952,0,-7,-2,-1,0,-1,-1,0,0.853027,0.1875,0.373535,0.8125,-0.625,-0.125,0.507018,-1.11965,-2.64522
1960,0,-5,-3,-2,-1,0,-1,-1,0.855957,0.195801,0.367188,2.25,0,0.375,0.506978,-1.11959,-2.64434
1960,-3,3,-1,-1,-1,-2,-3,-1,0.855957,0.195801,0.367188,2.25,0,0.375,0.506978,-1.11959,-2.64434
1975,-1,-1,0,0,-2,-1,-2,0,0.855957,0.195801,0.367188,2.25,0,0.375,0.506978,-1.11959,-2.64434
1975,7,-8,-1,-1,0,1,1,2,0.855957,0.195801,0.367188,2.25,0,0.375,0.506978,-1.11959,-2.64434
1977,2,1,-1,-1,-1,-1,0,-1,0.859375,0.199219,0.370117,1.1875,0.625,0.25,0.506808,-1.11932,-2.64373
1977,2,1,1,0,2,1,0,-1,0.859375,0.199219,0.370117,1.1875,0.625,0.25,0.506808,-1.11932,-2.64373
1998,3,0,-1,0,0,0,-1,-2,0.859375,0.199219,0.370117,1.1875,0.625,0.25,0.506808,-1.11932,-2.64373
1998,3,4,1,0,-1,-1,-2,-1,0.859375,0.199219,0.370117,1.1875,0.625,0.25,0.506808,-1.11932,-2.64373
2000,-3,0,0,0,-3,-2,-2,-3,0.837891,0.195312,0.382324,0.625,0.625,0.8125,0.506503,-1.11945,-2.64347
2000,-3,-26,-6,0,0,0,0,-2,0.837891,0.195312,0.382324,0.625,0.625,0.8125,0.506503,-1.11945,-2.64347
2011,0,-2,-1,-3,-1,-2,0,-1,0.837891,0.195312,0.382324,0.625,0.625,0.8125,0.506503,-1.11945,-2.64347
2011,-3,-2,-3,-1,1,0,-1,-2,0.837891,0.195312,0.382324,0.625,0.625,0.8125,0.506503,-1.11945,-2.64347
2021,-8,-1,-3,-3,-4,0,0,-3,0.855957,0.194336,0.370605,-1.5625,0.0625,0.3125,0.505431,-1.11936,-2.64299
2021,-3,1,0,-1,-1,-1,-2,-1,0.855957,0.194336,0.370605,-1.5625,0.0625,0.3125,0.505431,-1.11936,-2.64299
2034,-5,3,2,-2,1,0,-1,-3,0.855957,0.194336,0.370605,-1.5625,0.0625,0.3125,0.505431,-1.11936,-2.64299
2034,-3,0,1,-3,-2,-2,-3,-1,0.855957,0.194336,0.370605,-1.5625,0.0625,0.3125,0.505431,-1.11936,-2.64299
2037,1,13,0,1,0,2,-1,2,0.855957,0.190918,0.37207,-2.125,0.3125,0.5625,0.503313,-1.11917,-2.64155
2037,1,1,-1,-2,-1,0,-2,-1,0.855957,0.190918,0.37207,-2.125,0.3125,0.5625,0.503313,-1.11917,-2.64155
2057,-4,-7,-3,-1,-3,-2,-1,-1,0.855957,0.190918,0.37207,-2.125,0.3125,0.5625,0.503313,-1.11917,-2.64155
2057,0,-3,-1,2,-1,-1,1,0,0.855957,0.190918,0.37207,-2.125,0.3125,0.5625,0.503313,-1.11917,-2.64155
2059,4,4,0,1,1,0,0,1,0.858398,0.193848,0.371582,-0.625,0.0625,1.25,0.501643,-1.1192,-2.64008
2059,-6,4,0,0,-1,-1,1,-1,0.858398,0.193848,0.371582,-0.625,0.0625,1.25,0.501643,-1.1192,-2.64008
2071,3,3,-1,0,0,1,1,1,0.858398,0.193848,0.371582,-0.625,0.0625,1.25,0.501643,-1.1192,-2.64008
2071,4,4,2,1,-1,0,-2,1,0.858398,0.193848,0.371582,-0.625,0.0625,1.25,0.501643,-1.1192,-2.64008
2081,-1,-9,-1,3,-2,0,-2,-2,0.852539,0.205078,0.373535,0.0625,-0.3125,1.375,0.501067,-1.11917,-2.63938
2081,-3,0,1,0,-1,-1,-1,-1,0.852539,0.205078,0.373535,0.0625,-0.3125,1.375,0.501067,-1.11917,-2.63938
2095,-5,2,-4,-2,0,-2,-3,-2,0.852539,0.205078,0.373535,0.0625,-0.3125,1.375,0.501067,-1.11917,-2.63938
2095,1,-5,0,-1,0,0,1,0,0.852539,0.205078,0.373535,0.0625,-0.3125,1.375,0.501067,-1.11917,-2.63938
2097,-4,-4,-1,-3,-1,-3,-2,-1,0.851562,0.211914,0.369629,0.25,-0.375,0.875,0.501148,-1.11929,-2.6395
2097,0,2,0,-2,-1,0,1,0,0.851562,0.211914,0.369629,0.25,-0.375,0.875,0.501148,-1.11929,-2.6395
2118,-1,2,1,0,0,-1,-1,0,0.851562,0.211914,0.369629,0.25,-0.375,0.875,0.501148,-1.11929,-2.6395
2118,-4,-6,-2,0,-2,-2,0,-1,0.851562,0.211914,0.369629,0.25,-0.375,0.875,0.501148,-1.11929,-2.6395
2119,-1,2,-4,-1,0,-2,0,-2,0.848145,0.199219,0.366211,-1.3125,-0.5,0.5,0.500588,-1.11947,-2.63938
2119,-6,-27,-4,-2,-2,-2,-1,-3,0.848145,0.199219,0.366211,-1.3125,-0.5,0.5,0.500588,-1.11947,-2.63938
2131,0,1,0,-1,-2,-1,0,-2,0.848145,0.199219,0.366211,-1.3125,-0.5,0.5,0.500588,-1.11947,-2.63938
2131,-1,-5,-2,-3,-3,1,-2,-3,0.848145,0.199219,0.366211,-1.3125,-0.5,0.5,0.500588,-1.11947,-2.63938
2141,0,4,1,-1,0,-1,-1,0,0.853027,0.193359,0.370117,-2.6875,-0.5625,0.6875,0.498685,-1.1194,-2.63835
2141,1,8,1,-1,-1,-1,-2,1,0.853027,0.193359,0.370117,-2.6875,-0.5625,0.6875,0.498685,-1.1194,-2.63835
2156,1,-3,-2,-2,-1,-1,-1,0,0.853027,0.193359,0.370117,-2.6875,-0.5625,0.6875,0.498685,-1.1194,-2.63835
2156,-5,-4,-1,-3,-2,-2,-2,-2,0.853027,0.193359,0.370117,-2.6875,-0.5625,0.6875,0.498685,-1.1194,-2.63835
2157,0,-1,1,0,0,-1,-1,-1,0.85791,0.189453,0.364746,-1,-0.5625,0.625,0.498685,-1.1194,-2.63835
2157,4,17,3,0,0,-1,-2,2,0.85791,0.189453,0.364746,-1,-0.5625,0.625,0.498685,-1.1194,-2.63835
2177,-2,-15,-2,0,-1,-2,-1,-2,0.85791,0.189453,0.364746,-1,-0.5625,0.625,0.498685,-1.1194,-2.63835
2177,-1,1,0,-1,0,-2,0,-1,0.85791,0.189453,0.364746,-1,-0.5625,0.625,0.498685,-1.1194,-2.63835
2180,2,-3,0,0,0,-2,0,-1,0.862305,0.200684,0.360352,2.375,-0.3125,0.75,0.499301,-1.11974,-2.63809
2180,-3,-3,-4,-2,-1,0,0,-1,0.862305,0.200684,0.360352,2.375,-0.3125,0.75,0.499301,-1.11974,-2.63809
2192,2,6,-1,-1,-3,-1,-2,-1,0.862305,0.200684,0.360352,2.375,-0.3125,0.75,0.499301,-1.11974,-2.63809
2192,3,-1,0,0,-1,1,1,1,0.862305,0.200684,0.360352,2.375,-0.3125,0.75,0.499301,-1.11974,-2.63809
2200,5,-6,-1,-2,-1,-2,-1,1,0.856445,0.214844,0.364746,2.3125,-0.6875,0.375,0.501053,-1.11999,-2.6389
2200,-3,5,0,-2,-2,-1,-1,-3,0.856445,0.214844,0.364746,2.3125,-0.6875,0.375,0.501053,-1.11999,-2.6389
2215,-3,1,1,-3,-2,1,-2,0,0.856445,0.214844,0.364746,2.3125,-0.6875,0.375,0.501053,-1.11999,-2.6389
2215,-1,-4,-1,-3,-1,-2,-2,-1,0.856445,0.214844,0.364746,2.3125,-0.6875,0.375,0.501053,-1.11999,-2.6389
2216,-1,18,-1,-2,-2,1,-1,0,0.857422,0.212402,0.367188,-0.4375,-0.75,0.5,0.501163,-1.1199,-2.63909
2216,-1,-10,0,1,1,-2,0,-3,0.857422,0.212402,0.367188,-0.4375,-0.75,0.5,0.501163,-1.1199,-2.63909
2238,-2,-7,-1,1,-1,-1,-1,1,0.857422,0.212402,0.367188,-0.4375,-0.75,0.5,0.501163,-1.1199,-2.63909
2238,-5,-6,-2,0,-2,-1,-1,-2,0.857422,0.212402,0.367188,-0.4375,-0.75,0.5,0.501163,-1.1199,-2.63909
2240,-2,0,2,-1,-2,0,-2,-2,0.855469,0.196777,0.365234,-2,-0.9375,0.4375,0.50043,-1.12019,-2.63899
2240,-3,16,3,1,-1,0,-1,-1,0.855469,0.196777,0.365234,-2,-0.9375,0.4375,0.50043,-1.12019,-2.63899
2252,-4,-37,-7,-3,0,0,-1,-4,0.855469,0.196777,0.365234,-2,-0.9375,0.4375,0.50043,-1.12019,-2.63899
2252,0,1,-1,1,1,0,-1,0,0.855469,0.196777,0.365234,-2,-0.9375,0.4375,0.50043,-1.12019,-2.63899
2261,-1,-4,-2,-2,-2,-2,-2,0,0.857422,0.19043,0.366699,-1.625,-0.9375,0.4375,0.499311,-1.12049,-2.63851
2261,-7,-6,-3,0,-1,-1,0,-2,0.857422,0.19043,0.366699,-1.625,-0.9375,0.4375,0.499311,-1.12049,-2.63851
2276,-6,6,-1,2,0,-2,-1,-2,0.857422,0.19043,0.366699,-1.625,-0.9375,0.4375,0.499311,-1.12049,-2.63851
2276,2,1,-2,0,-1,-1,-1,-1,0.857422,0.19043,0.366699,-1.625,-0.9375,0.4375,0.499311,-1.12049,-2.63851
2277,-1,-13,0,-1,1,-2,0,1,0.86084,0.20166,0.36084,0.0625,-1.1875,0.0625,0.499927,-1.12097,-2.63909
2277,-2,-2,-3,0,0,-2,-1,-1,0.86084,0.20166,0.36084,0.0625,-1.1875,0.0625,0.499927,-1.12097,-2.63909
2298,1,10,-1,-2,-1,-1,-2,1,0.86084,0.20166,0.36084,0.0625,-1.1875,0.0625,0.499927,-1.12097,-2.63909
2298,-2,-1,-1,-1,-1,-3,-3,-2,0.86084,0.20166,0.36084,0.0625,-1.1875,0.0625,0.499927,-1.12097,-2.63909
2300,-4,-8,-3,-2,-2,0,-1,0,0.876953,0.206543,0.368652,0.625,-0.75,0,0.499927,-1.12097,-2.63909
2300,3,2,1,-4,-1,-1,-1,-2,0.876953,0.206543,0.368652,0.625,-0.75,0,0.499927,-1.12097,-2.63909
2311,-2,4,-1,-2,-1,-1,0,-3,0.876953,0.206543,0.368652,0.625,-0.75,0,0.499927,-1.12097,-2.63909
2311,-4,-1,-1,0,-2,-1,-1,0,0.876953,0.206543,0.368652,0.625,-0.75,0,0.499927,-1.12097,-2.63909
2321,1,-2,3,1,-1,-1,-3,-1,0.655273,0.211914,0.208984,4.9375,-1.5625,-2.625,0.508588,-1.12192,-2.64577
2321,-3,-1,-4,-1,1,-2,-1,-1,0.655273,0.211914,0.208984,4.9375,-1.5625,-2.625,0.508588,-1.12192,-2.64577
2335,-5,-3,-3,-2,0,-3,-1,-2,0.655273,0.211914,0.208984,4.9375,-1.5625,-2.625,0.508588,-1.12192,-2.64577
2335,-1,5,0,1,-2,0,0,0,0.655273,0.211914,0.208984,4.9375,-1.5625,-2.625,0.508588,-1.12192,-2.64577
2336,-3,-26,-5,-1,-1,-1,0,-3,1.16602,0.282715,0.768066,-7.625,-3.25,2.375,0.498752,-1.11772,-2.63923
2336,0,3,-2,-1,-3,-1,0,1,1.16602,0.282715,0.768066,-7.625,-3.25,2.375,0.498752,-1.11772,-2.63923
2358,-2,10,-1,-1,-1,0,0,-1,1.16602,0.282715,0.768066,-7.625,-3.25,2.375,0.498752,-1.11772,-2.63923
2358,-1,1,-2,-3,0,-1,2,-1,1.16602,0.282715,0.768066,-7.625,-3.25,2.375,0.498752,-1.11772,-2.63923
2359,-4,5,1,0,-1,-2,-1,-1,0.921875,0.164551,0.662109,-7.75,-1.4375,2.6875,0.48555,-1.11406,-2.62962
2359,6,-1,0,0,-2,-2,-2,1,0.921875,0.164551,0.662109,-7.75,-1.4375,2.6875,0.48555,-1.11406,-2.62962
2380,1,0,-1,0,-1,0,-1,0,0.921875,0.164551,0.662109,-7.75,-1.4375,2.6875,0.48555,-1.11406,-2.62962
2380,6,-6,-3,0,0,-2,-2,1,0.921875,0.164551,0.662109,-7.75,-1.4375,2.6875,0.48555,-1.11406,-2.62962
2388,-4,-2,-4,1,0,0,-2,-3,0.212402,0.100586,-0.0717773,2.6875,0.6875,-1.875,0.49412,-1.11599,-2.63649
2388,-4,-3,0,3,0,0,-2,0,0.212402,0.100586,-0.0717773,2.6875,0.6875,-1.875,0.49412,-1.11599,-2.63649
2396,2,4,0,6,-1,0,0,0,0.212402,0.100586,-0.0717773,2.6875,0.6875,-1.875,0.49412,-1.11599,-2.63649
2396,-2,-4,0,6,-1,-1,-1,-1,0.212402,0.100586,-0.0717773,2.6875,0.6875,-1.875,0.49412,-1.11599,-2.63649
2396,1,6,0,1,-3,-1,-2,-1,1.55029,0.327637,0.79834,-2.4375,-1.3125,-1,0.48944,-1.11413,-2.63331
2396,-1,-6,-2,-1,-1,-2,-1,-2,1.55029,0.327637,0.79834,-2.4375,-1.3125,-1,0.48944,-1.11413,-2.63331
2417,0,5,2,-4,-3,-2,0,0,1.55029,0.327637,0.79834,-2.4375,-1.3125,-1,0.48944,-1.11413,-2.63331
2417,-7,7,-4,-4,-2,-2,0,-4,1.55029,0.327637,0.79834,-2.4375,-1.3125,-1,0.48944,-1.11413,-2.63331
2419,-4,-18,-4,-2,-1,-1,0,-3,0.178711,0.0756836,-0.0839844,1.3125,0.6875,-0.8125,0.495851,-1.11648,-2.6387
2419,5,5,0,-3,-3,-1,1,-1,0.178711,0.0756836,-0.0839844,1.3125,0.6875,-0.8125,0.495851,-1.11648,-2.6387
2440,3,-7,-1,-4,-2,0,-1,1,0.178711,0.0756836,-0.0839844,1.3125,0.6875,-0.8125,0.495851,-1.11648,-2.6387
2440,-4,6,-1,-4,-2,0,-1,-2,0.178711,0.0756836,-0.0839844,1.3125,0.6875,-0.8125,0.495851,-1.11648,-2.6387
2442,0,9,-2,-2,-1,1,2,2,1.47852,0.29541,0.838379,-3.6875,-0.875,0.125,0.48735,-1.11335,-2.63232
2442,-1,-8,-3,-3,1,-1,-2,-2,1.47852,0.29541,0.838379,-3.6875,-0.875,0.125,0.48735,-1.11335,-2.63232
2455,4,4,2,-1,0,-2,-1,2,1.47852,0.29541,0.838379,-3.6875,-0.875,0.125,0.48735,-1.11335,-2.63232
2455,-12,4,-1,1,-2,0,-2,-2,1.47852,0.29541,0.838379,-3.6875,-0.875,0.125,0.48735,-1.11335,-2.63232
2456,-4,-11,-4,-1,-1,-1,-2,0,0.379395,0.15332,-0.0454102,1.875,0.6875,-1.3125,0.497048,-1.11618,-2.64045
2456,0,0,1,1,0,-2,0,-1,0.379395,0.15332,-0.0454102,1.875,0.6875,-1.3125,0.497048,-1.11618,-2.64045
2477,-4,3,-3,0,1,-1,-1,-3,0.379395,0.15332,-0.0454102,1.875,0.6875,-1.3125,0.497048,-1.11618,-2.64045
2477,4,0,0,-3,1,-1,-1,1,0.379395,0.15332,-0.0454102,1.875,0.6875,-1.3125,0.497048,-1.11618,-2.64045
2479,0,13,0,-1,0,0,-1,0,1.13477,0.18457,0.677734,-6.3125,-0.6875,0.625,0.486036,-1.11383,-2.6326
2479,-3,-3,-2,-1,-2,0,0,0,1.13477,0.18457,0.677734,-6.3125,-0.6875,0.625,0.486036,-1.11383,-2.6326
2500,-3,1,-3,-2,-3,-2,-3,-1,1.13477,0.18457,0.677734,-6.3125,-0.6875,0.625,0.486036,-1.11383,-2.6326
2500,-1,-6,-2,-3,-2,-4,0,0,1.13477,0.18457,0.677734,-6.3125,-0.6875,0.625,0.486036,-1.11383,-2.6326
2502,-2,-1,-2,-2,-1,-3,-1,0,0.832031,0.259277,0.214355,0.3125,-0.3125,-1.8125,0.494483,-1.11564,-2.64034
2502,0,4,0,0,-2,0,-2,-1,0.832031,0.259277,0.214355,0.3125,-0.3125,-1.8125,0.494483,-1.11564,-2.64034
2514,2,1,0,1,0,1,-1,-1,0.832031,0.259277,0.214355,0.3125,-0.3125,-1.8125,0.494483,-1.11564,-2.64034
2514,4,-11,-4,0,0,1,0,0,0.832031,0.259277,0.214355,0.3125,-0.3125,-1.8125,0.494483,-1.11564,-2.64034
2523,3,17,3,1,-2,-2,0,0,0.620605,0.0795898,0.347168,-6.6875,-0.1875,0.5625,0.486651,-1.11486,-2.63524
2523,-5,-31,-7,-2,-3,-2,-3,-2,0.620605,0.0795898,0.347168,-6.6875,-0.1875,0.5625,0.486651,-1.11486,-2.63524
2538,-9,-7,-2,-2,-1,1,-2,-2,0.620605,0.0795898,0.347168,-6.6875,-0.1875,0.5625,0.486651,-1.11486,-2.63524
2538,-8,-10,-5,0,0,0,-2,-2,0.620605,0.0795898,0.347168,-6.6875,-0.1875,0.5625,0.486651,-1.11486,-2.63524
2540,2,-1,0,2,1,1,-2,1,1.31592,0.341309,0.577148,0.0625,-0.5625,-1.25,0.489419,-1.11439,-2.63797
2540,1,7,0,0,-2,-2,1,3,1.31592,0.341309,0.577148,0.0625,-0.5625,-1.25,0.489419,-1.11439,-2.63797
2560,-2,-4,-1,0,-1,1,1,1,1.31592,0.341309,0.577148,0.0625,-0.5625,-1.25,0.489419,-1.11439,-2.63797
2560,7,-5,2,1,3,2,1,3,1.31592,0.341309,0.577148,0.0625,-0.5625,-1.25,0.489419,-1.11439,-2.63797
2562,-1,2,2,-1,2,1,1,-1,0.229492,0.0415039,0.0229492,-2.4375,0.4375,0.0625,0.489612,-1.11587,-2.63884
2562,1,21,0,1,2,1,-1,0,0.229492,0.0415039,0.0229492,-2.4375,0.4375,0.0625,0.489612,-1.11587,-2.63884
2574,2,-33,-5,-1,0,-2,0,-1,0.229492,0.0415039,0.0229492,-2.4375,0.4375,0.0625,0.489612,-1.11587,-2.63884
2574,4,5,2,-1,1,-1,0,-1,0.229492,0.0415039,0.0229492,-2.4375,0.4375,0.0625,0.489612,-1.11587,-2.63884
2581,2,-2,-1,-2,-2,-1,-2,0,1.53418,0.327637,0.811035,-3.125,-0.9375,-1,0.484532,-1.11314,-2.6354
2581,-3,5,3,-2,-1,1,-3,-2,1.53418,0.327637,0.811035,-3.125,-0.9375,-1,0.484532,-1.11314,-2.6354
2598,2,10,1,-4,0,0,1,0,1.53418,0.327637,0.811035,-3.125,-0.9375,-1,0.484532,-1.11314,-2.6354
2598,-10,-4,0,-3,-1,-2,-1,-3,1.53418,0.327637,0.811035,-3.125,-0.9375,-1,0.484532,-1.11314,-2.6354
2600,-4,-18,-4,0,-1,0,1,-1,0.240723,0.0932617,-0.0371094,0.1875,0.625,-1,0.485734,-1.1138,-2.63649
2600,5,7,2,-3,0,0,-1,1,0.240723,0.0932617,-0.0371094,0.1875,0.625,-1,0.485734,-1.1138,-2.63649
2620,-7,-5,-6,-1,-2,-1,-3,-2,0.240723,0.0932617,-0.0371094,0.1875,0.625,-1,0.485734,-1.1138,-2.63649
2620,1,-4,0,-1,-1,-1,1,1,0.240723,0.0932617,-0.0371094,0.1875,0.625,-1,0.485734,-1.1138,-2.63649
2622,0,6,-3,-1,-2,-2,-1,-1,0.861328,0.146973,0.510254,-6.0625,1.5625,0.6875,0.477089,-1.11126,-2.63045
2622,-2,1,-2,1,0,0,1,-1,0.861328,0.146973,0.510254,-6.0625,1.5625,0.6875,0.477089,-1.11126,-2.63045
2635,0,-1,2,2,0,-1,0,-1,0.861328,0.146973,0.510254,-6.0625,1.5625,0.6875,0.477089,-1.11126,-2.63045
2635,-4,22,0,-2,-3,1,0,-3,0.861328,0.146973,0.510254,-6.0625,1.5625,0.6875,0.477089,-1.11126,-2.63045
2641,-1,-22,0,1,-1,-1,-1,-2,0.841797,0.20459,0.383789,-1.3125,-3.125,-0.3125,0.477985,-1.11183,-2.63182
2641,0,-3,1,-2,2,-1,-1,0,0.841797,0.20459,0.383789,-1.3125,-3.125,-0.3125,0.477985,-1.11183,-2.63182
2666,0,-1,0,-2,0,-1,0,-1,0.841797,0.20459,0.383789,-1.3125,-3.125,-0.3125,0.477985,-1.11183,-2.63182
2666,3,-1,2,0,0,1,-1,1,0.841797,0.20459,0.383789,-1.3125,-3.125,-0.3125,0.477985,-1.11183,-2.63182
2667,6,13,1,0,0,-1,-2,-1,0.854004,0.196777,0.366699,-1.0625,-0.125,-0.0625,0.478078,-1.11211,-2.63228
2667,-6,-3,-2,-1,-2,0,0,-1,0.854004,0.196777,0.366699,-1.0625,-0.125,-0.0625,0.478078,-1.11211,-2.63228
2688,6,9,3,-2,-1,-1,0,0,0.854004,0.196777,0.366699,-1.0625,-0.125,-0.0625,0.478078,-1.11211,-2.63228
2688,-5,-4,-3,-1,-3,-2,-2,-1,0.854004,0.196777,0.366699,-1.0625,-0.125,-0.0625,0.478078,-1.11211,-2.63228
2690,-2,4,1,-1,0,0,-1,-1,0.860352,0.202148,0.370117,-1.9375,-0.375,0.125,0.477881,-1.11224,-2.6328
2690,3,-2,-2,2,-2,-1,-1,0,0.860352,0.202148,0.370117,-1.9375,-0.375,0.125,0.477881,-1.11224,-2.6328
2695,-2,2,0,0,0,0,-1,-1,0.860352,0.202148,0.370117,-1.9375,-0.375,0.125,0.477881,-1.11224,-2.6328
2695,7,-3,2,0,0,0,1,2,0.860352,0.202148,0.370117,-1.9375,-0.375,0.125,0.477881,-1.11224,-2.6328
2702,-6,2,-3,0,-3,-1,0,0,0.85791,0.192871,0.371582,-1.375,-0.75,0.1875,0.477611,-1.1126,-2.63296
2702,-3,-8,-6,0,-1,-3,0,-2,0.85791,0.192871,0.371582,-1.375,-0.75,0.1875,0.477611,-1.1126,-2.63296
2718,-9,-1,-2,0,1,-2,0,-3,0.85791,0.192871,0.371582,-1.375,-0.75,0.1875,0.477611,-1.1126,-2.63296
2718,1,0,0,-2,-1,0,-1,0,0.85791,0.192871,0.371582,-1.375,-0.75,0.1875,0.477611,-1.1126,-2.63296
2719,2,9,2,-1,0,1,1,0,0.856445,0.195312,0.369629,-1.5,-0.8125,0,0.477497,-1.11279,-2.63336
2719,1,13,-1,-1,0,0,-1,-1,0.856445,0.195312,0.369629,-1.5,-0.8125,0,0.477497,-1.11279,-2.63336
2740,6,-2,1,-2,-2,-1,-1,1,0.856445,0.195312,0.369629,-1.5,-0.8125,0,0.477497,-1.11279,-2.63336
2740,-13,-12,-3,0,-1,-4,-1,-4,0.856445,0.195312,0.369629,-1.5,-0.8125,0,0.477497,-1.11279,-2.63336
2742,2,10,1,1,-2,-2,0,-2,0.854004,0.196289,0.367676,-1.125,-0.8125,0.25,0.477497,-1.11324,-2.63372
2742,-5,-1,0,0,-2,-1,0,-2,0.854004,0.196289,0.367676,-1.125,-0.8125,0.25,0.477497,-1.11324,-2.63372
2755,-4,1,-2,-1,0,-2,-2,-2,0.854004,0.196289,0.367676,-1.125,-0.8125,0.25,0.477497,-1.11324,-2.63372
2755,3,5,-3,-1,1,-3,-2,0,0.854004,0.196289,0.367676,-1.125,-0.8125,0.25,0.477497,-1.11324,-2.63372
2762,2,-17,-3,-4,-1,-1,-1,-2,0.857422,0.202148,0.374512,-0.625,-1,0.3125,0.477577,-1.11337,-2.63385
2762,-11,-8,-2,-3,-3,-2,-2,-2,0.857422,0.202148,0.374512,-0.625,-1,0.3125,0.477577,-1.11337,-2.63385
2777,-10,-3,-2,0,-2,-1,-1,-3,0.857422,0.202148,0.374512,-0.625,-1,0.3125,0.477577,-1.11337,-2.63385
2777,-2,-5,-1,-2,-2,0,-1,-1,0.857422,0.202148,0.374512,-0.625,-1,0.3125,0.477577,-1.11337,-2.63385
2780,0,1,-1,1,-1,-2,-1,0,0.852539,0.201172,0.37207,0.0625,-0.9375,0.25,0.477577,-1.11337,-2.63385
2780,7,-5,0,-1,0,0,-1,0,0.852539,0.201172,0.37207,0.0625,-0.9375,0.25,0.477577,-1.11337,-2.63385
2800,-5,12,0,-1,-2,-1,-2,2,0.852539,0.201172,0.37207,0.0625,-0.9375,0.25,0.477577,-1.11337,-2.63385
2800,-2,-41,-5,0,-1,-1,-1,-2,0.852539,0.201172,0.37207,0.0625,-0.9375,0.25,0.477577,-1.11337,-2.63385
2802,-4,6,-1,-1,1,-1,-2,-1,0.851562,0.202637,0.370117,-0.3125,-0.9375,0.125,0.477956,-1.11337,-2.63423
2802,-1,-22,-2,-2,0,-2,-1,-1,0.851562,0.202637,0.370117,-0.3125,-0.9375,0.125,0.477956,-1.11337,-2.63423
2814,2,7,-3,-2,-2,-2,2,-2,0.851562,0.202637,0.370117,-0.3125,-0.9375,0.125,0.477956,-1.11337,-2.63423
2814,9,11,2,3,0,0,0,0,0.851562,0.202637,0.370117,-0.3125,-0.9375,0.125,0.477956,-1.11337,-2.63423
2823,0,-3,-3,-1,0,0,-1,-2,0.857422,0.197754,0.372559,-1.875,-0.9375,-0.125,0.477573,-1.11347,-2.63444
2823,4,-10,0,-1,0,-1,-1,1,0.857422,0.197754,0.372559,-1.875,-0.9375,-0.125,0.477573,-1.11347,-2.63444
2838,-5,0,-3,-3,1,-3,-1,-1,0.857422,0.197754,0.372559,-1.875,-0.9375,-0.125,0.477573,-1.11347,-2.63444
2838,4,-5,0,-2,-2,-1,0,1,0.857422,0.197754,0.372559,-1.875,-0.9375,-0.125,0.477573,-1.11347,-2.63444
2840,0,1,0,-2,-2,-1,-2,0,0.85791,0.191895,0.377441,-1.5625,-0.75,0.1875,0.477159,-1.11377,-2.63458
2840,-7,9,-2,-1,0,-2,-2,-3,0.85791,0.191895,0.377441,-1.5625,-0.75,0.1875,0.477159,-1.11377,-2.63458
2860,4,-4,0,-3,-1,1,-1,0,0.85791,0.191895,0.377441,-1.5625,-0.75,0.1875,0.477159,-1.11377,-2.63458
2860,1,6,0,-3,-2,0,-1,0,0.85791,0.191895,0.377441,-1.5625,-0.75,0.1875,0.477159,-1.11377,-2.63458
2862,-1,1,0,0,-1,0,-1,-1,0.856934,0.200684,0.368652,-0.0625,-0.6875,0.0625,0.477269,-1.11369,-2.63477
2862,4,3,1,1,-1,0,1,0,0.856934,0.200684,0.368652,-0.0625,-0.6875,0.0625,0.477269,-1.11369,-2.63477
2874,-8,-6,-2,1,-2,-2,-1,-4,0.856934,0.200684,0.368652,-0.0625,-0.6875,0.0625,0.477269,-1.11369,-2.63477
2874,-5,12,0,1,0,0,-1,-2,0.856934,0.200684,0.368652,-0.0625,-0.6875,0.0625,0.477269,-1.11369,-2.63477
2883,1,-41,-6,-3,-1,1,-2,0,0.86084,0.205078,0.371094,0,-0.875,-0.4375,0.477539,-1.11378,-2.63496
2883,1,18,1,-2,0,-1,-2,-1,0.86084,0.205078,0.371094,0,-0.875,-0.4375,0.477539,-1.11378,-2.63496
2897,2,-4,0,0,0,0,-1,0,0.86084,0.205078,0.371094,0,-0.875,-0.4375,0.477539,-1.11378,-2.63496
2897,-2,-5,-2,-2,-1,-1,-2,-1,0.86084,0.205078,0.371094,0,-0.875,-0.4375,0.477539,-1.11378,-2.63496
2900,-3,10,-1,-2,-1,-1,-1,-3,0.861816,0.203125,0.371094,-1.5625,-0.75,-0.4375,0.477807,-1.11396,-2.63575
2900,-2,-12,-1,-2,-1,0,0,-2,0.861816,0.203125,0.371094,-1.5625,-0.75,-0.4375,0.477807,-1.11396,-2.63575
2920,4,-4,0,-1,-2,1,1,2,0.861816,0.203125,0.371094,-1.5625,-0.75,-0.4375,0.477807,-1.11396,-2.63575
2920,-2,1,2,1,-2,0,1,-2,0.861816,0.203125,0.371094,-1.5625,-0.75,-0.4375,0.477807,-1.11396,-2.63575
2922,-3,1,-1,-1,-2,-3,1,0,0.864746,0.195801,0.371582,-2,-0.25,0,0.477504,-1.11419,-2.63608
2922,-1,4,-1,-1,-2,-2,-1,-1,0.864746,0.195801,0.371582,-2,-0.25,0,0.477504,-1.11419,-2.63608
2933,0,-1,1,-1,-1,-1,-3,0,0.864746,0.195801,0.371582,-2,-0.25,0,0.477504,-1.11419,-2.63608
2933,-2,-4,-1,0,-1,0,1,-2,0.864746,0.195801,0.371582,-2,-0.25,0,0.477504,-1.11419,-2.63608
2942,-1,-1,0,0,-1,-1,-1,0,0.858887,0.196289,0.372559,-1.5,-0.1875,0.125,0.477057,-1.11428,-2.63615
2942,-7,8,0,-2,-2,-2,0,-4,0.858887,0.196289,0.372559,-1.5,-0.1875,0.125,0.477057,-1.11428,-2.63615
2965,0,12,1,1,-2,-1,-1,1,0.858887,0.196289,0.372559,-1.5,-0.1875,0.125,0.477057,-1.11428,-2.63615
2965,0,-9,-2,-1,0,-1,-1,0,0.858887,0.196289,0.372559,-1.5,-0.1875,0.125,0.477057,-1.11428,-2.63615
2966,-2,-11,-1,-5,-2,-2,0,-3,0.847168,0.202637,0.375,-0.9375,-0.4375,-0.0625,0.477134,-1.11398,-2.63626
2966,2,0,-2,0,0,-2,0,1,0.847168,0.202637,0.375,-0.9375,-0.4375,-0.0625,0.477134,-1.11398,-2.63626
2980,2,2,0,-1,1,-1,-2,-2,0.847168,0.202637,0.375,-0.9375,-0.4375,-0.0625,0.477134,-1.11398,-2.63626
2980,-5,5,-3,-1,0,-1,-1,-3,0.847168,0.202637,0.375,-0.9375,-0.4375,-0.0625,0.477134,-1.11398,-2.63626
2981,1,15,2,-1,0,0,-1,0,0.85498,0.195312,0.371094,-0.75,-0.625,-0.5,0.477134,-1.11398,-2.63626
2981,1,-14,-1,1,0,1,-2,-1,0.85498,0.195312,0.371094,-0.75,-0.625,-0.5,0.477134,-1.11398,-2.63626
2994,2,-4,-1,0,-2,-1,-1,0,0.85498,0.195312,0.371094,-0.75,-0.625,-0.5,0.477134,-1.11398,-2.63626
2994,0,-9,-2,-2,-1,-1,-3,0,0.85498,0.195312,0.371094,-0.75,-0.625,-0.5,0.477134,-1.11398,-2.63626
3003,0,0,-3,-1,-2,-2,-3,-1,0.85791,0.200684,0.375488,-2.125,-0.5625,-0.6875,0.477447,-1.11415,-2.63733
3003,6,7,-2,1,-2,1,0,0,0.85791,0.200684,0.375488,-2.125,-0.5625,-0.6875,0.477447,-1.11415,-2.63733
3018,-3,3,-1,-2,0,-2,-1,-2,0.85791,0.200684,0.375488,-2.125,-0.5625,-0.6875,0.477447,-1.11415,-2.63733
3018,2,-17,-4,-1,0,-1,-1,-2,0.85791,0.200684,0.375488,-2.125,-0.5625,-0.6875,0.477447,-1.11415,-2.63733
3020,-1,6,2,3,0,-2,-2,-1,0.859863,0.19043,0.364258,-3.5,-0.6875,-0.8125,0.476919,-1.11429,-2.63811
3020,5,-2,1,-1,1,0,-2,2,0.859863,0.19043,0.364258,-3.5,-0.6875,-0.8125,0.476919,-1.11429,-2.63811
3040,-5,-5,-3,-1,-2,0,-2,-2,0.859863,0.19043,0.364258,-3.5,-0.6875,-0.8125,0.476919,-1.11429,-2.63811
3040,-1,12,-1,0,0,-1,0,1,0.859863,0.19043,0.364258,-3.5,-0.6875,-0.8125,0.476919,-1.11429,-2.63811
3042,-3,-3,-2,-2,-1,0,-2,-1,0.856445,0.188965,0.371582,-2.0625,-0.5625,-0.375,0.47638,-1.11464,-2.63833
3042,-2,1,-3,-2,0,-1,-1,-2,0.856445,0.188965,0.371582,-2.0625,-0.5625,-0.375,0.47638,-1.11464,-2.63833
3054,2,0,0,-1,-2,0,1,1,0.856445,0.188965,0.371582,-2.0625,-0.5625,-0.375,0.47638,-1.11464,-2.63833
3054,0,3,1,-2,-1,-1,1,-3,0.856445,0.188965,0.371582,-2.0625,-0.5625,-0.375,0.47638,-1.11464,-2.63833
3063,4,1,0,0,-3,1,-1,0,0.852539,0.193848,0.374512,0.6875,-1,-0.5625,0.47638,-1.11464,-2.63833
3063,-2,3,-1,-2,-3,-1,-1,-3,0.852539,0.193848,0.374512,0.6875,-1,-0.5625,0.47638,-1.11464,-2.63833
3077,0,-12,-4,-2,1,-1,-2,0,0.852539,0.193848,0.374512,0.6875,-1,-0.5625,0.47638,-1.11464,-2.63833
3077,-5,-10,-2,-2,0,-1,-2,-2,0.852539,0.193848,0.374512,0.6875,-1,-0.5625,0.47638,-1.11464,-2.63833
3078,3,7,0,0,1,-3,2,0,0.859863,0.208496,0.369141,-0.625,-0.75,-0.6875,0.476727,-1.11443,-2.63863
3078,-4,-4,-1,-3,0,-2,1,-1,0.859863,0.208496,0.369141,-0.625,-0.75,-0.6875,0.476727,-1.11443,-2.63863
3100,0,0,-2,-1,-1,-2,-1,-1,0.859863,0.208496,0.369141,-0.625,-0.75,-0.6875,0.476727,-1.11443,-2.63863
3100,-1,-8,-1,-2,0,-2,-2,0,0.859863,0.208496,0.369141,-0.625,-0.75,-0.6875,0.476727,-1.11443,-2.63863
3101,0,8,-1,-1,-2,0,-2,-2,0.854004,0.202637,0.37207,-2.4375,-0.9375,0,0.47668,-1.11469,-2.63942
3101,-8,-27,-4,-3,-2,-1,-3,-1,0.854004,0.202637,0.37207,-2.4375,-0.9375,0,0.47668,-1.11469,-2.63942
3114,-3,-4,-2,-1,-2,1,-2,-3,0.854004,0.202637,0.37207,-2.4375,-0.9375,0,0.47668,-1.11469,-2.63942
3114,-1,8,2,0,-1,-1,-1,0,0.854004,0.202637,0.37207,-2.4375,-0.9375,0,0.47668,-1.11469,-2.63942
3123,-13,2,-3,-2,0,-1,0,-3,0.867676,0.185059,0.374023,-3.75,-1,-0.0625,0.475459,-1.11526,-2.63959
3123,1,-1,1,1,-1,0,0,1,0.867676,0.185059,0.374023,-3.75,-1,-0.0625,0.475459,-1.11526,-2.63959
3138,-6,-3,-4,-1,-2,-1,-2,-2,0.867676,0.185059,0.374023,-3.75,-1,-0.0625,0.475459,-1.11526,-2.63959
3138,-3,7,-1,-2,-2,0,0,-1,0.867676,0.185059,0.374023,-3.75,-1,-0.0625,0.475459,-1.11526,-2.63959
3140,0,-8,-4,-2,0,-2,-1,-1,0.862305,0.18457,0.369141,-1.0625,-0.8125,0,0.475082,-1.11572,-2.63958
3140,8,5,1,2,1,0,0,0,0.862305,0.18457,0.369141,-1.0625,-0.8125,0,0.475082,-1.11572,-2.63958
3160,-1,1,-1,1,2,-3,0,-1,0.862305,0.18457,0.369141,-1.0625,-0.8125,0,0.475082,-1.11572,-2.63958
3160,2,3,-1,-2,-2,-2,-2,0,0.862305,0.18457,0.369141,-1.0625,-0.8125,0,0.475082,-1.11572,-2.63958
3162,-3,4,0,-1,-1,0,-2,-2,0.856934,0.200195,0.370605,1.5625,-1,-0.25,0.476472,-1.11588,-2.64037
3162,1,21,1,-1,-1,-1,0,0,0.856934,0.200195,0.370605,1.5625,-1,-0.25,0.476472,-1.11588,-2.64037
3174,6,0,1,0,0,0,-3,-1,0.856934,0.200195,0.370605,1.5625,-1,-0.25,0.476472,-1.11588,-2.64037
3174,-1,2,-2,-2,-3,-2,-1,0,0.856934,0.200195,0.370605,1.5625,-1,-0.25,0.476472,-1.11588,-2.64037
3182,8,-4,-1,0,0,0,0,2,0.854492,0.207031,0.370605,-0.25,-1,-0.125,0.476472,-1.11588,-2.64037
3182,-5,9,-3,-1,-2,0,-1,-1,0.854492,0.207031,0.370605,-0.25,-1,-0.125,0.476472,-1.11588,-2.64037
3198,-5,4,1,0,1,-1,0,-3,0.854492,0.207031,0.370605,-0.25,-1,-0.125,0.476472,-1.11588,-2.64037
3198,1,-12,-2,1,0,-1,0,0,0.854492,0.207031,0.370605,-0.25,-1,-0.125,0.476472,-1.11588,-2.64037
3200,1,-7,0,0,-2,-1,0,0,0.858398,0.203613,0.369629,-2.75,-0.875,0.1875,0.476617,-1.11618,-2.64147
3200,2,7,-3,-3,-2,0,0,-1,0.858398,0.203613,0.369629,-2.75,-0.875,0.1875,0.476617,-1.11618,-2.64147
3220,-1,-1,-2,-2,-4,-1,0,-1,0.858398,0.203613,0.369629,-2.75,-0.875,0.1875,0.476617,-1.11618,-2.64147
3220,-1,-5,-1,-2,-2,0,-1,-1,0.858398,0.203613,0.369629,-2.75,-0.875,0.1875,0.476617,-1.11618,-2.64147
3222,-4,2,-1,-2,0,0,-1,0,0.858887,0.202637,0.372559,-2.875,-0.375,0.5,0.475854,-1.11635,-2.64154
3222,-7,-24,-1,1,-2,-1,-3,-1,0.858887,0.202637,0.372559,-2.875,-0.375,0.5,0.475854,-1.11635,-2.64154
3234,-1,3,-2,0,-2,-1,-1,0,0.858887,0.202637,0.372559,-2.875,-0.375,0.5,0.475854,-1.11635,-2.64154
3234,-4,12,1,0,-1,-1,-3,-2,0.858887,0.202637,0.372559,-2.875,-0.375,0.5,0.475854,-1.11635,-2.64154
3242,0,-6,-1,-1,2,0,1,0,0.855469,0.195312,0.380859,-2.5625,-0.3125,-0.0625,0.474941,-1.11604,-2.64157
3242,-3,-1,-1,-2,0,0,0,0,0.855469,0.195312,0.380859,-2.5625,-0.3125,-0.0625,0.474941,-1.11604,-2.64157
3258,-2,-5,0,-1,1,0,-1,-2,0.855469,0.195312,0.380859,-2.5625,-0.3125,-0.0625,0.474941,-1.11604,-2.64157
3258,1,9,2,1,0,0,0,0,0.855469,0.195312,0.380859,-2.5625,-0.3125,-0.0625,0.474941,-1.11604,-2.64157
3259,-4,2,-3,-3,-1,-3,-2,-3,0.856445,0.196289,0.378906,-1.5625,-0.25,0,0.474542,-1.11605,-2.64169
3259,-2,-8,-2,-2,0,-1,-2,-1,0.856445,0.196289,0.378906,-1.5625,-0.25,0,0.474542,-1.11605,-2.64169
3281,3,0,-1,-3,-1,0,0,1,0.856445,0.196289,0.378906,-1.5625,-0.25,0,0.474542,-1.11605,-2.64169
3281,2,-1,-2,-1,2,-1,0,-1,0.856445,0.196289,0.378906,-1.5625,-0.25,0,0.474542,-1.11605,-2.64169
3282,1,1,-5,-2,-1,-1,0,-1,0.848633,0.206543,0.373047,-1.125,0.0625,-0.0625,0.474728,-1.11573,-2.64223
3282,-5,2,-1,2,-2,-2,-2,-2,0.848633,0.206543,0.373047,-1.125,0.0625,-0.0625,0.474728,-1.11573,-2.64223
3303,1,-8,-2,0,-2,-1,-1,0,0.848633,0.206543,0.373047,-1.125,0.0625,-0.0625,0.474728,-1.11573,-2.64223
3303,-1,8,0,-2,-2,0,1,0,0.848633,0.206543,0.373047,-1.125,0.0625,-0.0625,0.474728,-1.11573,-2.64223
3305,-2,1,1,0,-1,-1,-2,-1,0.86084,0.20752,0.383789,-3.25,0.1875,-0.25,0.474355,-1.11525,-2.64288
3305,3,0,-2,-1,0,-2,0,-1,0.86084,0.20752,0.383789,-3.25,0.1875,-0.25,0.474355,-1.11525,-2.64288
3318,1,-3,-1,-1,0,1,0,1,0.86084,0.20752,0.383789,-3.25,0.1875,-0.25,0.474355,-1.11525,-2.64288
3318,-3,-1,-1,-2,0,-1,-2,-1,0.86084,0.20752,0.383789,-3.25,0.1875,-0.25,0.474355,-1.11525,-2.64288
3319,-2,-10,-2,1,-1,0,0,-1,0.855957,0.197754,0.386719,-4.5625,0.0625,-0.125,0.472821,-1.11478,-2.64289
3319,-3,6,-1,-2,-1,-2,-3,1,0.855957,0.197754,0.386719,-4.5625,0.0625,-0.125,0.472821,-1.11478,-2.64289
3341,0,2,1,-1,0,-1,-2,-1,0.855957,0.197754,0.386719,-4.5625,0.0625,-0.125,0.472821,-1.11478,-2.64289
3341,0,11,-1,0,-2,-2,0,0,0.855957,0.197754,0.386719,-4.5625,0.0625,-0.125,0.472821,-1.11478,-2.64289
3342,-3,-40,-6,-1,-1,-1,-2,-1,0.862305,0.188965,0.382812,-3.625,-0.25,-0.25,0.471359,-1.11467,-2.64282
3342,0,4,0,0,0,1,0,-2,0.862305,0.188965,0.382812,-3.625,-0.25,-0.25,0.471359,-1.11467,-2.64282
3363,-1,-11,-4,-2,-1,-1,-2,1,0.862305,0.188965,0.382812,-3.625,-0.25,-0.25,0.471359,-1.11467,-2.64282
3363,-9,-7,-4,-1,-1,-1,-1,-2,0.862305,0.188965,0.382812,-3.625,-0.25,-0.25,0.471359,-1.11467,-2.64282
3364,-4,11,-3,-1,-1,-1,-1,-3,0.853027,0.194824,0.380371,-1.75,-0.25,-0.25,0.471072,-1.11459,-2.64312
3364,1,-11,-3,0,-2,-1,0,0,0.853027,0.194824,0.380371,-1.75,-0.25,-0.25,0.471072,-1.11459,-2.64312
3378,1,2,-3,-2,-1,-2,0,0,0.853027,0.194824,0.380371,-1.75,-0.25,-0.25,0.471072,-1.11459,-2.64312
3378,-2,-3,-5,-3,-3,0,-1,-1,0.853027,0.194824,0.380371,-1.75,-0.25,-0.25,0.471072,-1.11459,-2.64312
3380,1,2,-4,0,-3,-1,0,-1,0.855469,0.201172,0.37207,-2.75,0.125,-0.3125,0.470894,-1.11451,-2.64386
3380,-1,5,-1,-1,-1,-3,-1,-3,0.855469,0.201172,0.37207,-2.75,0.125,-0.3125,0.470894,-1.11451,-2.64386
3400,-2,5,-4,-2,-1,-1,-2,-4,0.855469,0.201172,0.37207,-2.75,0.125,-0.3125,0.470894,-1.11451,-2.64386
3400,-3,-11,-5,1,-1,0,-3,-3,0.855469,0.201172,0.37207,-2.75,0.125,-0.3125,0.470894,-1.11451,-2.64386
3402,-2,0,0,-1,-2,1,0,-1,0.849121,0.200195,0.370117,-3.25,0.5625,-0.5625,0.470558,-1.11424,-2.6446
3402,0,8,1,-2,-2,-1,-1,-3,0.849121,0.200195,0.370117,-3.25,0.5625,-0.5625,0.470558,-1.11424,-2.6446
3423,2,-5,1,-1,-1,-1,1,0,0.849121,0.200195,0.370117,-3.25,0.5625,-0.5625,0.470558,-1.11424,-2.6446
3423,-3,-1,0,0,-1,-2,1,0,0.849121,0.200195,0.370117,-3.25,0.5625,-0.5625,0.470558,-1.11424,-2.6446
3424,0,3,3,1,-1,-2,0,1,0.855957,0.193359,0.378418,-3.8125,1,-0.625,0.469157,-1.11375,-2.64454
3424,-3,12,4,0,0,-2,-1,-1,0.855957,0.193359,0.378418,-3.8125,1,-0.625,0.469157,-1.11375,-2.64454
3438,0,-13,5,0,-2,-1,-2,-1,0.855957,0.193359,0.378418,-3.8125,1,-0.625,0.469157,-1.11375,-2.64454
3438,-3,-6,3,0,0,0,-1,-2,0.855957,0.193359,0.378418,-3.8125,1,-0.625,0.469157,-1.11375,-2.64454
3439,-2,4,4,-3,1,0,-1,-1,0.854004,0.192871,0.379883,-3.75,1.3125,-0.875,0.468106,-1.11304,-2.64479
3439,2,1,4,1,-1,-2,-1,0,0.854004,0.192871,0.379883,-3.75,1.3125,-0.875,0.468106,-1.11304,-2.64479
3460,-4,2,3,-4,-4,-2,-1,0,0.854004,0.192871,0.379883,-3.75,1.3125,-0.875,0.468106,-1.11304,-2.64479
3460,2,-1,9,-2,-2,-1,-1,-2,0.854004,0.192871,0.379883,-3.75,1.3125,-0.875,0.468106,-1.11304,-2.64479
3461,2,-1,7,-2,-1,0,-1,0,0.85791,0.190918,0.382324,-3.5625,1.3125,-0.3125,0.466566,-1.11242,-2.64448
3461,-3,-11,4,-1,-1,1,-1,0,0.85791,0.190918,0.382324,-3.5625,1.3125,-0.3125,0.466566,-1.11242,-2.64448
3483,1,4,5,0,-2,1,0,-1,0.85791,0.190918,0.382324,-3.5625,1.3125,-0.3125,0.466566,-1.11242,-2.64448
3483,4,-1,4,-1,-1,-1,1,-1,0.85791,0.190918,0.382324,-3.5625,1.3125,-0.3125,0.466566,-1.11242,-2.64448
3484,-3,7,1,-2,-1,0,-1,-1,0.850098,0.187012,0.383789,-2,1,-0.1875,0.465315,-1.11187,-2.64386
3484,4,-9,3,-3,0,0,0,-1,0.850098,0.187012,0.383789,-2,1,-0.1875,0.465315,-1.11187,-2.64386
3498,-10,-5,0,1,-1,-1,-1,-3,0.850098,0.187012,0.383789,-2,1,-0.1875,0.465315,-1.11187,-2.64386
3498,18,12,3,1,-1,1,2,4,0.850098,0.187012,0.383789,-2,1,-0.1875,0.465315,-1.11187,-2.64386
3504,-10,-10,0,1,-1,-2,-2,-2,0.851074,0.197754,0.380371,-3.8125,0.625,-0.5625,0.464524,-1.11156,-2.64434
3504,-2,-5,-1,-1,-1,-1,-1,-1,0.851074,0.197754,0.380371,-3.8125,0.625,-0.5625,0.464524,-1.11156,-2.64434
3521,4,0,0,3,0,-2,0,0,0.851074,0.197754,0.380371,-3.8125,0.625,-0.5625,0.464524,-1.11156,-2.64434
3521,3,7,0,-1,0,-2,-2,0,0.851074,0.197754,0.380371,-3.8125,0.625,-0.5625,0.464524,-1.11156,-2.64434
3522,1,3,-5,-1,0,0,-1,0,0.851074,0.192383,0.375,-4.1875,0.3125,0.125,0.463074,-1.11147,-2.64428
3522,-5,10,-7,-2,-2,-1,0,-1,0.851074,0.192383,0.375,-4.1875,0.3125,0.125,0.463074,-1.11147,-2.64428
3542,1,0,-1,1,-1,-1,1,1,0.851074,0.192383,0.375,-4.1875,0.3125,0.125,0.463074,-1.11147,-2.64428
3542,8,-3,-1,2,1,1,1,4,0.851074,0.192383,0.375,-4.1875,0.3125,0.125,0.463074,-1.11147,-2.64428
3545,2,8,-3,-2,-1,-1,-3,-1,0.856934,0.200684,0.378906,-5.0625,0.125,-0.5625,0.462224,-1.11127,-2.64521
3545,1,-1,-6,1,0,-3,-1,-1,0.856934,0.200684,0.378906,-5.0625,0.125,-0.5625,0.462224,-1.11127,-2.64521
3557,-1,-1,-6,-2,-3,-2,-2,0,0.856934,0.200684,0.378906,-5.0625,0.125,-0.5625,0.462224,-1.11127,-2.64521
3557,-4,-2,-5,-1,0,1,-2,-1,0.856934,0.200684,0.378906,-5.0625,0.125,-0.5625,0.462224,-1.11127,-2.64521
3564,2,-2,-1,-1,0,-1,1,0,0.865723,0.199219,0.381348,-5.9375,0.1875,-0.5625,0.460983,-1.11103,-2.64603
3564,9,-6,-1,-2,0,0,0,1,0.865723,0.199219,0.381348,-5.9375,0.1875,-0.5625,0.460983,-1.11103,-2.64603
3580,-3,3,-6,0,-1,-1,0,-2,0.865723,0.199219,0.381348,-5.9375,0.1875,-0.5625,0.460983,-1.11103,-2.64603
3580,5,-10,-4,0,-2,0,0,0,0.865723,0.199219,0.381348,-5.9375,0.1875,-0.5625,0.460983,-1.11103,-2.64603
3582,-2,0,-3,2,-1,-1,2,0,0.859863,0.210938,0.379395,-7.25,1.375,0.1875,0.45877,-1.11027,-2.64619
3582,-3,-7,-6,1,-1,-2,0,-1,0.859863,0.210938,0.379395,-7.25,1.375,0.1875,0.45877,-1.11027,-2.64619
3603,0,1,-2,-1,1,-1,-2,-4,0.859863,0.210938,0.379395,-7.25,1.375,0.1875,0.45877,-1.11027,-2.64619
3603,-3,-1,-3,-2,-3,-1,-2,0,0.859863,0.210938,0.379395,-7.25,1.375,0.1875,0.45877,-1.11027,-2.64619
3604,-7,-5,-1,-5,-2,-2,-2,-3,0.855957,0.220703,0.395996,-9.5,1.625,0.125,0.456185,-1.10931,-2.6467
3604,-4,1,0,-1,-1,-1,-2,-1,0.855957,0.220703,0.395996,-9.5,1.625,0.125,0.456185,-1.10931,-2.6467
3617,-1,0,-10,-3,-1,0,-1,0,0.855957,0.220703,0.395996,-9.5,1.625,0.125,0.456185,-1.10931,-2.6467
3617,-9,1,-6,-1,-2,-2,-2,-5,0.855957,0.220703,0.395996,-9.5,1.625,0.125,0.456185,-1.10931,-2.6467
3624,2,-3,-5,-1,-2,-1,-2,-1,0.848145,0.234375,0.424316,-14.6875,1.875,-0.1875,0.452134,-1.10729,-2.64748
3624,-11,-9,-4,0,0,-1,-1,-3,0.848145,0.234375,0.424316,-14.6875,1.875,-0.1875,0.452134,-1.10729,-2.64748
3641,0,-3,2,0,-2,-1,0,0,0.848145,0.234375,0.424316,-14.6875,1.875,-0.1875,0.452134,-1.10729,-2.64748
3641,-8,-5,-3,0,-1,-3,-3,-1,0.848145,0.234375,0.424316,-14.6875,1.875,-0.1875,0.452134,-1.10729,-2.64748
3642,-8,-7,-5,-2,-1,-1,-1,-3,0.855957,0.232422,0.444336,-20.3125,4.125,-0.75,0.445297,-1.10443,-2.64758
3642,4,-2,-10,-1,-1,0,-1,-1,0.855957,0.232422,0.444336,-20.3125,4.125,-0.75,0.445297,-1.10443,-2.64758
3662,-6,0,0,-1,0,0,-1,-3,0.855957,0.232422,0.444336,-20.3125,4.125,-0.75,0.445297,-1.10443,-2.64758
3662,-6,3,0,1,1,0,-1,-2,0.855957,0.232422,0.444336,-20.3125,4.125,-0.75,0.445297,-1.10443,-2.64758
3664,11,0,3,0,-3,-1,-1,2,0.854492,0.204102,0.496582,-27,6.625,-2.875,0.434284,-1.0996,-2.64601
3664,-2,-2,-1,-1,-2,-2,-1,-1,0.854492,0.204102,0.496582,-27,6.625,-2.875,0.434284,-1.0996,-2.64601
3677,6,1,1,1,1,-1,0,1,0.854492,0.204102,0.496582,-27,6.625,-2.875,0.434284,-1.0996,-2.64601
3677,0,-4,2,-1,-1,-2,-1,-1,0.854492,0.204102,0.496582,-27,6.625,-2.875,0.434284,-1.0996,-2.64601
3685,-10,-6,-7,-3,-2,-1,-2,-6,0.861816,0.203125,0.51416,-30.5,11.0625,-4.4375,0.421778,-1.09301,-2.6443
3685,3,-1,-3,0,-1,-1,-1,-1,0.861816,0.203125,0.51416,-30.5,11.0625,-4.4375,0.421778,-1.09301,-2.6443
3700,-5,-2,-1,-2,-1,0,0,0,0.861816,0.203125,0.51416,-30.5,11.0625,-4.4375,0.421778,-1.09301,-2.6443
3700,5,1,0,-3,-2,-1,1,1,0.861816,0.203125,0.51416,-30.5,11.0625,-4.4375,0.421778,-1.09301,-2.6443
3702,-6,-2,-5,0,-2,0,0,0,0.861816,0.20752,0.533691,-44.5625,17.3125,-8.0625,0.405542,-1.08392,-2.64371
3702,-5,-3,2,1,-2,-1,0,-1,0.861816,0.20752,0.533691,-44.5625,17.3125,-8.0625,0.405542,-1.08392,-2.64371
3722,12,-4,0,-2,-1,-1,-2,0,0.861816,0.20752,0.533691,-44.5625,17.3125,-8.0625,0.405542,-1.08392,-2.64371
3722,9,1,-6,-3,0,0,-1,-1,0.861816,0.20752,0.533691,-44.5625,17.3125,-8.0625,0.405542,-1.08392,-2.64371
3725,-1,2,1,0,-1,-1,-1,-1,0.862305,0.215332,0.57959,-59.5625,25.25,-10.5,0.383914,-1.07136,-2.64302
3725,-10,-5,1,-2,0,-1,-1,-3,0.862305,0.215332,0.57959,-59.5625,25.25,-10.5,0.383914,-1.07136,-2.64302
3736,-9,-7,-1,-3,-1,-2,-3,-3,0.862305,0.215332,0.57959,-59.5625,25.25,-10.5,0.383914,-1.07136,-2.64302
3736,-1,2,1,0,-2,-2,-1,-3,0.862305,0.215332,0.57959,-59.5625,25.25,-10.5,0.383914,-1.07136,-2.64302
3745,15,6,0,5,2,0,1,3,0.884766,0.194336,0.590332,-72.375,34.9375,-10.6875,0.35582,-1.05591,-2.64009
3745,-6,3,2,3,1,2,0,1,0.884766,0.194336,0.590332,-72.375,34.9375,-10.6875,0.35582,-1.05591,-2.64009
3760,11,7,3,0,-1,2,0,1,0.884766,0.194336,0.590332,-72.375,34.9375,-10.6875,0.35582,-1.05591,-2.64009
3760,-3,-7,-3,-2,2,-1,-4,-3,0.884766,0.194336,0.590332,-72.375,34.9375,-10.6875,0.35582,-1.05591,-2.64009
3762,-14,-4,-2,0,1,0,0,-3,0.894531,0.172852,0.583496,-84.75,45.5625,-9.875,0.321569,-1.03811,-2.63505
3762,-1,-8,-2,-1,-1,-3,-2,-3,0.894531,0.172852,0.583496,-84.75,45.5625,-9.875,0.321569,-1.03811,-2.63505
3783,5,1,-2,-1,-1,-1,0,0,0.894531,0.172852,0.583496,-84.75,45.5625,-9.875,0.321569,-1.03811,-2.63505
3783,-18,-5,0,-3,-2,-1,2,0,0.894531,0.172852,0.583496,-84.75,45.5625,-9.875,0.321569,-1.03811,-2.63505
3784,4,4,1,0,-2,-2,-1,2,0.882812,0.164551,0.609863,-100.75,56.625,-8.375,0.281042,-1.01789,-2.62877
3784,-5,-4,-1,0,0,2,1,-1,0.882812,0.164551,0.609863,-100.75,56.625,-8.375,0.281042,-1.01789,-2.62877
3797,-14,-6,-6,-3,-1,-3,-1,-3,0.882812,0.164551,0.609863,-100.75,56.625,-8.375,0.281042,-1.01789,-2.62877
3797,0,-2,1,1,-2,-1,0,-1,0.882812,0.164551,0.609863,-100.75,56.625,-8.375,0.281042,-1.01789,-2.62877
3805,11,7,1,-2,-1,-1,-1,3,0.885254,0.0986328,0.626465,-115.875,69.8125,-2.0625,0.231552,-0.993845,-2.61829
3805,-16,-6,-1,0,-1,-2,0,-3,0.885254,0.0986328,0.626465,-115.875,69.8125,-2.0625,0.231552,-0.993845,-2.61829
3821,13,10,6,4,-2,0,-1,3,0.885254,0.0986328,0.626465,-115.875,69.8125,-2.0625,0.231552,-0.993845,-2.61829
3821,-14,-4,-4,-1,-1,-1,-1,-3,0.885254,0.0986328,0.626465,-115.875,69.8125,-2.0625,0.231552,-0.993845,-2.61829
3821,0,-3,-3,-1,1,0,-1,-3,0.868164,0.0415039,0.666016,-120.625,82.3125,6.25,0.176756,-0.965815,-2.60324
3821,20,8,1,0,-1,-1,1,1,0.868164,0.0415039,0.666016,-120.625,82.3125,6.25,0.176756,-0.965815,-2.60324
3843,11,4,2,-3,-2,-1,12,0,0.868164,0.0415039,0.666016,-120.625,82.3125,6.25,0.176756,-0.965815,-2.60324
3843,20,-6,-6,-7,-2,-4,-31,-2,0.868164,0.0415039,0.666016,-120.625,82.3125,6.25,0.176756,-0.965815,-2.60324
3844,5,-1,0,2,5,3,8,-1,0.84668,0.00927734,0.688477,-117.625,91.5,16,0.120397,-0.934698,-2.58479
3844,-4,-8,-8,-7,-6,-4,-7,-3,0.84668,0.00927734,0.688477,-117.625,91.5,16,0.120397,-0.934698,-2.58479
3856,-22,-14,-6,-2,-3,-4,-2,-7,0.84668,0.00927734,0.688477,-117.625,91.5,16,0.120397,-0.934698,-2.58479
3856,7,8,4,0,-2,0,6,5,0.84668,0.00927734,0.688477,-117.625,91.5,16,0.120397,-0.934698,-2.58479
3865,42,-4,-1,-4,-2,-3,-6,-5,0.814453,-0.0307617,0.688965,-109.312,99.0625,25.1875,0.0660246,-0.900929,-2.56465
3865,-51,-8,-5,-5,-3,-2,-5,-6,0.814453,-0.0307617,0.688965,-109.312,99.0625,25.1875,0.0660246,-0.900929,-2.56465
3880,-84,6,2,2,4,1,2,-3,0.814453,-0.0307617,0.688965,-109.312,99.0625,25.1875,0.0660246,-0.900929,-2.56465
3880,-122,-6,-4,-5,-5,-2,17,2,0.814453,-0.0307617,0.688965,-109.312,99.0625,25.1875,0.0660246,-0.900929,-2.56465
3882,-128,-9,0,2,4,1,-4,-7,0.803223,-0.0571289,0.688477,-102.75,107.438,33.6875,0.0132159,-0.863956,-2.54316
3882,-119,9,8,3,4,4,14,13,0.803223,-0.0571289,0.688477,-102.75,107.438,33.6875,0.0132159,-0.863956,-2.54316
3903,-65,4,2,-1,-1,1,-3,-6,0.803223,-0.0571289,0.688477,-102.75,107.438,33.6875,0.0132159,-0.863956,-2.54316
3903,6,0,0,-3,-5,-5,-4,-5,0.803223,-0.0571289,0.688477,-102.75,107.438,33.6875,0.0132159,-0.863956,-2.54316
3904,59,12,8,6,2,1,-8,1,0.785156,-0.0717773,0.710449,-100.375,112.125,40.375,-0.0375163,-0.824682,-2.52243
3904,114,-3,-6,-4,2,-1,6,-6,0.785156,-0.0717773,0.710449,-100.375,112.125,40.375,-0.0375163,-0.824682,-2.52243
3917,82,6,2,-1,-2,-3,10,16,0.785156,-0.0717773,0.710449,-100.375,112.125,40.375,-0.0375163,-0.824682,-2.52243
3917,84,-11,-5,1,2,-2,-9,-6,0.785156,-0.0717773,0.710449,-100.375,112.125,40.375,-0.0375163,-0.824682,-2.52243
3925,76,10,3,0,-2,-2,2,2,0.746582,-0.145508,0.707031,-98.875,113.188,46.625,-0.0869264,-0.784274,-2.50203
3925,68,-7,1,-3,-2,0,1,6,0.746582,-0.145508,0.707031,-98.875,113.188,46.625,-0.0869264,-0.784274,-2.50203
3940,55,-4,-9,-8,-6,-2,-3,-1,0.746582,-0.145508,0.707031,-98.875,113.188,46.625,-0.0869264,-0.784274,-2.50203
3940,49,2,5,4,2,2,8,4,0.746582,-0.145508,0.707031,-98.875,113.188,46.625,-0.0869264,-0.784274,-2.50203
3942,30,-38,-3,0,-1,3,6,2,0.662598,-0.192871,0.69043,-100.312,111.375,50.1875,-0.135418,-0.743834,-2.48329
3942,25,-27,9,4,1,3,-4,0,0.662598,-0.192871,0.69043,-100.312,111.375,50.1875,-0.135418,-0.743834,-2.48329
3963,30,-23,-3,0,-2,1,-2,-9,0.662598,-0.192871,0.69043,-100.312,111.375,50.1875,-0.135418,-0.743834,-2.48329
3963,27,7,8,9,8,7,3,4,0.662598,-0.192871,0.69043,-100.312,111.375,50.1875,-0.135418,-0.743834,-2.48329
3969,1,2,-10,-8,-8,-6,-9,-18,0.636719,-0.203125,0.666504,-101.5,106.875,52.625,-0.182272,-0.704219,-2.46646
3969,16,4,-6,1,-1,-3,16,17,0.636719,-0.203125,0.666504,-101.5,106.875,52.625,-0.182272,-0.704219,-2.46646
3976,18,22,4,3,4,-5,-6,-3,0.636719,-0.203125,0.666504,-101.5,106.875,52.625,-0.182272,-0.704219,-2.46646
3976,5,-56,-6,3,2,0,1,7,0.636719,-0.203125,0.666504,-101.5,106.875,52.625,-0.182272,-0.704219,-2.46646
3985,-2,-12,-7,1,0,-2,-1,5,0.625488,-0.274902,0.6875,-98.75,101.938,54.125,-0.226804,-0.66585,-2.45136
3985,115,20,5,6,1,-2,-5,-7,0.625488,-0.274902,0.6875,-98.75,101.938,54.125,-0.226804,-0.66585,-2.45136
4000,103,6,-2,10,7,1,-5,-4,0.625488,-0.274902,0.6875,-98.75,101.938,54.125,-0.226804,-0.66585,-2.45136
4000,67,23,-9,-1,-3,-6,1,1,0.625488,-0.274902,0.6875,-98.75,101.938,54.125,-0.226804,-0.66585,-2.45136
4002,-39,11,1,5,1,-3,-7,9,0.56543,-0.274902,0.705566,-101.438,99.3125,56.5625,-0.270869,-0.627465,-2.43771
4002,-108,-13,-8,0,4,1,-10,-9,0.56543,-0.274902,0.705566,-101.438,99.3125,56.5625,-0.270869,-0.627465,-2.43771
4023,-11,-15,-9,-3,-7,-5,-16,0,0.56543,-0.274902,0.705566,-101.438,99.3125,56.5625,-0.270869,-0.627465,-2.43771
4023,27,15,6,-5,-6,-6,-10,1,0.56543,-0.274902,0.705566,-101.438,99.3125,56.5625,-0.270869,-0.627465,-2.43771
4024,-67,0,5,2,3,1,5,4,0.480957,-0.311035,0.689941,-96.5,85.375,54.1875,-0.313667,-0.592985,-2.42472
4024,-97,-5,-3,-7,-2,-3,-13,-12,0.480957,-0.311035,0.689941,-96.5,85.375,54.1875,-0.313667,-0.592985,-2.42472
4037,-95,3,3,-2,-2,4,-6,-12,0.480957,-0.311035,0.689941,-96.5,85.375,54.1875,-0.313667,-0.592985,-2.42472
4037,-128,7,-1,-2,2,4,8,23,0.480957,-0.311035,0.689941,-96.5,85.375,54.1875,-0.313667,-0.592985,-2.42472
4046,32,3,0,-11,-14,-7,9,-3,0.459473,-0.328613,0.688477,-83,71.3125,50.8125,-0.350326,-0.563166,-2.4132
4046,-90,7,2,6,11,10,7,-11,0.459473,-0.328613,0.688477,-83,71.3125,50.8125,-0.350326,-0.563166,-2.4132
4060,-32,9,10,-3,-5,-5,-17,6,0.459473,-0.328613,0.688477,-83,71.3125,50.8125,-0.350326,-0.563166,-2.4132
4060,-8,-14,1,-4,-2,3,0,-13,0.459473,-0.328613,0.688477,-83,71.3125,50.8125,-0.350326,-0.563166,-2.4132
4074,24,5,2,3,5,5,2,3,0.445801,-0.350098,0.713379,-60.75,55.1875,45.3125,-0.378234,-0.538997,-2.40302
4074,63,-9,-1,-7,-11,-7,-8,9,0.445801,-0.350098,0.713379,-60.75,55.1875,45.3125,-0.378234,-0.538997,-2.40302
4083,26,-32,2,0,6,13,51,-6,0.445801,-0.350098,0.713379,-60.75,55.1875,45.3125,-0.378234,-0.538997,-2.40302
4083,18,-28,-3,-1,-1,-5,-28,-3,0.445801,-0.350098,0.713379,-60.75,55.1875,45.3125,-0.378234,-0.538997,-2.40302
4084,26,-23,-4,-6,-5,-3,-9,7,0.458008,-0.29834,0.666504,-45.3125,40.3125,34,-0.397684,-0.522216,-2.39614
4084,47,-11,-6,-1,1,1,-3,-4,0.458008,-0.29834,0.666504,-45.3125,40.3125,34,-0.397684,-0.522216,-2.39614
4097,2,24,6,3,3,-1,-6,12,0.458008,-0.29834,0.666504,-45.3125,40.3125,34,-0.397684,-0.522216,-2.39614
4097,21,5,-3,-7,-5,-1,9,-5,0.458008,-0.29834,0.666504,-45.3125,40.3125,34,-0.397684,-0.522216,-2.39614
4105,16,2,-6,1,1,1,-15,-14,0.48584,-0.291016,0.666504,-38.0625,28.5625,26.625,-0.413566,-0.511075,-2.39086
4105,22,39,-2,-3,-7,-8,-6,13,0.48584,-0.291016,0.666504,-38.0625,28.5625,26.625,-0.413566,-0.511075,-2.39086
4119,4,10,-1,1,-2,0,-8,-3,0.48584,-0.291016,0.666504,-38.0625,28.5625,26.625,-0.413566,-0.511075,-2.39086
4119,-2,29,6,1,-3,0,26,9,0.48584,-0.291016,0.666504,-38.0625,28.5625,26.625,-0.413566,-0.511075,-2.39086
4127,-4,-1,-5,-6,-5,-7,-11,-5,0.48877,-0.251953,0.665039,-33,20.6875,24.3125,-0.426453,-0.503072,-2.38603
4127,9,-2,-1,-6,-6,1,9,-4,0.48877,-0.251953,0.665039,-33,20.6875,24.3125,-0.426453,-0.503072,-2.38603
4143,1,5,3,-1,0,-11,-16,9,0.48877,-0.251953,0.665039,-33,20.6875,24.3125,-0.426453,-0.503072,-2.38603
4143,-1,9,3,-2,-3,15,2,-5,0.48877,-0.251953,0.665039,-33,20.6875,24.3125,-0.426453,-0.503072,-2.38603
4144,-9,2,-5,2,7,4,14,-10,0.518066,-0.268066,0.693848,-30.5,17.1875,22.125,-0.438097,-0.496917,-2.38166
4144,15,-49,-5,-2,-1,-9,13,-2,0.518066,-0.268066,0.693848,-30.5,17.1875,22.125,-0.438097,-0.496917,-2.38166
4156,4,1,-7,-8,-7,0,-46,-24,0.518066,-0.268066,0.693848,-30.5,17.1875,22.125,-0.438097,-0.496917,-2.38166
4156,-3,6,-3,0,3,-1,-4,-10,0.518066,-0.268066,0.693848,-30.5,17.1875,22.125,-0.438097,-0.496917,-2.38166
4165,-1,12,5,3,-1,0,2,-4,0.491699,-0.288086,0.699707,-30.625,17.5,17.875,-0.44919,-0.490648,-2.37871
4165,5,2,0,4,8,6,0,-16,0.491699,-0.288086,0.699707,-30.625,17.5,17.875,-0.44919,-0.490648,-2.37871
4179,-3,-14,-12,-7,-5,-4,2,1,0.453125,-0.306641,0.741211,-31.9375,15.9375,15.875,-0.460148,-0.483793,-2.37659
4179,-4,10,3,1,-4,-5,-9,-13,0.453125,-0.306641,0.741211,-31.9375,15.9375,15.875,-0.460148,-0.483793,-2.37659
4188,-2,1,-1,-2,-1,0,-5,12,0.453125,-0.306641,0.741211,-31.9375,15.9375,15.875,-0.460148,-0.483793,-2.37659
4188,4,10,1,-3,-5,-5,-9,-8,0.453125,-0.306641,0.741211,-31.9375,15.9375,15.875,-0.460148,-0.483793,-2.37659
4202,-4,-7,-5,0,4,7,29,-3,0.182617,-0.027832,0.461914,-29.3125,-2.25,7.9375,-0.466775,-0.482486,-2.37578
4202,1,10,-6,2,7,-1,-15,9,0.182617,-0.027832,0.461914,-29.3125,-2.25,7.9375,-0.466775,-0.482486,-2.37578
4203,-1,-36,-3,-4,-3,-8,54,14,0.182617,-0.027832,0.461914,-29.3125,-2.25,7.9375,-0.466775,-0.482486,-2.37578
4203,3,12,1,-4,-7,-10,-32,-22,0.182617,-0.027832,0.461914,-29.3125,-2.25,7.9375,-0.466775,-0.482486,-2.37578
4225,-1,7,6,0,-4,-16,-25,-9,0.587402,-0.250977,0.572266,-65.3125,-39.875,-38.5625,-0.485352,-0.506177,-2.38254
4225,-2,16,10,12,10,8,6,25,0.587402,-0.250977,0.572266,-65.3125,-39.875,-38.5625,-0.485352,-0.506177,-2.38254
4226,-3,9,-2,-4,-10,-14,-27,-6,0.587402,-0.250977,0.572266,-65.3125,-39.875,-38.5625,-0.485352,-0.506177,-2.38254
4226,1,48,-3,-3,0,9,37,12,0.587402,-0.250977,0.572266,-65.3125,-39.875,-38.5625,-0.485352,-0.506177,-2.38254
4239,-1,-25,-10,-2,-5,-4,-62,-7,0.76123,-0.50293,0.77832,4.8125,-13.9375,-4,-0.486458,-0.516254,-2.38034
4239,-1,16,-3,-2,0,-10,30,-20,0.76123,-0.50293,0.77832,4.8125,-13.9375,-4,-0.486458,-0.516254,-2.38034
4247,-3,13,6,-5,-9,-18,-85,18,0.76123,-0.50293,0.77832,4.8125,-13.9375,-4,-0.486458,-0.516254,-2.38034
4247,2,-13,-3,-6,-5,-5,-17,0,0.76123,-0.50293,0.77832,4.8125,-13.9375,-4,-0.486458,-0.516254,-2.38034
4262,0,3,-1,-3,-2,-7,-11,-6,0.51123,-0.0732422,0.629883,10.6875,-5.8125,-13.8125,-0.474547,-0.523745,-2.38726
4262,-1,-6,4,5,3,7,10,10,0.51123,-0.0732422,0.629883,10.6875,-5.8125,-13.8125,-0.474547,-0.523745,-2.38726
4263,-2,-5,1,2,1,4,9,-12,0.51123,-0.0732422,0.629883,10.6875,-5.8125,-13.8125,-0.474547,-0.523745,-2.38726
4263,1,-8,-4,-7,-10,0,14,13,0.51123,-0.0732422,0.629883,10.6875,-5.8125,-13.8125,-0.474547,-0.523745,-2.38726
4285,-2,-2,1,0,0,8,27,18,0.435059,-0.458496,0.799805,-28.75,-10.3125,-4.4375,-0.485627,-0.525627,-2.3865
4285,-2,-23,-8,-7,-4,6,-8,-8,0.435059,-0.458496,0.799805,-28.75,-10.3125,-4.4375,-0.485627,-0.525627,-2.3865
4285,0,9,6,12,7,11,23,-9,0.435059,-0.458496,0.799805,-28.75,-10.3125,-4.4375,-0.485627,-0.525627,-2.3865
4285,0,2,6,6,3,-6,-19,-2,0.435059,-0.458496,0.799805,-28.75,-10.3125,-4.4375,-0.485627,-0.525627,-2.3865
4308,-2,-2,-5,0,-2,-7,21,10,0.458008,-0.677246,0.82666,-26.75,-11.1875,-3.9375,-0.500928,-0.526402,-2.38293
4308,0,11,-2,-14,-11,-6,-9,-9,0.458008,-0.677246,0.82666,-26.75,-11.1875,-3.9375,-0.500928,-0.526402,-2.38293
4309,-1,26,3,-3,3,1,-18,-6,0.458008,-0.677246,0.82666,-26.75,-11.1875,-3.9375,-0.500928,-0.526402,-2.38293
4309,-1,-33,-5,6,4,16,8,-2,0.458008,-0.677246,0.82666,-26.75,-11.1875,-3.9375,-0.500928,-0.526402,-2.38293
4322,-1,-2,3,4,5,1,22,17,0.328613,-0.523926,0.762695,-4.125,-12.75,-9,-0.504601,-0.527402,-2.38241
4322,-1,-43,-9,5,5,-17,-62,-23,0.328613,-0.523926,0.762695,-4.125,-12.75,-9,-0.504601,-0.527402,-2.38241
4322,9,14,1,-7,-6,-9,59,37,0.328613,-0.523926,0.762695,-4.125,-12.75,-9,-0.504601,-0.527402,-2.38241
4322,12,21,10,-2,-1,-1,-26,5,0.328613,-0.523926,0.762695,-4.125,-12.75,-9,-0.504601,-0.527402,-2.38241
4344,-34,-33,-17,-5,1,-16,25,-25,0.342285,-0.380371,0.761719,-2.25,-11.5,-12.0625,-0.503336,-0.529636,-2.38486
4344,-6,-23,0,-4,-2,17,-6,-10,0.342285,-0.380371,0.761719,-2.25,-11.5,-12.0625,-0.503336,-0.529636,-2.38486
4344,-5,-24,-2,-23,-7,2,17,-7,0.342285,-0.380371,0.761719,-2.25,-11.5,-12.0625,-0.503336,-0.529636,-2.38486
4344,1,-2,4,14,7,-1,2,6,0.342285,-0.380371,0.761719,-2.25,-11.5,-12.0625,-0.503336,-0.529636,-2.38486
4359,70,11,6,3,0,-8,4,11,0.393066,-0.423828,0.791992,-9,-13.3125,-13.125,-0.505146,-0.533027,-2.38722
4359,-29,23,-7,3,0,-7,14,2,0.393066,-0.423828,0.791992,-9,-13.3125,-13.125,-0.505146,-0.533027,-2.38722
4367,-10,7,-1,-5,-3,-8,0,3,0.393066,-0.423828,0.791992,-9,-13.3125,-13.125,-0.505146,-0.533027,-2.38722
4367,-91,3,-6,-16,-12,0,7,-33,0.393066,-0.423828,0.791992,-9,-13.3125,-13.125,-0.505146,-0.533027,-2.38722
4382,-4,-3,4,7,3,8,-14,0,0.409668,-0.46582,0.752441,4.1875,-14.25,-10.75,-0.504343,-0.536667,-2.38755
4382,29,6,11,14,7,6,40,3,0.409668,-0.46582,0.752441,4.1875,-14.25,-10.75,-0.504343,-0.536667,-2.38755
4383,-42,-19,-3,10,11,8,-41,18,0.409668,-0.46582,0.752441,4.1875,-14.25,-10.75,-0.504343,-0.536667,-2.38755
4383,12,-23,-6,-9,-3,4,-21,-26,0.409668,-0.46582,0.752441,4.1875,-14.25,-10.75,-0.504343,-0.536667,-2.38755
4404,38,-7,-7,-10,-5,0,9,-2,0.495605,-0.423828,0.710938,13.75,-13.1875,-8.375,-0.500276,-0.542045,-2.38737
4404,-26,-42,-6,7,0,-13,3,-6,0.495605,-0.423828,0.710938,13.75,-13.1875,-8.375,-0.500276,-0.542045,-2.38737
4405,0,-23,-7,-1,-4,3,-3,-13,0.495605,-0.423828,0.710938,13.75,-13.1875,-8.375,-0.500276,-0.542045,-2.38737
4405,89,15,9,7,4,3,-8,-3,0.495605,-0.423828,0.710938,13.75,-13.1875,-8.375,-0.500276,-0.542045,-2.38737
4419,-81,-1,-3,-4,3,10,-17,-8,0.460449,-0.416992,0.669922,19.1875,-12.4375,-6.75,-0.494925,-0.546629,-2.38673
4419,4,28,4,-6,-2,-1,5,5,0.460449,-0.416992,0.669922,19.1875,-12.4375,-6.75,-0.494925,-0.546629,-2.38673
4427,64,8,2,2,-4,-4,-17,4,0.460449,-0.416992,0.669922,19.1875,-12.4375,-6.75,-0.494925,-0.546629,-2.38673
4427,-21,-8,-6,-5,-7,-12,8,11,0.460449,-0.416992,0.669922,19.1875,-12.4375,-6.75,-0.494925,-0.546629,-2.38673
4442,55,9,2,-1,-8,3,6,-1,0.425781,-0.443359,0.720703,18.3125,-11.875,-7.4375,-0.489895,-0.549594,-2.38634
4442,-58,-3,-6,-2,0,-5,-9,-8,0.425781,-0.443359,0.720703,18.3125,-11.875,-7.4375,-0.489895,-0.549594,-2.38634
4443,-42,-15,-3,4,4,4,14,-11,0.425781,-0.443359,0.720703,18.3125,-11.875,-7.4375,-0.489895,-0.549594,-2.38634
4443,45,12,2,-4,-6,-2,3,5,0.425781,-0.443359,0.720703,18.3125,-11.875,-7.4375,-0.489895,-0.549594,-2.38634
4465,39,25,6,2,-4,-5,6,11,0.429199,-0.370605,0.710449,15,-10.5625,-7.5,-0.484143,-0.552627,-2.38707
4465,-24,-8,-11,-25,-11,-2,-2,-5,0.429199,-0.370605,0.710449,15,-10.5625,-7.5,-0.484143,-0.552627,-2.38707
4465,-18,-3,-1,12,2,3,-5,-30,0.429199,-0.370605,0.710449,15,-10.5625,-7.5,-0.484143,-0.552627,-2.38707
4465,59,-9,2,0,1,-3,23,34,0.429199,-0.370605,0.710449,15,-10.5625,-7.5,-0.484143,-0.552627,-2.38707
4479,37,14,-5,-9,-1,-7,-2,-1,0.541992,-0.390137,0.713379,14.625,-10.4375,-5.3125,-0.479454,-0.557474,-2.38678
4479,12,-18,-1,15,-8,18,-13,9,0.541992,-0.390137,0.713379,14.625,-10.4375,-5.3125,-0.479454,-0.557474,-2.38678
4487,-3,23,8,1,10,-1,-1,-13,0.541992,-0.390137,0.713379,14.625,-10.4375,-5.3125,-0.479454,-0.557474,-2.38678
4487,-44,7,-3,-2,-6,-19,-38,-9,0.541992,-0.390137,0.713379,14.625,-10.4375,-5.3125,-0.479454,-0.557474,-2.38678
4502,-37,-36,-5,-3,5,3,13,12,0.515137,-0.378906,0.705078,7.8125,-8.875,-6.1875,-0.4769,-0.561423,-2.3871
4502,-4,16,-2,-9,-2,9,11,-8,0.515137,-0.378906,0.705078,7.8125,-8.875,-6.1875,-0.4769,-0.561423,-2.3871
4503,35,31,-1,-13,-5,3,9,9,0.515137,-0.378906,0.705078,7.8125,-8.875,-6.1875,-0.4769,-0.561423,-2.3871
4503,14,-19,-4,17,-3,-4,-5,-3,0.515137,-0.378906,0.705078,7.8125,-8.875,-6.1875,-0.4769,-0.561423,-2.3871
4524,-106,14,0,-1,5,2,-4,-6,0.487793,-0.391113,0.703613,5.1875,-7.0625,-5.125,-0.475374,-0.563969,-2.38727
4524,13,11,0,7,0,-8,-6,3,0.487793,-0.391113,0.703613,5.1875,-7.0625,-5.125,-0.475374,-0.563969,-2.38727
4525,-15,-17,-8,-1,-4,-1,3,-2,0.487793,-0.391113,0.703613,5.1875,-7.0625,-5.125,-0.475374,-0.563969,-2.38727
4525,-15,-12,-6,-12,2,-3,-12,-1,0.487793,-0.391113,0.703613,5.1875,-7.0625,-5.125,-0.475374,-0.563969,-2.38727
4540,36,-10,-6,-7,-12,-7,-33,-8,0.449219,-0.311523,0.666504,14.0625,-5.75,-2.6875,-0.469991,-0.565814,-2.38748
4540,93,17,18,4,0,-14,-7,5,0.449219,-0.311523,0.666504,14.0625,-5.75,-2.6875,-0.469991,-0.565814,-2.38748
4541,-23,-3,-1,4,-5,-32,-43,0,0.449219,-0.311523,0.666504,14.0625,-5.75,-2.6875,-0.469991,-0.565814,-2.38748
4541,0,-5,-7,-15,0,22,18,0,0.449219,-0.311523,0.666504,14.0625,-5.75,-2.6875,-0.469991,-0.565814,-2.38748
4562,36,4,4,-4,-10,19,7,-2,0.524902,-0.349609,0.680664,13.75,-2.0625,0.1875,-0.465487,-0.567278,-2.38705
4562,16,20,-9,19,15,6,2,-16,0.524902,-0.349609,0.680664,13.75,-2.0625,0.1875,-0.465487,-0.567278,-2.38705
4563,-20,35,7,-5,21,30,18,-8,0.524902,-0.349609,0.680664,13.75,-2.0625,0.1875,-0.465487,-0.567278,-2.38705
4563,-69,-6,-5,-25,-3,-14,-44,-13,0.524902,-0.349609,0.680664,13.75,-2.0625,0.1875,-0.465487,-0.567278,-2.38705
4585,-6,-1,4,15,-5,-6,-9,-3,0.574707,-0.37793,0.69873,4.125,1,0.0625,-0.464613,-0.568223,-2.38675
4585,-45,-10,-3,-7,-2,-2,20,1,0.574707,-0.37793,0.69873,4.125,1,0.0625,-0.464613,-0.568223,-2.38675
4585,9,6,10,32,5,23,25,-10,0.574707,-0.37793,0.69873,4.125,1,0.0625,-0.464613,-0.568223,-2.38675
4585,-49,-4,-3,-3,5,10,-4,12,0.574707,-0.37793,0.69873,4.125,1,0.0625,-0.464613,-0.568223,-2.38675
4600,-7,-2,-6,-25,-9,36,-8,-5,0.432129,-0.370605,0.722168,1.9375,1.5,-1.6875,-0.463757,-0.566335,-2.38759
4600,18,-13,-10,-20,-13,-26,-13,5,0.432129,-0.370605,0.722168,1.9375,1.5,-1.6875,-0.463757,-0.566335,-2.38759
4607,-14,-21,-7,1,4,-5,3,-7,0.432129,-0.370605,0.722168,1.9375,1.5,-1.6875,-0.463757,-0.566335,-2.38759
4607,40,21,12,24,8,-4,-12,-6,0.432129,-0.370605,0.722168,1.9375,1.5,-1.6875,-0.463757,-0.566335,-2.38759
4630,62,-11,-4,19,2,-12,-17,7,0.433105,-0.338867,0.716797,3.5625,1.875,0.625,-0.462007,-0.564208,-2.38785
4630,-42,-3,-10,-101,-14,22,32,4,0.433105,-0.338867,0.716797,3.5625,1.875,0.625,-0.462007,-0.564208,-2.38785
4631,-8,-15,6,82,-15,13,-42,-11,0.433105,-0.338867,0.716797,3.5625,1.875,0.625,-0.462007,-0.564208,-2.38785
4631,48,49,21,42,28,2,14,8,0.433105,-0.338867,0.716797,3.5625,1.875,0.625,-0.462007,-0.564208,-2.38785
4644,-39,-23,-5,-9,2,-21,15,-8,0.474121,-0.331055,0.753906,4.3125,3.75,1.6875,-0.459328,-0.56187,-2.38852
4644,49,13,-3,8,-1,-12,-16,10,0.474121,-0.331055,0.753906,4.3125,3.75,1.6875,-0.459328,-0.56187,-2.38852
4645,-35,-24,-9,-38,-8,-24,22,8,0.474121,-0.331055,0.753906,4.3125,3.75,1.6875,-0.459328,-0.56187,-2.38852
4645,-49,-9,-9,-16,9,15,20,-1,0.474121,-0.331055,0.753906,4.3125,3.75,1.6875,-0.459328,-0.56187,-2.38852
4660,-27,-2,0,-2,-1,-7,-7,-31,0.411133,-0.38623,0.739258,7,5.25,3.8125,-0.457666,-0.557295,-2.38779
4660,-18,17,11,34,2,-12,-11,4,0.411133,-0.38623,0.739258,7,5.25,3.8125,-0.457666,-0.557295,-2.38779
4661,27,-2,-12,-11,-18,-5,-5,-10,0.411133,-0.38623,0.739258,7,5.25,3.8125,-0.457666,-0.557295,-2.38779
4661,-7,-17,-9,-8,-25,-14,2,-2,0.411133,-0.38623,0.739258,7,5.25,3.8125,-0.457666,-0.557295,-2.38779
4682,-34,-14,0,-27,11,-5,4,-2,0.446777,-0.406738,0.719238,7.5,4.75,5.5,-0.457027,-0.553676,-2.38585
4682,5,-32,3,40,23,14,9,5,0.446777,-0.406738,0.719238,7.5,4.75,5.5,-0.457027,-0.553676,-2.38585
4683,45,-5,29,11,12,9,12,-5,0.446777,-0.406738,0.719238,7.5,4.75,5.5,-0.457027,-0.553676,-2.38585
4683,-98,-5,-9,4,-1,-4,13,2,0.446777,-0.406738,0.719238,7.5,4.75,5.5,-0.457027,-0.553676,-2.38585
4705,-8,4,-8,6,-3,-17,5,10,0.512695,-0.361816,0.665039,9.4375,8.375,7,-0.45527,-0.550938,-2.38434
4705,-16,3,-11,-15,-22,-8,-3,-8,0.512695,-0.361816,0.665039,9.4375,8.375,7,-0.45527,-0.550938,-2.38434
4705,-10,-4,-4,-27,-2,12,5,2,0.512695,-0.361816,0.665039,9.4375,8.375,7,-0.45527,-0.550938,-2.38434
4705,29,-7,2,-9,9,-8,-7,-6,0.512695,-0.361816,0.665039,9.4375,8.375,7,-0.45527,-0.550938,-2.38434
4720,-28,42,10,43,5,6,4,6,0.466797,-0.391113,0.791992,4.6875,9.0625,7.0625,-0.4542,-0.545583,-2.38332
4720,-21,-32,-19,-45,-9,-11,1,-1,0.466797,-0.391113,0.791992,4.6875,9.0625,7.0625,-0.4542,-0.545583,-2.38332
4721,-18,8,5,8,5,-17,18,6,0.466797,-0.391113,0.791992,4.6875,9.0625,7.0625,-0.4542,-0.545583,-2.38332
4721,15,-3,10,-9,-5,4,26,4,0.466797,-0.391113,0.791992,4.6875,9.0625,7.0625,-0.4542,-0.545583,-2.38332
4742,-40,-10,-17,7,-13,7,-5,-4,0.454102,-0.37793,0.767578,2.125,7.8125,6.9375,-0.454034,-0.540716,-2.3821
4742,-20,4,-1,5,9,-2,-18,-5,0.454102,-0.37793,0.767578,2.125,7.8125,6.9375,-0.454034,-0.540716,-2.3821
4743,-4,-2,7,11,5,-5,-4,5,0.454102,-0.37793,0.767578,2.125,7.8125,6.9375,-0.454034,-0.540716,-2.3821
4743,31,-1,-2,12,4,4,12,1,0.454102,-0.37793,0.767578,2.125,7.8125,6.9375,-0.454034,-0.540716,-2.3821
4765,-18,-8,2,-24,1,-4,20,6,0.520996,-0.324219,0.70752,2.6875,7.5,7.1875,-0.453259,-0.538401,-2.38097
4765,-6,-9,2,1,-23,10,-16,-17,0.520996,-0.324219,0.70752,2.6875,7.5,7.1875,-0.453259,-0.538401,-2.38097
4766,-47,-26,-21,-36,-4,-7,-35,7,0.520996,-0.324219,0.70752,2.6875,7.5,7.1875,-0.453259,-0.538401,-2.38097
4766,-6,-3,6,29,5,-9,5,-8,0.520996,-0.324219,0.70752,2.6875,7.5,7.1875,-0.453259,-0.538401,-2.38097
4779,12,9,10,-10,4,11,-2,1,0.524414,-0.416504,0.765625,2.5,9.125,6.5625,-0.453843,-0.534728,-2.37964
4779,-18,35,-2,5,10,-8,21,8,0.524414,-0.416504,0.765625,2.5,9.125,6.5625,-0.453843,-0.534728,-2.37964
4780,8,8,-4,17,-14,5,-7,-7,0.524414,-0.416504,0.765625,2.5,9.125,6.5625,-0.453843,-0.534728,-2.37964
4780,30,-21,0,26,-21,-11,-19,0,0.524414,-0.416504,0.765625,2.5,9.125,6.5625,-0.453843,-0.534728,-2.37964
4802,27,13,1,-15,11,-6,45,22,0.398926,-0.443848,0.848633,0.625,5.875,3.8125,-0.454607,-0.528967,-2.37909
4802,-23,7,9,36,7,6,-19,-10,0.398926,-0.443848,0.848633,0.625,5.875,3.8125,-0.454607,-0.528967,-2.37909
4803,10,13,5,17,29,4,19,8,0.398926,-0.443848,0.848633,0.625,5.875,3.8125,-0.454607,-0.528967,-2.37909
4803,44,10,-11,-43,-22,-18,-13,-17,0.398926,-0.443848,0.848633,0.625,5.875,3.8125,-0.454607,-0.528967,-2.37909
4825,8,10,-2,22,-16,0,26,-21,0.465332,-0.383789,0.768555,2.5625,2.125,3.8125,-0.454348,-0.526901,-2.37795
4825,-17,-5,8,7,15,14,44,38,0.465332,-0.383789,0.768555,2.5625,2.125,3.8125,-0.454348,-0.526901,-2.37795
4825,-5,23,-6,-18,-5,-4,3,2,0.465332,-0.383789,0.768555,2.5625,2.125,3.8125,-0.454348,-0.526901,-2.37795
4825,-5,-54,-11,-24,-9,1,-6,-18,0.465332,-0.383789,0.768555,2.5625,2.125,3.8125,-0.454348,-0.526901,-2.37795
4839,11,36,-7,-83,-13,12,22,2,0.505371,-0.400879,0.762695,4.125,0.75,2.25,-0.453985,-0.526449,-2.37682
4839,5,3,9,89,2,12,-24,-12,0.505371,-0.400879,0.762695,4.125,0.75,2.25,-0.453985,-0.526449,-2.37682
4840,-10,5,-3,-45,-1,-5,-1,8,0.505371,-0.400879,0.762695,4.125,0.75,2.25,-0.453985,-0.526449,-2.37682
4840,1,33,15,29,20,19,17,11,0.505371,-0.400879,0.762695,4.125,0.75,2.25,-0.453985,-0.526449,-2.37682
4862,-1,-25,-13,-4,-5,-33,-16,-7,0.455566,-0.396484,0.793945,6.6875,0.9375,0.9375,-0.452098,-0.524774,-2.37653
4862,23,6,-2,-54,-19,-2,0,-6,0.455566,-0.396484,0.793945,6.6875,0.9375,0.9375,-0.452098,-0.524774,-2.37653
4862,-29,-23,-13,24,-13,-6,39,1,0.455566,-0.396484,0.793945,6.6875,0.9375,0.9375,-0.452098,-0.524774,-2.37653
4862,-48,3,5,8,17,-10,-11,17,0.455566,-0.396484,0.793945,6.6875,0.9375,0.9375,-0.452098,-0.524774,-2.37653
4884,-8,-5,22,59,16,1,-18,1,0.419922,-0.405273,0.770996,3.9375,-0.8125,0.25,-0.451593,-0.523154,-2.37589
4884,17,-23,-10,-31,-7,-13,-19,-8,0.419922,-0.405273,0.770996,3.9375,-0.8125,0.25,-0.451593,-0.523154,-2.37589
4885,28,15,-8,-11,-24,-34,-13,-8,0.419922,-0.405273,0.770996,3.9375,-0.8125,0.25,-0.451593,-0.523154,-2.37589
4885,13,-7,2,8,-7,-10,20,10,0.419922,-0.405273,0.770996,3.9375,-0.8125,0.25,-0.451593,-0.523154,-2.37589
4907,-49,-13,-3,71,26,49,-10,5,0.480469,-0.384277,0.72168,8.5625,-0.5,-0.0625,-0.449481,-0.523539,-2.37539
4907,-27,-23,3,4,-1,-5,48,1,0.480469,-0.384277,0.72168,8.5625,-0.5,-0.0625,-0.449481,-0.523539,-2.37539
4908,-18,-11,-12,-70,-1,7,-15,1,0.480469,-0.384277,0.72168,8.5625,-0.5,-0.0625,-0.449481,-0.523539,-2.37539
4908,-3,3,-10,2,-13,-8,-9,-2,0.480469,-0.384277,0.72168,8.5625,-0.5,-0.0625,-0.449481,-0.523539,-2.37539
4922,10,18,7,-23,-15,-11,-19,3,0.45166,-0.358398,0.723145,7,0.4375,-0.375,-0.447293,-0.523191,-2.37545
4922,11,-20,-1,8,6,6,-1,-11,0.45166,-0.358398,0.723145,7,0.4375,-0.375,-0.447293,-0.523191,-2.37545
4923,12,-7,-2,-3,2,-8,26,6,0.45166,-0.358398,0.723145,7,0.4375,-0.375,-0.447293,-0.523191,-2.37545
4923,9,1,-6,-23,-12,13,-8,-6,0.45166,-0.358398,0.723145,7,0.4375,-0.375,-0.447293,-0.523191,-2.37545
4944,-5,2,9,8,5,-10,-10,8,0.448242,-0.368652,0.733887,3.5,2,1.5625,-0.446534,-0.521815,-2.375
4944,-24,-1,7,19,14,5,4,-16,0.448242,-0.368652,0.733887,3.5,2,1.5625,-0.446534,-0.521815,-2.375
4945,-51,-7,-4,-15,-4,2,-16,5,0.448242,-0.368652,0.733887,3.5,2,1.5625,-0.446534,-0.521815,-2.375
4945,9,11,-4,-61,-2,23,-23,-1,0.448242,-0.368652,0.733887,3.5,2,1.5625,-0.446534,-0.521815,-2.375
4959,-17,-34,-11,8,-19,-16,-10,-14,0.457031,-0.442383,0.794434,2.25,1.25,1.1875,-0.447304,-0.51983,-2.37405
4959,23,11,-3,-21,-3,-15,-19,-1,0.457031,-0.442383,0.794434,2.25,1.25,1.1875,-0.447304,-0.51983,-2.37405
4967,46,-3,18,50,28,14,-3,-4,0.457031,-0.442383,0.794434,2.25,1.25,1.1875,-0.447304,-0.51983,-2.37405
4967,49,52,1,7,-5,4,38,11,0.457031,-0.442383,0.794434,2.25,1.25,1.1875,-0.447304,-0.51983,-2.37405
4982,-19,-52,-20,-37,-13,2,-23,-24,0.437988,-0.393066,0.761719,6.1875,0.875,0.125,-0.445942,-0.518403,-2.37372
4982,-6,10,-11,48,1,-2,-11,12,0.437988,-0.393066,0.761719,6.1875,0.875,0.125,-0.445942,-0.518403,-2.37372
4983,37,19,14,-4,-3,9,7,-13,0.437988,-0.393066,0.761719,6.1875,0.875,0.125,-0.445942,-0.518403,-2.37372
4983,2,-6,-2,11,16,18,1,0,0.437988,-0.393066,0.761719,6.1875,0.875,0.125,-0.445942,-0.518403,-2.37372
5005,-5,8,-4,-91,3,-9,-3,-1,0.478027,-0.335449,0.76416,3.3125,-0.875,-0.1875,-0.444129,-0.518801,-2.37401
5005,23,1,-14,-22,-24,5,-6,2,0.478027,-0.335449,0.76416,3.3125,-0.875,-0.1875,-0.444129,-0.518801,-2.37401
5005,7,4,37,47,24,3,-11,2,0.478027,-0.335449,0.76416,3.3125,-0.875,-0.1875,-0.444129,-0.518801,-2.37401
5005,14,-18,-2,39,4,-8,-3,-2,0.478027,-0.335449,0.76416,3.3125,-0.875,-0.1875,-0.444129,-0.518801,-2.37401
5019,-6,24,-1,11,4,-9,3,-1,0.48291,-0.347656,0.773438,2.875,-0.1875,0,-0.442583,-0.518807,-2.37419
5019,-4,-11,-14,-54,-6,27,1,-2,0.48291,-0.347656,0.773438,2.875,-0.1875,0,-0.442583,-0.518807,-2.37419
5027,16,7,-23,2,-26,-14,-46,-8,0.48291,-0.347656,0.773438,2.875,-0.1875,0,-0.442583,-0.518807,-2.37419
5027,-46,-7,3,-27,2,-33,-11,-5,0.48291,-0.347656,0.773438,2.875,-0.1875,0,-0.442583,-0.518807,-2.37419
5042,9,2,-1,-48,-33,-1,20,9,0.448242,-0.38623,0.773438,3.125,-0.1875,-0.6875,-0.441972,-0.517996,-2.37407
5042,4,8,-13,10,-16,-26,-15,0,0.448242,-0.38623,0.773438,3.125,-0.1875,-0.6875,-0.441972,-0.517996,-2.37407
5043,7,-4,10,73,46,-5,-11,-2,0.448242,-0.38623,0.773438,3.125,-0.1875,-0.6875,-0.441972,-0.517996,-2.37407
5043,-37,-16,34,58,29,17,-25,-6,0.448242,-0.38623,0.773438,3.125,-0.1875,-0.6875,-0.441972,-0.517996,-2.37407
5065,16,5,-10,-7,13,16,1,15,0.443848,-0.29834,0.729492,7.125,0.625,0.8125,-0.438382,-0.51762,-2.37456
5065,-39,-1,3,-4,-15,-11,-1,8,0.443848,-0.29834,0.729492,7.125,0.625,0.8125,-0.438382,-0.51762,-2.37456
5072,18,-22,-34,-81,-36,9,6,-15,0.443848,-0.29834,0.729492,7.125,0.625,0.8125,-0.438382,-0.51762,-2.37456
5072,24,8,-6,-71,-11,-14,-12,-2,0.443848,-0.29834,0.729492,7.125,0.625,0.8125,-0.438382,-0.51762,-2.37456
5089,17,13,19,43,15,3,-7,5,0.494141,-0.375488,0.731934,4.1875,3.0625,1.9375,-0.437867,-0.516878,-2.37393
5089,47,-4,6,29,1,14,47,-10,0.494141,-0.375488,0.731934,4.1875,3.0625,1.9375,-0.437867,-0.516878,-2.37393
5089,20,0,-4,3,-10,-12,2,5,0.494141,-0.375488,0.731934,4.1875,3.0625,1.9375,-0.437867,-0.516878,-2.37393
5089,11,-7,-5,-1,4,0,9,-1,0.494141,-0.375488,0.731934,4.1875,3.0625,1.9375,-0.437867,-0.516878,-2.37393
5102,1,0,4,-6,-2,0,-12,-2,0.437012,-0.392578,0.768555,1.4375,3.75,1.875,-0.438175,-0.514246,-2.37341
5102,-23,-3,1,24,6,-2,-8,-2,0.437012,-0.392578,0.768555,1.4375,3.75,1.875,-0.438175,-0.514246,-2.37341
5103,-9,-41,-4,-14,3,3,13,-9,0.437012,-0.392578,0.768555,1.4375,3.75,1.875,-0.438175,-0.514246,-2.37341
5103,3,5,-2,3,-17,-5,-1,-4,0.437012,-0.392578,0.768555,1.4375,3.75,1.875,-0.438175,-0.514246,-2.37341
5124,-9,-8,-3,5,-5,13,-16,-2,0.423828,-0.346191,0.79541,1.625,1.5625,1.625,-0.437138,-0.512213,-2.37345
5124,-7,9,4,-18,21,-12,4,8,0.423828,-0.346191,0.79541,1.625,1.5625,1.625,-0.437138,-0.512213,-2.37345
5125,-8,7,0,-42,-18,-3,-10,-23,0.423828,-0.346191,0.79541,1.625,1.5625,1.625,-0.437138,-0.512213,-2.37345
5125,-4,16,-3,48,-16,-12,-8,9,0.423828,-0.346191,0.79541,1.625,1.5625,1.625,-0.437138,-0.512213,-2.37345
5139,-27,-42,7,27,48,25,3,-19,0.484863,-0.385254,0.793457,6.4375,0.9375,1.625,-0.435485,-0.511452,-2.37291
5139,4,14,-2,-12,4,-9,-33,-5,0.484863,-0.385254,0.793457,6.4375,0.9375,1.625,-0.435485,-0.511452,-2.37291
5148,20,22,-3,-22,-15,7,-14,-4,0.484863,-0.385254,0.793457,6.4375,0.9375,1.625,-0.435485,-0.511452,-2.37291
5148,-46,-19,-21,22,-15,-2,8,-3,0.484863,-0.385254,0.793457,6.4375,0.9375,1.625,-0.435485,-0.511452,-2.37291
5162,14,31,1,-23,-18,-13,15,0,0.466797,-0.369629,0.791016,8.5625,-0.1875,0.875,-0.432643,-0.51084,-2.37245
5162,29,-9,9,43,14,-9,-8,-1,0.466797,-0.369629,0.791016,8.5625,-0.1875,0.875,-0.432643,-0.51084,-2.37245
5163,-12,30,-15,-15,7,7,19,1,0.466797,-0.369629,0.791016,8.5625,-0.1875,0.875,-0.432643,-0.51084,-2.37245
5163,-12,-44,8,-56,0,1,-3,2,0.466797,-0.369629,0.791016,8.5625,-0.1875,0.875,-0.432643,-0.51084,-2.37245
5185,22,1,-7,26,-18,-9,2,6,0.444336,-0.34668,0.785156,5.625,-0.875,0.25,-0.430512,-0.510296,-2.37236
5185,25,-2,6,-56,-7,-11,-7,2,0.444336,-0.34668,0.785156,5.625,-0.875,0.25,-0.430512,-0.510296,-2.37236
5186,-21,-32,1,49,16,17,-20,23,0.444336,-0.34668,0.785156,5.625,-0.875,0.25,-0.430512,-0.510296,-2.37236
5186,-37,14,-5,-32,1,0,8,25,0.444336,-0.34668,0.785156,5.625,-0.875,0.25,-0.430512,-0.510296,-2.37236
5208,-17,-9,-8,-15,-21,-13,-20,-19,0.458008,-0.386719,0.749512,5.4375,-1.0625,0.625,-0.429884,-0.510259,-2.37135
5208,1,35,11,0,10,9,43,15,0.458008,-0.386719,0.749512,5.4375,-1.0625,0.625,-0.429884,-0.510259,-2.37135
5209,-38,22,-3,12,1,-3,22,2,0.458008,-0.386719,0.749512,5.4375,-1.0625,0.625,-0.429884,-0.510259,-2.37135
5209,-1,5,-1,19,13,7,12,-17,0.458008,-0.386719,0.749512,5.4375,-1.0625,0.625,-0.429884,-0.510259,-2.37135
5222,-17,33,11,-3,0,-15,2,15,0.455566,-0.345703,0.748535,8.25,-0.5625,-0.0625,-0.4271,-0.510394,-2.37131
5222,-28,25,-5,-25,-15,-9,-19,8,0.455566,-0.345703,0.748535,8.25,-0.5625,-0.0625,-0.4271,-0.510394,-2.37131
5223,-26,3,-15,-14,-31,-9,-2,-3,0.455566,-0.345703,0.748535,8.25,-0.5625,-0.0625,-0.4271,-0.510394,-2.37131
5223,-29,15,16,57,33,4,7,-7,0.455566,-0.345703,0.748535,8.25,-0.5625,-0.0625,-0.4271,-0.510394,-2.37131
5244,-15,-6,1,39,21,-6,3,1,0.455566,-0.365723,0.790039,7.5,-0.375,-0.1875,-0.424687,-0.509801,-2.37116
5244,-38,-3,-2,-15,-4,14,1,-5,0.455566,-0.365723,0.790039,7.5,-0.375,-0.1875,-0.424687,-0.509801,-2.37116
5245,-4,3,0,3,-1,-22,0,10,0.455566,-0.365723,0.790039,7.5,-0.375,-0.1875,-0.424687,-0.509801,-2.37116
5245,39,3,-15,-40,-24,1,11,-7,0.455566,-0.365723,0.790039,7.5,-0.375,-0.1875,-0.424687,-0.509801,-2.37116
5268,24,1,1,41,-3,2,6,1,0.45752,-0.387695,0.828125,7.1875,-2.25,-0.8125,-0.422549,-0.509419,-2.37099
5268,-21,-20,10,9,-1,-6,-21,-5,0.45752,-0.387695,0.828125,7.1875,-2.25,-0.8125,-0.422549,-0.509419,-2.37099
5268,26,-23,7,2,16,1,5,-6,0.45752,-0.387695,0.828125,7.1875,-2.25,-0.8125,-0.422549,-0.509419,-2.37099
5268,-12,14,-14,-3,-1,5,-5,-8,0.45752,-0.387695,0.828125,7.1875,-2.25,-0.8125,-0.422549,-0.509419,-2.37099
5282,-14,5,-15,-14,-19,-13,32,-7,0.445801,-0.374512,0.800781,7.375,-4,-2.375,-0.420426,-0.510042,-2.37091
5282,-2,-10,-6,62,-2,-9,-20,-13,0.445801,-0.374512,0.800781,7.375,-4,-2.375,-0.420426,-0.510042,-2.37091
5282,-23,-11,18,39,22,7,7,0,0.445801,-0.374512,0.800781,7.375,-4,-2.375,-0.420426,-0.510042,-2.37091
5282,-4,-2,5,-16,12,23,2,-6,0.445801,-0.374512,0.800781,7.375,-4,-2.375,-0.420426,-0.510042,-2.37091
5305,-9,0,-8,-27,7,-9,-3,3,0.463379,-0.350098,0.779785,9.5,-5.625,-3.375,-0.416928,-0.511893,-2.37122
5305,5,-56,-19,-51,-41,-6,-8,-11,0.463379,-0.350098,0.779785,9.5,-5.625,-3.375,-0.416928,-0.511893,-2.37122
5305,19,-35,13,11,-16,8,21,-2,0.463379,-0.350098,0.779785,9.5,-5.625,-3.375,-0.416928,-0.511893,-2.37122
5305,13,-17,-4,5,33,-18,-46,-1,0.463379,-0.350098,0.779785,9.5,-5.625,-3.375,-0.416928,-0.511893,-2.37122
5327,17,6,5,80,14,14,-26,8,0.473633,-0.324707,0.708984,12.125,-3.375,-2.3125,-0.412942,-0.51402,-2.37127
5327,2,-17,-12,13,-7,0,2,-4,0.473633,-0.324707,0.708984,12.125,-3.375,-2.3125,-0.412942,-0.51402,-2.37127
5328,20,10,-7,-1,-10,-5,-17,-2,0.473633,-0.324707,0.708984,12.125,-3.375,-2.3125,-0.412942,-0.51402,-2.37127
5328,-7,12,13,-15,9,28,51,14,0.473633,-0.324707,0.708984,12.125,-3.375,-2.3125,-0.412942,-0.51402,-2.37127
5341,14,-8,-10,8,-31,-28,-13,-19,0.466309,-0.294434,0.735352,7.9375,-1,-1.25,-0.409365,-0.51494,-2.37183
5341,-20,10,4,-37,34,23,25,1,0.466309,-0.294434,0.735352,7.9375,-1,-1.25,-0.409365,-0.51494,-2.37183
5343,-24,-8,-15,2,-12,-7,-5,1,0.466309,-0.294434,0.735352,7.9375,-1,-1.25,-0.409365,-0.51494,-2.37183
5343,3,16,-4,22,-12,-21,0,-2,0.466309,-0.294434,0.735352,7.9375,-1,-1.25,-0.409365,-0.51494,-2.37183
5365,2,8,15,-29,15,4,-11,0,0.456543,-0.333984,0.760254,5.5625,1.125,-0.625,-0.407317,-0.514279,-2.37215
5365,5,-1,3,59,12,19,21,5,0.456543,-0.333984,0.760254,5.5625,1.125,-0.625,-0.407317,-0.514279,-2.37215
5365,-17,46,-10,-61,-15,-8,-10,-8,0.456543,-0.333984,0.760254,5.5625,1.125,-0.625,-0.407317,-0.514279,-2.37215
5365,19,-3,-8,-1,-10,17,-6,7,0.456543,-0.333984,0.760254,5.5625,1.125,-0.625,-0.407317,-0.514279,-2.37215
5388,-49,-21,2,-9,-2,-20,-11,-7,0.453125,-0.337402,0.771484,4.25,1.4375,-0.8125,-0.405694,-0.513469,-2.3726
5388,-4,3,0,-53,-17,-14,-19,5,0.453125,-0.337402,0.771484,4.25,1.4375,-0.8125,-0.405694,-0.513469,-2.3726
5388,49,1,7,32,-5,4,3,9,0.453125,-0.337402,0.771484,4.25,1.4375,-0.8125,-0.405694,-0.513469,-2.3726
5388,1,-45,-15,6,-4,-11,-19,-12,0.453125,-0.337402,0.771484,4.25,1.4375,-0.8125,-0.405694,-0.513469,-2.3726
5402,-16,10,13,32,25,19,3,-6,0.435547,-0.355469,0.79834,-0.25,0.625,-1.25,-0.40582,-0.512206,-2.37303
5402,-11,-15,-17,15,-1,-8,-17,-6,0.435547,-0.355469,0.79834,-0.25,0.625,-1.25,-0.40582,-0.512206,-2.37303
5403,-20,2,2,-52,-10,-13,-6,13,0.435547,-0.355469,0.79834,-0.25,0.625,-1.25,-0.40582,-0.512206,-2.37303
5403,-4,-7,5,24,-14,-12,-21,-2,0.435547,-0.355469,0.79834,-0.25,0.625,-1.25,-0.40582,-0.512206,-2.37303
5425,15,6,-6,-24,-1,-17,21,-7,0.443359,-0.342773,0.780762,0.9375,-0.5625,-1.5625,-0.405386,-0.511844,-2.37346
5425,-14,-8,1,-104,-5,16,-1,-9,0.443359,-0.342773,0.780762,0.9375,-0.5625,-1.5625,-0.405386,-0.511844,-2.37346
5425,14,20,-17,33,-25,-34,1,3,0.443359,-0.342773,0.780762,0.9375,-0.5625,-1.5625,-0.405386,-0.511844,-2.37346
5425,17,9,30,48,33,46,6,3,0.443359,-0.342773,0.780762,0.9375,-0.5625,-1.5625,-0.405386,-0.511844,-2.37346
5448,17,-12,-17,-75,-2,0,2,13,0.468262,-0.313477,0.764648,3.1875,-0.8125,-1.625,-0.403828,-0.51247,-2.37409
5448,17,24,-1,35,-12,-10,-1,4,0.468262,-0.313477,0.764648,3.1875,-0.8125,-1.625,-0.403828,-0.51247,-2.37409
5449,2,-8,15,-14,20,21,9,5,0.468262,-0.313477,0.764648,3.1875,-0.8125,-1.625,-0.403828,-0.51247,-2.37409
5449,8,20,-9,-7,-15,-18,12,9,0.468262,-0.313477,0.764648,3.1875,-0.8125,-1.625,-0.403828,-0.51247,-2.37409
5463,15,0,-5,-21,-16,5,-15,-3,0.485352,-0.28418,0.756836,0.75,-0.0625,-0.5625,-0.403539,-0.512569,-2.37421
5463,-24,11,15,17,6,2,0,-1,0.485352,-0.28418,0.756836,0.75,-0.0625,-0.5625,-0.403539,-0.512569,-2.37421
5463,-21,-12,11,19,30,16,25,-9,0.485352,-0.28418,0.756836,0.75,-0.0625,-0.5625,-0.403539,-0.512569,-2.37421
5463,-5,16,0,-14,-9,-22,-21,-18,0.485352,-0.28418,0.756836,0.75,-0.0625,-0.5625,-0.403539,-0.512569,-2.37421
5485,-53,16,-11,4,-2,11,-19,-6,0.458984,-0.344727,0.783203,-0.4375,0.0625,-0.3125,-0.403505,-0.512431,-2.37412
5485,-2,-19,-10,-42,-44,-27,4,2,0.458984,-0.344727,0.783203,-0.4375,0.0625,-0.3125,-0.403505,-0.512431,-2.37412
5485,30,-8,-3,25,7,-1,-37,-4,0.458984,-0.344727,0.783203,-0.4375,0.0625,-0.3125,-0.403505,-0.512431,-2.37412
5485,-45,1,4,-1,38,10,8,-12,0.458984,-0.344727,0.783203,-0.4375,0.0625,-0.3125,-0.403505,-0.512431,-2.37412
5508,6,25,-5,92,-13,16,55,17,0.453125,-0.299805,0.76416,1.625,-0.1875,0.375,-0.402437,-0.51229,-2.37436
5508,-12,32,0,2,34,-3,-2,13,0.453125,-0.299805,0.76416,1.625,-0.1875,0.375,-0.402437,-0.51229,-2.37436
5509,-20,4,-11,-54,-36,-12,-9,-15,0.453125,-0.299805,0.76416,1.625,-0.1875,0.375,-0.402437,-0.51229,-2.37436
5509,18,-8,-30,-40,-38,-25,6,7,0.453125,-0.299805,0.76416,1.625,-0.1875,0.375,-0.402437,-0.51229,-2.37436
5522,42,-39,-8,-20,17,-14,10,-4,0.489258,-0.320801,0.776367,0.8125,0.375,0.5,-0.402312,-0.512333,-2.37437
5522,11,43,13,55,25,38,23,12,0.489258,-0.320801,0.776367,0.8125,0.375,0.5,-0.402312,-0.512333,-2.37437
5523,-35,-2,46,27,25,-16,-3,8,0.489258,-0.320801,0.776367,0.8125,0.375,0.5,-0.402312,-0.512333,-2.37437
5523,-37,-9,-11,13,-31,-12,-1,2,0.489258,-0.320801,0.776367,0.8125,0.375,0.5,-0.402312,-0.512333,-2.37437
5544,-11,-7,13,-11,-7,-3,6,-4,0.437988,-0.318848,0.770996,-0.5625,0.9375,0.625,-0.402239,-0.512207,-2.37438
5544,-18,10,2,-6,4,-9,7,-2,0.437988,-0.318848,0.770996,-0.5625,0.9375,0.625,-0.402239,-0.512207,-2.37438
5545,-14,-26,-19,-2,-11,7,0,-10,0.437988,-0.318848,0.770996,-0.5625,0.9375,0.625,-0.402239,-0.512207,-2.37438
5545,-1,16,-4,-29,4,1,-2,-4,0.437988,-0.318848,0.770996,-0.5625,0.9375,0.625,-0.402239,-0.512207,-2.37438
5567,-2,-44,7,28,-4,5,16,6,0.45752,-0.334473,0.779297,0.4375,1,1.25,-0.402334,-0.511275,-2.37403
5567,9,-10,1,12,-5,-12,-25,-25,0.45752,-0.334473,0.779297,0.4375,1,1.25,-0.402334,-0.511275,-2.37403
5569,-9,44,-13,-3,-4,17,2,-2,0.45752,-0.334473,0.779297,0.4375,1,1.25,-0.402334,-0.511275,-2.37403
5569,1,3,-7,-25,-24,-19,-7,-2,0.45752,-0.334473,0.779297,0.4375,1,1.25,-0.402334,-0.511275,-2.37403
5582,16,11,14,25,19,6,18,8,0.464355,-0.29834,0.775391,0.625,1,1.625,-0.401563,-0.510688,-2.37392
5582,-54,-59,-2,-12,16,1,-56,-2,0.464355,-0.29834,0.775391,0.625,1,1.625,-0.401563,-0.510688,-2.37392
5583,-52,-6,-13,17,4,0,-8,1,0.464355,-0.29834,0.775391,0.625,1,1.625,-0.401563,-0.510688,-2.37392
5583,22,-3,-1,-57,-22,1,14,10,0.464355,-0.29834,0.775391,0.625,1,1.625,-0.401563,-0.510688,-2.37392
5605,-44,3,-4,41,12,1,-27,-8,0.452637,-0.333984,0.801758,-0.0625,1.3125,1.9375,-0.401653,-0.509354,-2.37355
5605,22,7,17,18,20,-3,-26,4,0.452637,-0.333984,0.801758,-0.0625,1.3125,1.9375,-0.401653,-0.509354,-2.37355
5606,29,-19,-13,-47,3,16,18,-11,0.452637,-0.333984,0.801758,-0.0625,1.3125,1.9375,-0.401653,-0.509354,-2.37355
5606,-30,-7,-7,-1,-33,-21,-13,2,0.452637,-0.333984,0.801758,-0.0625,1.3125,1.9375,-0.401653,-0.509354,-2.37355
5628,-36,0,-8,-69,-5,19,-61,-8,0.454102,-0.336914,0.783691,-0.875,0.9375,1.75,-0.402234,-0.508407,-2.37306
5628,89,6,13,30,4,-14,11,15,0.454102,-0.336914,0.783691,-0.875,0.9375,1.75,-0.402234,-0.508407,-2.37306
5629,-11,-18,7,12,7,3,2,-2,0.454102,-0.336914,0.783691,-0.875,0.9375,1.75,-0.402234,-0.508407,-2.37306
5629,-2,7,4,3,0,5,2,-4,0.454102,-0.336914,0.783691,-0.875,0.9375,1.75,-0.402234,-0.508407,-2.37306
5642,40,-24,-17,-39,-26,-14,-12,-3,0.447754,-0.339355,0.802734,1.375,-0.125,0.8125,-0.401919,-0.507468,-2.37267
5642,21,10,-7,31,-11,-5,39,7,0.447754,-0.339355,0.802734,1.375,-0.125,0.8125,-0.401919,-0.507468,-2.37267
5643,5,-10,-7,2,-4,-6,-6,-2,0.447754,-0.339355,0.802734,1.375,-0.125,0.8125,-0.401919,-0.507468,-2.37267
5643,8,20,16,27,27,25,27,-4,0.447754,-0.339355,0.802734,1.375,-0.125,0.8125,-0.401919,-0.507468,-2.37267
5665,11,1,20,23,15,9,-6,3,0.46875,-0.332031,0.770996,2.875,-0.375,0.875,-0.401092,-0.507459,-2.37233
5665,-22,9,-24,-83,-25,-6,5,2,0.46875,-0.332031,0.770996,2.875,-0.375,0.875,-0.401092,-0.507459,-2.37233
5665,1,-23,-26,-121,-24,-5,-2,11,0.46875,-0.332031,0.770996,2.875,-0.375,0.875,-0.401092,-0.507459,-2.37233
5665,25,-24,14,112,28,-4,12,1,0.46875,-0.332031,0.770996,2.875,-0.375,0.875,-0.401092,-0.507459,-2.37233
5689,-9,18,0,14,-5,-1,16,6,0.470215,-0.36377,0.789062,3.125,0,-0.0625,-0.400841,-0.507205,-2.37187
5689,-31,4,-2,-19,4,-1,1,5,0.470215,-0.36377,0.789062,3.125,0,-0.0625,-0.400841,-0.507205,-2.37187
5689,2,12,-6,-22,8,5,-3,-13,0.470215,-0.36377,0.789062,3.125,0,-0.0625,-0.400841,-0.507205,-2.37187
5689,15,-27,5,-4,-4,4,-3,-3,0.470215,-0.36377,0.789062,3.125,0,-0.0625,-0.400841,-0.507205,-2.37187
5702,-16,13,-2,3,-5,-7,-12,-4,0.439453,-0.286621,0.764648,5.0625,0.0625,0.25,-0.398095,-0.506796,-2.37218
5702,23,-26,-2,-4,-3,-4,9,-6,0.439453,-0.286621,0.764648,5.0625,0.0625,0.25,-0.398095,-0.506796,-2.37218
5702,-12,-2,3,34,-5,-4,-10,13,0.439453,-0.286621,0.764648,5.0625,0.0625,0.25,-0.398095,-0.506796,-2.37218
5702,-20,-17,-15,-34,1,-3,8,2,0.439453,-0.286621,0.764648,5.0625,0.0625,0.25,-0.398095,-0.506796,-2.37218
5724,1,7,16,25,9,18,17,-8,0.473145,-0.327637,0.777832,0.75,0.25,0.25,-0.398095,-0.506796,-2.37218
5724,15,-6,12,9,-3,4,-4,11,0.473145,-0.327637,0.777832,0.75,0.25,0.25,-0.398095,-0.506796,-2.37218
5725,-4,14,-6,-5,7,4,3,-6,0.473145,-0.327637,0.777832,0.75,0.25,0.25,-0.398095,-0.506796,-2.37218
5725,-1,-18,-15,-11,-6,3,-15,-11,0.473145,-0.327637,0.777832,0.75,0.25,0.25,-0.398095,-0.506796,-2.37218
5748,4,9,3,-25,-13,-18,26,18,0.477539,-0.340332,0.77002,3.4375,0.625,-1.5,-0.397132,-0.507069,-2.37266
5748,-14,-6,2,28,2,16,-42,-26,0.477539,-0.340332,0.77002,3.4375,0.625,-1.5,-0.397132,-0.507069,-2.37266
5749,32,37,7,2,2,0,-6,7,0.477539,-0.340332,0.77002,3.4375,0.625,-1.5,-0.397132,-0.507069,-2.37266
5749,-29,4,-8,-26,-10,-10,-8,-12,0.477539,-0.340332,0.77002,3.4375,0.625,-1.5,-0.397132,-0.507069,-2.37266
5762,3,-19,-9,-2,-10,-7,10,-2,0.458008,-0.245605,0.669434,5.5,3.75,-2.875,-0.393523,-0.507573,-2.37476
5762,21,9,-8,21,23,6,25,6,0.458008,-0.245605,0.669434,5.5,3.75,-2.875,-0.393523,-0.507573,-2.37476
5763,-20,-4,23,66,17,-4,3,-11,0.458008,-0.245605,0.669434,5.5,3.75,-2.875,-0.393523,-0.507573,-2.37476
5763,-17,3,1,-18,-7,-8,-20,8,0.458008,-0.245605,0.669434,5.5,3.75,-2.875,-0.393523,-0.507573,-2.37476
5784,4,-2,-5,5,-8,-7,11,-6,0.456055,-0.346191,0.823242,-0.875,4.8125,-0.125,-0.393478,-0.505259,-2.37549
5784,-22,-9,-12,1,2,-5,-15,5,0.456055,-0.346191,0.823242,-0.875,4.8125,-0.125,-0.393478,-0.505259,-2.37549
5785,-18,10,-15,-70,-19,-12,-6,-3,0.456055,-0.346191,0.823242,-0.875,4.8125,-0.125,-0.393478,-0.505259,-2.37549
5785,7,3,8,57,-7,2,-1,0,0.456055,-0.346191,0.823242,-0.875,4.8125,-0.125,-0.393478,-0.505259,-2.37549
5807,-9,-1,-3,12,29,3,-9,-12,0.416016,-0.366211,0.845703,-0.25,3.4375,-0.4375,-0.393568,-0.502156,-2.37595
5807,-4,-19,1,-23,-20,6,-5,-6,0.416016,-0.366211,0.845703,-0.25,3.4375,-0.4375,-0.393568,-0.502156,-2.37595
5808,0,5,-19,-37,-17,-10,-9,-4,0.416016,-0.366211,0.845703,-0.25,3.4375,-0.4375,-0.393568,-0.502156,-2.37595
5808,8,-53,4,23,-3,-1,-15,-10,0.416016,-0.366211,0.845703,-0.25,3.4375,-0.4375,-0.393568,-0.502156,-2.37595
5822,0,27,13,-13,12,0,-4,12,0.434082,-0.314453,0.855469,1.125,0.5625,-0.6875,-0.39209,-0.500644,-2.37676
5822,-43,3,-9,-17,2,-4,-26,-20,0.434082,-0.314453,0.855469,1.125,0.5625,-0.6875,-0.39209,-0.500644,-2.37676
5830,11,-51,-6,2,-1,3,6,2,0.434082,-0.314453,0.855469,1.125,0.5625,-0.6875,-0.39209,-0.500644,-2.37676
5830,22,35,6,8,4,-1,21,1,0.434082,-0.314453,0.855469,1.125,0.5625,-0.6875,-0.39209,-0.500644,-2.37676
5844,1,-4,-12,16,-40,-4,-62,-1,0.469238,-0.335938,0.79834,0.9375,-0.75,-0.5,-0.39209,-0.500644,-2.37676
5844,-27,3,17,17,47,16,4,3,0.469238,-0.335938,0.79834,0.9375,-0.75,-0.5,-0.39209,-0.500644,-2.37676
5845,-9,41,17,9,6,11,18,2,0.469238,-0.335938,0.79834,0.9375,-0.75,-0.5,-0.39209,-0.500644,-2.37676
5845,-10,8,-16,-20,-9,-6,-10,11,0.469238,-0.335938,0.79834,0.9375,-0.75,-0.5,-0.39209,-0.500644,-2.37676
5867,-34,-25,-8,-90,-4,-3,9,8,0.450684,-0.337402,0.775391,0.5625,-1.0625,-1.125,-0.392195,-0.500906,-2.37683
5867,-3,-3,-11,102,-32,-4,-32,-28,0.450684,-0.337402,0.775391,0.5625,-1.0625,-1.125,-0.392195,-0.500906,-2.37683
5868,2,-10,10,33,18,9,10,17,0.450684,-0.337402,0.775391,0.5625,-1.0625,-1.125,-0.392195,-0.500906,-2.37683
5868,-30,10,11,15,25,5,7,3,0.450684,-0.337402,0.775391,0.5625,-1.0625,-1.125,-0.392195,-0.500906,-2.37683
5881,-40,11,-12,14,-14,-18,6,-18,0.45459,-0.284668,0.792969,-1.1875,-1.875,-1,-0.391448,-0.501504,-2.3774
