0,0,-3,-5,-14,24,-15,1,0,-0.126465,-0.628418,0.729492,30,95.9375,-4.6875,-0.672957,0.298481,0.690973
0,-4,-2,1,-7,8,-4,-7,-4,-0.126465,-0.628418,0.729492,30,95.9375,-4.6875,-0.672957,0.298481,0.690973
2,-3,-1,-5,5,-14,-67,1,0,-0.126465,-0.628418,0.729492,30,95.9375,-4.6875,-0.672957,0.298481,0.690973
2,-1,-1,1,4,55,60,-5,-1,-0.126465,-0.628418,0.729492,30,95.9375,-4.6875,-0.672957,0.298481,0.690973
2,-2,-1,-4,-6,-44,13,2,-2,-0.203613,-0.603516,0.75293,75.5625,125.188,4.25,-0.655171,0.333054,0.663801
2,0,1,3,6,6,-9,-1,2,-0.203613,-0.603516,0.75293,75.5625,125.188,4.25,-0.655171,0.333054,0.663801
4,-3,-1,4,-4,-67,-46,-25,-9,-0.203613,-0.603516,0.75293,75.5625,125.188,4.25,-0.655171,0.333054,0.663801
4,1,1,-5,-1,65,78,1,7,-0.203613,-0.603516,0.75293,75.5625,125.188,4.25,-0.655171,0.333054,0.663801
5,0,-2,-1,4,-4,-29,19,2,-0.203613,-0.603516,0.75293,75.5625,125.188,4.25,-0.655171,0.333054,0.663801
5,-3,-5,-7,-8,-12,-13,-3,-5,-0.203613,-0.603516,0.75293,75.5625,125.188,4.25,-0.655171,0.333054,0.663801
20,-2,-2,0,5,14,18,5,-1,-0.137207,-0.484375,0.834961,77.5,138.438,12.25,-0.636815,0.372906,0.636662
20,-3,-1,1,-2,-33,-63,-9,-2,-0.137207,-0.484375,0.834961,77.5,138.438,12.25,-0.636815,0.372906,0.636662
27,-3,-2,-1,-1,5,-2,-19,-5,-0.137207,-0.484375,0.834961,77.5,138.438,12.25,-0.636815,0.372906,0.636662
27,1,-1,-1,1,14,14,6,2,-0.137207,-0.484375,0.834961,77.5,138.438,12.25,-0.636815,0.372906,0.636662
35,0,-1,-2,-6,1,1,7,0,-0.17041,-0.443848,0.896973,86.25,139.438,-26.6875,-0.620572,0.40539,0.597983
35,-2,0,-4,-6,-3,47,8,-2,-0.17041,-0.443848,0.896973,86.25,139.438,-26.6875,-0.620572,0.40539,0.597983
50,0,-1,-1,4,6,1,6,-1,-0.17041,-0.443848,0.896973,86.25,139.438,-26.6875,-0.620572,0.40539,0.597983
50,0,-1,-1,-4,-26,-52,8,-9,-0.17041,-0.443848,0.896973,86.25,139.438,-26.6875,-0.620572,0.40539,0.597983
65,2,0,1,3,5,74,3,5,-0.15918,-0.58252,0.873535,58.6875,135.188,-45.3125,-0.617778,0.432898,0.554001
65,-1,-3,-3,-9,-22,-75,-2,-2,-0.15918,-0.58252,0.873535,58.6875,135.188,-45.3125,-0.617778,0.432898,0.554001
69,2,6,10,18,-4,22,0,6,-0.15918,-0.58252,0.873535,58.6875,135.188,-45.3125,-0.617778,0.432898,0.554001
69,-4,-5,-12,-12,1,-17,-31,-11,-0.15918,-0.58252,0.873535,58.6875,135.188,-45.3125,-0.617778,0.432898,0.554001
87,-3,-6,-8,-9,32,39,17,0,-0.140625,-0.82959,0.890625,34.125,144.438,-48.875,-0.627708,0.461447,0.505533
87,3,2,2,7,-2,-41,20,4,-0.140625,-0.82959,0.890625,34.125,144.438,-48.875,-0.627708,0.461447,0.505533
135,0,-3,-1,-6,-6,-13,-4,-3,0.177734,-0.711426,0.91748,123.312,164.938,-52,-0.610488,0.523929,0.399076
135,-1,-3,-2,-4,-2,1,3,-2,0.177734,-0.711426,0.91748,123.312,164.938,-52,-0.610488,0.523929,0.399076
135,0,-4,-2,-4,-2,-17,-11,-3,0.177734,-0.711426,0.91748,123.312,164.938,-52,-0.610488,0.523929,0.399076
135,-2,-3,-1,-4,3,1,19,-1,0.177734,-0.711426,0.91748,123.312,164.938,-52,-0.610488,0.523929,0.399076
136,-1,-1,-2,2,6,-2,-3,2,0.177734,-0.711426,0.91748,123.312,164.938,-52,-0.610488,0.523929,0.399076
136,-1,4,9,5,6,-2,-2,0,0.177734,-0.711426,0.91748,123.312,164.938,-52,-0.610488,0.523929,0.399076
139,-2,-1,-11,-4,0,-1,4,2,0.177734,-0.711426,0.91748,123.312,164.938,-52,-0.610488,0.523929,0.399076
139,-3,-3,-4,-8,-6,-19,-8,-3,0.177734,-0.711426,0.91748,123.312,164.938,-52,-0.610488,0.523929,0.399076
141,-3,-2,-5,-6,-1,20,-4,-4,0.0234375,-0.637695,0.895996,138.5,172.188,-77.0625,-0.596083,0.554577,0.333466
141,-2,-3,-2,-2,-2,-23,9,-1,0.0234375,-0.637695,0.895996,138.5,172.188,-77.0625,-0.596083,0.554577,0.333466
146,-1,2,5,6,5,-22,8,0,0.0234375,-0.637695,0.895996,138.5,172.188,-77.0625,-0.596083,0.554577,0.333466
146,1,-1,2,8,19,47,9,3,0.0234375,-0.637695,0.895996,138.5,172.188,-77.0625,-0.596083,0.554577,0.333466
162,-2,0,3,2,-4,-3,8,-1,-0.213867,-0.580566,0.983887,111.188,164.688,-103.188,-0.596479,0.579192,0.260143
162,1,4,10,10,-11,9,0,-1,-0.213867,-0.580566,0.983887,111.188,164.688,-103.188,-0.596479,0.579192,0.260143
168,-2,-3,-15,4,10,-11,2,-5,-0.213867,-0.580566,0.983887,111.188,164.688,-103.188,-0.596479,0.579192,0.260143
168,-2,-7,-12,-30,-17,-12,-1,-3,-0.213867,-0.580566,0.983887,111.188,164.688,-103.188,-0.596479,0.579192,0.260143
178,-2,-2,1,-1,7,-3,-3,-1,-0.333496,-0.745605,0.861816,55.875,142.938,-121.562,-0.619869,0.593846,0.183619
178,-1,-2,-6,-8,-15,-2,-6,-3,-0.333496,-0.745605,0.861816,55.875,142.938,-121.562,-0.619869,0.593846,0.183619
191,0,1,12,6,-9,10,-4,-2,-0.333496,-0.745605,0.861816,55.875,142.938,-121.562,-0.619869,0.593846,0.183619
191,2,4,8,31,3,-8,-4,-1,-0.333496,-0.745605,0.861816,55.875,142.938,-121.562,-0.619869,0.593846,0.183619
200,0,-2,-8,-15,-9,-6,1,1,-0.306641,-0.858398,0.994141,37,131.125,-115.938,-0.648487,0.603726,0.110854
200,-2,-6,-10,-24,-3,-12,-1,1,-0.306641,-0.858398,0.994141,37,131.125,-115.938,-0.648487,0.603726,0.110854
214,-3,-3,-4,-10,-3,9,-2,-1,-0.306641,-0.858398,0.994141,37,131.125,-115.938,-0.648487,0.603726,0.110854
214,-2,-1,-1,-3,9,-2,-9,-3,-0.306641,-0.858398,0.994141,37,131.125,-115.938,-0.648487,0.603726,0.110854
221,0,1,10,10,7,-8,-4,-2,-0.246582,-0.811523,0.896484,116.125,132.625,-96.0625,-0.647151,0.617545,0.0436933
221,0,1,0,11,7,7,-2,-2,-0.246582,-0.811523,0.896484,116.125,132.625,-96.0625,-0.647151,0.617545,0.0436933
237,-2,-2,-4,-7,0,-18,-3,0,-0.246582,-0.811523,0.896484,116.125,132.625,-96.0625,-0.647151,0.617545,0.0436933
237,1,-1,0,-5,-10,34,1,0,-0.246582,-0.811523,0.896484,116.125,132.625,-96.0625,-0.647151,0.617545,0.0436933
245,1,-4,1,6,9,-26,3,1,-0.519043,-0.586426,0.79248,176.875,128.938,-98.9375,-0.624832,0.632218,-0.0235611
245,0,-2,0,-3,10,33,-1,-1,-0.519043,-0.586426,0.79248,176.875,128.938,-98.9375,-0.624832,0.632218,-0.0235611
267,-1,0,3,0,-3,8,-2,0,-0.519043,-0.586426,0.79248,176.875,128.938,-98.9375,-0.624832,0.632218,-0.0235611
267,-2,1,-1,4,-7,-24,-3,-4,-0.519043,-0.586426,0.79248,176.875,128.938,-98.9375,-0.624832,0.632218,-0.0235611
269,-2,1,-1,3,-1,9,1,0,-0.771484,-0.320312,0.747559,169.688,109.875,-118.938,-0.605739,0.640302,-0.0925229
269,-3,-3,-3,-4,-1,0,-4,-2,-0.771484,-0.320312,0.747559,169.688,109.875,-118.938,-0.605739,0.640302,-0.0925229
282,-1,1,2,2,16,1,2,-1,-0.771484,-0.320312,0.747559,169.688,109.875,-118.938,-0.605739,0.640302,-0.0925229
282,-1,-2,-2,-4,-8,-20,-3,0,-0.771484,-0.320312,0.747559,169.688,109.875,-118.938,-0.605739,0.640302,-0.0925229
284,-1,0,-2,-4,-5,2,-4,1,-0.699707,-0.40332,0.705566,104.875,95.6875,-125.062,-0.609589,0.643423,-0.160639
284,2,0,1,5,-3,5,-2,0,-0.699707,-0.40332,0.705566,104.875,95.6875,-125.062,-0.609589,0.643423,-0.160639
297,1,-2,1,-1,-6,15,-1,-1,-0.699707,-0.40332,0.705566,104.875,95.6875,-125.062,-0.609589,0.643423,-0.160639
297,0,0,1,-2,3,-5,-4,0,-0.699707,-0.40332,0.705566,104.875,95.6875,-125.062,-0.609589,0.643423,-0.160639
298,-1,-1,-1,2,-4,3,-2,-2,-0.565918,-0.407715,0.736816,80.75,97.0625,-108.062,-0.618717,0.64891,-0.223323
298,0,-2,-1,-2,-1,-39,0,-1,-0.565918,-0.407715,0.736816,80.75,97.0625,-108.062,-0.618717,0.64891,-0.223323
311,2,-2,2,-2,-8,-7,0,-1,-0.565918,-0.407715,0.736816,80.75,97.0625,-108.062,-0.618717,0.64891,-0.223323
311,-1,-2,-2,-2,5,-1,0,-2,-0.565918,-0.407715,0.736816,80.75,97.0625,-108.062,-0.618717,0.64891,-0.223323
321,-1,-1,-2,-1,0,7,3,0,-0.625,-0.389648,0.686523,107.75,104.25,-93.3125,-0.616929,0.659767,-0.282924
321,-2,0,-2,0,-7,-1,0,2,-0.625,-0.389648,0.686523,107.75,104.25,-93.3125,-0.616929,0.659767,-0.282924
334,-1,0,-1,-2,-3,21,0,1,-0.625,-0.389648,0.686523,107.75,104.25,-93.3125,-0.616929,0.659767,-0.282924
334,-2,1,-2,2,-3,-4,1,0,-0.625,-0.389648,0.686523,107.75,104.25,-93.3125,-0.616929,0.659767,-0.282924
340,1,1,-1,3,0,6,0,-4,-0.788574,-0.297363,0.695312,101.812,103.125,-95.875,-0.617959,0.670729,-0.343318
340,0,1,-1,1,5,-15,10,3,-0.788574,-0.297363,0.695312,101.812,103.125,-95.875,-0.617959,0.670729,-0.343318
358,0,0,0,1,7,-2,-1,0,-0.788574,-0.297363,0.695312,101.812,103.125,-95.875,-0.617959,0.670729,-0.343318
358,-1,-2,-1,-2,-6,-2,-6,-2,-0.788574,-0.297363,0.695312,101.812,103.125,-95.875,-0.617959,0.670729,-0.343318
359,-1,-1,-1,-5,-6,5,6,-1,-0.812012,-0.270996,0.688965,71.75,93.4375,-88.8125,-0.622468,0.683431,-0.396258
359,-2,-1,-3,-4,2,11,-5,-2,-0.812012,-0.270996,0.688965,71.75,93.4375,-88.8125,-0.622468,0.683431,-0.396258
371,-1,-4,-2,-2,-9,-4,-5,0,-0.812012,-0.270996,0.688965,71.75,93.4375,-88.8125,-0.622468,0.683431,-0.396258
371,0,-2,0,-2,-2,-2,-9,0,-0.812012,-0.270996,0.688965,71.75,93.4375,-88.8125,-0.622468,0.683431,-0.396258
380,-1,-1,-1,2,-4,-3,-7,0,-0.814453,-0.352051,0.646973,46.125,81.9375,-79.5625,-0.635431,0.694166,-0.445062
380,0,1,-1,1,26,1,-9,-2,-0.814453,-0.352051,0.646973,46.125,81.9375,-79.5625,-0.635431,0.694166,-0.445062
394,0,0,-3,-1,-11,-7,-3,-2,-0.814453,-0.352051,0.646973,46.125,81.9375,-79.5625,-0.635431,0.694166,-0.445062
394,-1,-1,-3,0,1,0,2,-1,-0.814453,-0.352051,0.646973,46.125,81.9375,-79.5625,-0.635431,0.694166,-0.445062
401,-1,-1,-3,-2,-7,-6,-2,-1,-0.840332,-0.437012,0.625488,63.4375,67.8125,-72.6875,-0.641293,0.701682,-0.489468
401,-1,-1,0,1,-16,-2,6,0,-0.840332,-0.437012,0.625488,63.4375,67.8125,-72.6875,-0.641293,0.701682,-0.489468
418,-3,0,0,-2,11,5,6,0,-0.840332,-0.437012,0.625488,63.4375,67.8125,-72.6875,-0.641293,0.701682,-0.489468
418,1,-1,1,-3,5,2,1,-2,-0.840332,-0.437012,0.625488,63.4375,67.8125,-72.6875,-0.641293,0.701682,-0.489468
418,0,-1,0,-3,-5,-4,-1,0,-0.873535,-0.422363,0.562988,92.3125,50.125,-55.8125,-0.631314,0.70928,-0.523733
418,1,-2,0,-2,-1,9,-3,1,-0.873535,-0.422363,0.562988,92.3125,50.125,-55.8125,-0.631314,0.70928,-0.523733
440,-1,-3,0,0,-4,-4,0,-1,-0.873535,-0.422363,0.562988,92.3125,50.125,-55.8125,-0.631314,0.70928,-0.523733
440,0,0,2,3,-8,0,1,0,-0.873535,-0.422363,0.562988,92.3125,50.125,-55.8125,-0.631314,0.70928,-0.523733
442,-1,-2,-4,-3,6,-7,-1,-3,-0.882324,-0.307129,0.537109,97.4375,31.0625,-38.5625,-0.610378,0.716685,-0.545314
442,-1,-1,-2,1,-3,-22,-5,-3,-0.882324,-0.307129,0.537109,97.4375,31.0625,-38.5625,-0.610378,0.716685,-0.545314
455,-1,0,-4,-2,-5,-20,1,1,-0.882324,-0.307129,0.537109,97.4375,31.0625,-38.5625,-0.610378,0.716685,-0.545314
455,-1,-3,-1,-3,-6,-24,0,-4,-0.882324,-0.307129,0.537109,97.4375,31.0625,-38.5625,-0.610378,0.716685,-0.545314
461,0,-1,0,2,13,19,0,-1,-0.82959,-0.300293,0.527344,80.3125,8,-30.3125,-0.589907,0.718603,-0.558055
461,-2,-2,-3,-2,-4,2,-8,-3,-0.82959,-0.300293,0.527344,80.3125,8,-30.3125,-0.589907,0.718603,-0.558055
485,-1,0,0,0,-2,14,-2,-1,-0.82959,-0.300293,0.527344,80.3125,8,-30.3125,-0.589907,0.718603,-0.558055
485,-2,0,-2,-3,-6,27,2,-3,-0.82959,-0.300293,0.527344,80.3125,8,-30.3125,-0.589907,0.718603,-0.558055
487,0,-1,-2,0,0,-9,2,1,-0.800293,-0.34082,0.581055,67.75,-9.375,-22.1875,-0.569426,0.715459,-0.563735
487,-2,0,-1,1,-2,5,-4,-3,-0.800293,-0.34082,0.581055,67.75,-9.375,-22.1875,-0.569426,0.715459,-0.563735
499,2,-1,-1,0,-1,8,-5,-3,-0.800293,-0.34082,0.581055,67.75,-9.375,-22.1875,-0.569426,0.715459,-0.563735
499,-1,-2,0,-2,-4,-18,-5,-1,-0.800293,-0.34082,0.581055,67.75,-9.375,-22.1875,-0.569426,0.715459,-0.563735
501,-3,-2,0,-4,-7,23,-7,-3,-0.758301,-0.37207,0.609375,67.25,-23.875,-8.875,-0.544371,0.709566,-0.561373
501,1,-2,0,-1,-1,-7,0,1,-0.758301,-0.37207,0.609375,67.25,-23.875,-8.875,-0.544371,0.709566,-0.561373
514,-2,0,-1,-2,-14,-23,-6,-3,-0.758301,-0.37207,0.609375,67.25,-23.875,-8.875,-0.544371,0.709566,-0.561373
514,-2,-2,0,3,7,2,4,1,-0.758301,-0.37207,0.609375,67.25,-23.875,-8.875,-0.544371,0.709566,-0.561373
523,-1,0,-3,1,8,-11,-2,0,-0.70166,-0.308105,0.673828,66.9375,-31.5625,0.875,-0.514142,0.701735,-0.552492
523,-1,-2,-3,-1,-8,-3,-1,-1,-0.70166,-0.308105,0.673828,66.9375,-31.5625,0.875,-0.514142,0.701735,-0.552492
545,-1,-1,-1,-2,-1,-12,2,-2,-0.70166,-0.308105,0.673828,66.9375,-31.5625,0.875,-0.514142,0.701735,-0.552492
545,1,-1,0,-2,-5,-10,-7,-3,-0.70166,-0.308105,0.673828,66.9375,-31.5625,0.875,-0.514142,0.701735,-0.552492
546,1,2,2,-1,-7,-22,-6,-1,-0.669434,-0.22168,0.697266,62,-35.1875,7.8125,-0.481463,0.693547,-0.539055
546,-1,-3,-6,-2,6,23,12,-1,-0.669434,-0.22168,0.697266,62,-35.1875,7.8125,-0.481463,0.693547,-0.539055
560,-1,-1,-1,0,2,-9,0,0,-0.669434,-0.22168,0.697266,62,-35.1875,7.8125,-0.481463,0.693547,-0.539055
560,-2,-1,0,3,0,12,-2,-1,-0.669434,-0.22168,0.697266,62,-35.1875,7.8125,-0.481463,0.693547,-0.539055
562,-3,-1,-2,-1,-4,7,0,-2,-0.651855,-0.189453,0.743164,44.375,-34.5625,11.1875,-0.453597,0.685297,-0.524396
562,0,1,0,1,15,-3,-3,-1,-0.651855,-0.189453,0.743164,44.375,-34.5625,11.1875,-0.453597,0.685297,-0.524396
574,0,0,-2,0,0,2,0,0,-0.651855,-0.189453,0.743164,44.375,-34.5625,11.1875,-0.453597,0.685297,-0.524396
574,0,0,-2,-2,0,4,5,1,-0.651855,-0.189453,0.743164,44.375,-34.5625,11.1875,-0.453597,0.685297,-0.524396
582,1,1,0,3,-3,10,-2,1,-0.666504,-0.214844,0.751465,28.75,-31.9375,11.9375,-0.432919,0.677976,-0.511026
582,0,0,0,-5,-2,8,-1,-2,-0.666504,-0.214844,0.751465,28.75,-31.9375,11.9375,-0.432919,0.677976,-0.511026
604,-1,-3,-2,-1,4,21,8,0,-0.666504,-0.214844,0.751465,28.75,-31.9375,11.9375,-0.432919,0.677976,-0.511026
604,-1,0,-1,1,4,7,-3,0,-0.666504,-0.214844,0.751465,28.75,-31.9375,11.9375,-0.432919,0.677976,-0.511026
606,-2,-1,-3,-2,-4,5,-3,-1,-0.632324,-0.273926,0.758301,29.9375,-30.3125,12.5,-0.414095,0.669956,-0.499254
606,-2,-2,-2,0,-5,7,-2,-1,-0.632324,-0.273926,0.758301,29.9375,-30.3125,12.5,-0.414095,0.669956,-0.499254
620,0,-2,1,-1,-5,-12,-8,-3,-0.632324,-0.273926,0.758301,29.9375,-30.3125,12.5,-0.414095,0.669956,-0.499254
620,0,-1,-2,-2,-3,-10,-4,-1,-0.632324,-0.273926,0.758301,29.9375,-30.3125,12.5,-0.414095,0.669956,-0.499254
621,1,-2,-2,0,3,-6,2,0,-0.631836,-0.280762,0.75293,39.5625,-29.375,11.625,-0.393092,0.662224,-0.4887
621,-1,0,-1,-2,-6,1,-5,-2,-0.631836,-0.280762,0.75293,39.5625,-29.375,11.625,-0.393092,0.662224,-0.4887
633,-1,-3,0,-1,-1,16,9,1,-0.631836,-0.280762,0.75293,39.5625,-29.375,11.625,-0.393092,0.662224,-0.4887
633,-2,-1,-2,-1,4,-1,-1,-3,-0.631836,-0.280762,0.75293,39.5625,-29.375,11.625,-0.393092,0.662224,-0.4887
642,0,-1,-3,-3,-5,-33,1,-2,-0.647949,-0.255859,0.750488,50.3125,-29.5625,13.8125,-0.368202,0.655223,-0.477657
642,-1,1,1,5,11,23,7,2,-0.647949,-0.255859,0.750488,50.3125,-29.5625,13.8125,-0.368202,0.655223,-0.477657
657,-2,0,-2,1,-8,-9,-6,-3,-0.647949,-0.255859,0.750488,50.3125,-29.5625,13.8125,-0.368202,0.655223,-0.477657
657,0,0,-1,1,-11,-8,1,-1,-0.647949,-0.255859,0.750488,50.3125,-29.5625,13.8125,-0.368202,0.655223,-0.477657
659,-3,-3,-3,-4,7,15,0,-2,-0.609863,-0.209961,0.746094,44.6875,-28.8125,17.375,-0.343904,0.648357,-0.465037
659,0,0,1,1,-2,-1,-1,0,-0.609863,-0.209961,0.746094,44.6875,-28.8125,17.375,-0.343904,0.648357,-0.465037
680,-3,-2,-1,-1,-2,-4,-3,-3,-0.609863,-0.209961,0.746094,44.6875,-28.8125,17.375,-0.343904,0.648357,-0.465037
680,0,0,-1,-1,0,14,8,1,-0.609863,-0.209961,0.746094,44.6875,-28.8125,17.375,-0.343904,0.648357,-0.465037
681,-2,1,-2,0,-6,-7,2,-1,-0.608398,-0.189453,0.726074,22.9375,-23.8125,18.3125,-0.327513,0.643545,-0.453039
681,-2,-2,-2,-3,-8,-17,-6,0,-0.608398,-0.189453,0.726074,22.9375,-23.8125,18.3125,-0.327513,0.643545,-0.453039
694,-1,0,0,-2,-3,2,-6,-2,-0.608398,-0.189453,0.726074,22.9375,-23.8125,18.3125,-0.327513,0.643545,-0.453039
694,0,0,-1,-1,2,-4,-4,-3,-0.608398,-0.189453,0.726074,22.9375,-23.8125,18.3125,-0.327513,0.643545,-0.453039
703,-2,-1,2,2,-2,-24,-3,-2,-0.640625,-0.213379,0.6875,2.875,-21.625,17.8125,-0.319846,0.640437,-0.442376
703,-1,-1,-1,-5,-5,-12,2,1,-0.640625,-0.213379,0.6875,2.875,-21.625,17.8125,-0.319846,0.640437,-0.442376
717,0,-1,1,0,7,-2,6,1,-0.640625,-0.213379,0.6875,2.875,-21.625,17.8125,-0.319846,0.640437,-0.442376
717,-3,-3,-2,-2,-2,-11,-5,-2,-0.640625,-0.213379,0.6875,2.875,-21.625,17.8125,-0.319846,0.640437,-0.442376
718,0,-1,-2,-5,-4,-5,1,-2,-0.652344,-0.267578,0.669922,-11.8125,-20.4375,17.125,-0.319444,0.637917,-0.433337
718,-1,-1,-1,-1,0,11,-1,-1,-0.652344,-0.267578,0.669922,-11.8125,-20.4375,17.125,-0.319444,0.637917,-0.433337
739,1,0,-2,-2,-9,-8,-4,-1,-0.652344,-0.267578,0.669922,-11.8125,-20.4375,17.125,-0.319444,0.637917,-0.433337
739,-1,-1,-1,-1,2,-3,-1,-1,-0.652344,-0.267578,0.669922,-11.8125,-20.4375,17.125,-0.319444,0.637917,-0.433337
742,-2,-1,1,3,6,21,5,2,-0.644531,-0.266602,0.666504,-18.8125,-19.375,19.25,-0.321029,0.635868,-0.42356
742,0,0,-1,-2,-8,-5,1,-2,-0.644531,-0.266602,0.666504,-18.8125,-19.375,19.25,-0.321029,0.635868,-0.42356
754,-2,-1,1,-1,-5,1,-2,-2,-0.644531,-0.266602,0.666504,-18.8125,-19.375,19.25,-0.321029,0.635868,-0.42356
754,-1,-1,0,1,-4,-15,-4,-2,-0.644531,-0.266602,0.666504,-18.8125,-19.375,19.25,-0.321029,0.635868,-0.42356
763,2,-2,1,1,2,13,-2,0,-0.638184,-0.23877,0.62793,-28.5625,-15.75,22.375,-0.325035,0.635987,-0.412658
763,0,-2,-1,-1,-2,-30,1,0,-0.638184,-0.23877,0.62793,-28.5625,-15.75,22.375,-0.325035,0.635987,-0.412658
777,-2,-1,-1,0,4,2,-1,1,-0.638184,-0.23877,0.62793,-28.5625,-15.75,22.375,-0.325035,0.635987,-0.412658
777,-1,-1,0,1,-1,-11,-2,-1,-0.638184,-0.23877,0.62793,-28.5625,-15.75,22.375,-0.325035,0.635987,-0.412658
779,-1,-1,-1,-4,-14,-6,-5,-1,-0.647949,-0.247559,0.58252,-46.75,-13.5625,23.625,-0.335772,0.637683,-0.401786
779,-1,-2,-2,-2,-1,3,-7,-4,-0.647949,-0.247559,0.58252,-46.75,-13.5625,23.625,-0.335772,0.637683,-0.401786
800,2,2,1,0,-2,4,4,3,-0.647949,-0.247559,0.58252,-46.75,-13.5625,23.625,-0.335772,0.637683,-0.401786
800,-2,-1,-2,-2,1,13,2,-1,-0.647949,-0.247559,0.58252,-46.75,-13.5625,23.625,-0.335772,0.637683,-0.401786
802,-1,0,0,-3,-6,-4,0,0,-0.632812,-0.324219,0.597656,-60.125,-10.9375,21.4375,-0.353467,0.639303,-0.393173
802,-1,-3,0,3,-5,3,-4,-4,-0.632812,-0.324219,0.597656,-60.125,-10.9375,21.4375,-0.353467,0.639303,-0.393173
813,-1,-1,-1,-1,0,-8,-6,-4,-0.632812,-0.324219,0.597656,-60.125,-10.9375,21.4375,-0.353467,0.639303,-0.393173
813,0,0,-1,-2,3,28,-2,1,-0.632812,-0.324219,0.597656,-60.125,-10.9375,21.4375,-0.353467,0.639303,-0.393173
823,-1,-1,-3,0,1,2,-4,-2,-0.623535,-0.333008,0.615234,-53.25,-7.0625,24,-0.368305,0.641969,-0.383943
823,-1,0,-2,-4,-1,34,-3,-1,-0.623535,-0.333008,0.615234,-53.25,-7.0625,24,-0.368305,0.641969,-0.383943
837,-2,-1,-1,0,10,71,1,2,-0.623535,-0.333008,0.615234,-53.25,-7.0625,24,-0.368305,0.641969,-0.383943
837,0,1,0,0,-1,-26,0,1,-0.623535,-0.333008,0.615234,-53.25,-7.0625,24,-0.368305,0.641969,-0.383943
838,1,0,1,-1,-3,-28,-2,0,-0.609863,-0.286621,0.61084,-55.1875,0.8125,31.8125,-0.381142,0.64821,-0.371888
838,0,0,3,9,10,-6,-1,0,-0.609863,-0.286621,0.61084,-55.1875,0.8125,31.8125,-0.381142,0.64821,-0.371888
860,0,0,-5,-5,1,-3,-11,-4,-0.609863,-0.286621,0.61084,-55.1875,0.8125,31.8125,-0.381142,0.64821,-0.371888
860,2,-1,1,0,10,41,10,4,-0.609863,-0.286621,0.61084,-55.1875,0.8125,31.8125,-0.381142,0.64821,-0.371888
861,1,-2,-3,1,3,-1,-2,-1,-0.59082,-0.240723,0.619141,-74.9375,9.3125,36.0625,-0.398687,0.657553,-0.358488
861,-3,-2,-2,-3,-14,-25,-1,-4,-0.59082,-0.240723,0.619141,-74.9375,9.3125,36.0625,-0.398687,0.657553,-0.358488
873,-3,0,-1,-1,5,18,-3,-1,-0.59082,-0.240723,0.619141,-74.9375,9.3125,36.0625,-0.398687,0.657553,-0.358488
873,1,0,2,-2,-5,-37,1,-1,-0.59082,-0.240723,0.619141,-74.9375,9.3125,36.0625,-0.398687,0.657553,-0.358488
882,-3,-2,1,0,-1,-7,0,-3,-0.599121,-0.218262,0.595215,-107.25,16.5,35.75,-0.428612,0.668319,-0.346588
882,-1,1,-1,1,1,27,0,-1,-0.599121,-0.218262,0.595215,-107.25,16.5,35.75,-0.428612,0.668319,-0.346588
897,0,-1,-1,0,-5,6,-5,-4,-0.599121,-0.218262,0.595215,-107.25,16.5,35.75,-0.428612,0.668319,-0.346588
897,0,0,-3,-3,11,15,1,1,-0.599121,-0.218262,0.595215,-107.25,16.5,35.75,-0.428612,0.668319,-0.346588
899,0,-2,-3,-1,21,47,16,0,-0.635742,-0.239258,0.557617,-149.875,19.3125,35.9375,-0.474028,0.680608,-0.335824
899,-1,-3,-1,-3,-7,-29,-10,-1,-0.635742,-0.239258,0.557617,-149.875,19.3125,35.9375,-0.474028,0.680608,-0.335824
919,2,0,-1,2,2,15,2,4,-0.635742,-0.239258,0.557617,-149.875,19.3125,35.9375,-0.474028,0.680608,-0.335824
919,-2,-3,1,0,2,2,-1,-1,-0.635742,-0.239258,0.557617,-149.875,19.3125,35.9375,-0.474028,0.680608,-0.335824
926,0,1,0,1,-5,-11,-8,-2,-0.700195,-0.3125,0.507812,-198.375,15.625,31.875,-0.537377,0.691682,-0.326585
926,0,-1,-6,-5,-1,3,-2,1,-0.700195,-0.3125,0.507812,-198.375,15.625,31.875,-0.537377,0.691682,-0.326585
933,-2,0,-3,-1,-2,-42,0,-3,-0.700195,-0.3125,0.507812,-198.375,15.625,31.875,-0.537377,0.691682,-0.326585
933,-2,-2,-4,-1,-10,9,-4,-2,-0.700195,-0.3125,0.507812,-198.375,15.625,31.875,-0.537377,0.691682,-0.326585
942,-4,0,-1,0,-3,-13,-1,-1,-0.70459,-0.376465,0.458984,-236.312,6.9375,30.25,-0.613986,0.700472,-0.317149
942,-3,-2,-2,-3,2,13,5,-2,-0.70459,-0.376465,0.458984,-236.312,6.9375,30.25,-0.613986,0.700472,-0.317149
956,1,-2,-2,-2,-9,-32,-1,1,-0.70459,-0.376465,0.458984,-236.312,6.9375,30.25,-0.613986,0.700472,-0.317149
956,-1,-2,-1,3,13,-17,-1,-1,-0.70459,-0.376465,0.458984,-236.312,6.9375,30.25,-0.613986,0.700472,-0.317149
963,2,-1,-2,-4,-10,20,-5,-1,-0.689453,-0.524414,0.399414,-251.5,-1.25,30,-0.695409,0.707032,-0.306535
963,0,1,0,0,10,1,6,1,-0.689453,-0.524414,0.399414,-251.5,-1.25,30,-0.695409,0.707032,-0.306535
980,-1,-1,1,-4,-6,-10,-1,-1,-0.689453,-0.524414,0.399414,-251.5,-1.25,30,-0.695409,0.707032,-0.306535
980,-3,-1,-4,-4,-18,-7,-6,-2,-0.689453,-0.524414,0.399414,-251.5,-1.25,30,-0.695409,0.707032,-0.306535
981,-1,-2,-3,0,4,-10,-3,0,-0.674805,-0.707031,0.427734,-223.625,-8.9375,23.9375,-0.767974,0.710274,-0.296674
981,-1,-1,-3,-1,0,-4,-2,2,-0.674805,-0.707031,0.427734,-223.625,-8.9375,23.9375,-0.767974,0.710274,-0.296674
993,0,-3,-1,-3,-5,-2,2,0,-0.674805,-0.707031,0.427734,-223.625,-8.9375,23.9375,-0.767974,0.710274,-0.296674
993,0,-1,-1,-1,-4,-13,-7,-3,-0.674805,-0.707031,0.427734,-223.625,-8.9375,23.9375,-0.767974,0.710274,-0.296674
1002,-3,0,-1,-1,-3,-3,-1,-1,-0.644043,-0.665039,0.460938,-160.062,-11.1875,24.5,-0.817268,0.713333,-0.28576
1002,0,0,1,3,1,5,-1,1,-0.644043,-0.665039,0.460938,-160.062,-11.1875,24.5,-0.817268,0.713333,-0.28576
1017,-2,-2,-1,2,1,-1,-2,-2,-0.644043,-0.665039,0.460938,-160.062,-11.1875,24.5,-0.817268,0.713333,-0.28576
1017,0,-1,0,-2,-8,-10,-2,-4,-0.644043,-0.665039,0.460938,-160.062,-11.1875,24.5,-0.817268,0.713333,-0.28576
1023,0,-2,-1,-4,0,8,0,-2,-0.65918,-0.52832,0.375977,-132.5,-12.5,30.25,-0.85501,0.718785,-0.272428
1023,-2,-3,-1,-1,-2,-8,-1,-4,-0.65918,-0.52832,0.375977,-132.5,-12.5,30.25,-0.85501,0.718785,-0.272428
1040,-2,-1,0,2,3,-13,-3,-2,-0.65918,-0.52832,0.375977,-132.5,-12.5,30.25,-0.85501,0.718785,-0.272428
1040,0,0,-1,0,2,9,3,0,-0.65918,-0.52832,0.375977,-132.5,-12.5,30.25,-0.85501,0.718785,-0.272428
1041,-2,-1,-1,-1,0,1,-1,0,-0.693848,-0.500977,0.347656,-134.75,-16.4375,30.875,-0.892557,0.724122,-0.257583
1041,0,0,0,-1,-5,-12,-1,0,-0.693848,-0.500977,0.347656,-134.75,-16.4375,30.875,-0.892557,0.724122,-0.257583
1054,-1,0,0,0,0,-8,1,-2,-0.693848,-0.500977,0.347656,-134.75,-16.4375,30.875,-0.892557,0.724122,-0.257583
1054,-2,-1,-1,-2,0,-3,-2,-1,-0.693848,-0.500977,0.347656,-134.75,-16.4375,30.875,-0.892557,0.724122,-0.257583
1063,2,0,0,-1,-2,-10,-5,0,-0.67041,-0.588867,0.322754,-133.562,-19.75,29.3125,-0.92935,0.728332,-0.242326
1063,0,-2,-1,-3,-6,-13,-6,1,-0.67041,-0.588867,0.322754,-133.562,-19.75,29.3125,-0.92935,0.728332,-0.242326
1078,-1,-2,2,0,-3,-1,-7,0,-0.67041,-0.588867,0.322754,-133.562,-19.75,29.3125,-0.92935,0.728332,-0.242326
1078,-2,-2,-2,-1,-6,-5,-2,-2,-0.67041,-0.588867,0.322754,-133.562,-19.75,29.3125,-0.92935,0.728332,-0.242326
1079,-2,-2,-2,1,-1,-7,-1,-2,-0.648438,-0.717285,0.307617,-105.438,-19.3125,25.5,-0.958007,0.731406,-0.228913
1079,3,0,-1,-1,0,14,3,0,-0.648438,-0.717285,0.307617,-105.438,-19.3125,25.5,-0.958007,0.731406,-0.228913
1100,1,-1,-1,1,-2,8,6,0,-0.648438,-0.717285,0.307617,-105.438,-19.3125,25.5,-0.958007,0.731406,-0.228913
1100,1,-1,-1,-2,6,-17,2,2,-0.648438,-0.717285,0.307617,-105.438,-19.3125,25.5,-0.958007,0.731406,-0.228913
1108,-2,-1,1,0,-2,-4,4,0,-0.633301,-0.766113,0.337891,-44.375,-16.6875,25.6875,-0.969519,0.733391,-0.218899
1108,2,1,0,0,0,0,2,-2,-0.633301,-0.766113,0.337891,-44.375,-16.6875,25.6875,-0.969519,0.733391,-0.218899
1122,-2,-2,-1,0,1,-1,2,0,-0.633301,-0.766113,0.337891,-44.375,-16.6875,25.6875,-0.969519,0.733391,-0.218899
1122,-2,-1,-2,-1,-4,-4,2,-1,-0.633301,-0.766113,0.337891,-44.375,-16.6875,25.6875,-0.969519,0.733391,-0.218899
1124,-1,-2,0,-2,2,2,-1,-1,-0.630859,-0.62207,0.333496,12.25,-9.8125,29.875,-0.960101,0.739958,-0.208989
1124,-3,-2,0,-1,0,-7,-1,-1,-0.630859,-0.62207,0.333496,12.25,-9.8125,29.875,-0.960101,0.739958,-0.208989
1145,0,0,-1,-2,-4,6,-2,-2,-0.630859,-0.62207,0.333496,12.25,-9.8125,29.875,-0.960101,0.739958,-0.208989
1145,-2,-2,-2,-1,-1,7,-3,0,-0.630859,-0.62207,0.333496,12.25,-9.8125,29.875,-0.960101,0.739958,-0.208989
1146,1,-2,-2,-1,-1,0,-4,1,-0.677246,-0.493652,0.253906,38.6875,-4.0625,35.875,-0.941582,0.752179,-0.199496
1146,-2,-2,-1,-1,0,3,1,1,-0.677246,-0.493652,0.253906,38.6875,-4.0625,35.875,-0.941582,0.752179,-0.199496
1159,-2,1,-1,0,3,-4,0,-2,-0.677246,-0.493652,0.253906,38.6875,-4.0625,35.875,-0.941582,0.752179,-0.199496
1159,-1,-1,1,-2,6,5,-3,1,-0.677246,-0.493652,0.253906,38.6875,-4.0625,35.875,-0.941582,0.752179,-0.199496
1167,-3,0,-1,-2,-6,0,1,-1,-0.693359,-0.47998,0.254395,32.125,-1.3125,37.75,-0.925482,0.765663,-0.190136
1167,0,0,-1,1,-8,-5,2,-1,-0.693359,-0.47998,0.254395,32.125,-1.3125,37.75,-0.925482,0.765663,-0.190136
1182,-2,-2,-2,-2,-1,-5,-5,-1,-0.693359,-0.47998,0.254395,32.125,-1.3125,37.75,-0.925482,0.765663,-0.190136
1182,-2,-1,0,0,2,1,-4,-3,-0.693359,-0.47998,0.254395,32.125,-1.3125,37.75,-0.925482,0.765663,-0.190136
1184,-2,-1,-1,-1,-6,2,-1,-1,-0.633301,-0.488281,0.312012,13.125,7.4375,40.1875,-0.916443,0.779475,-0.182315
1184,-1,-1,-2,-3,-5,-7,-2,-2,-0.633301,-0.488281,0.312012,13.125,7.4375,40.1875,-0.916443,0.779475,-0.182315
1205,-1,-1,-2,-3,5,9,1,-1,-0.633301,-0.488281,0.312012,13.125,7.4375,40.1875,-0.916443,0.779475,-0.182315
1205,1,0,-2,-1,-8,2,1,1,-0.633301,-0.488281,0.312012,13.125,7.4375,40.1875,-0.916443,0.779475,-0.182315
1206,0,-1,-1,-3,-2,-1,0,0,-0.683105,-0.529785,0.284668,1,18.5625,36.8125,-0.916638,0.794906,-0.180897
1206,-1,-3,0,-2,-3,3,-1,-3,-0.683105,-0.529785,0.284668,1,18.5625,36.8125,-0.916638,0.794906,-0.180897
1218,-2,-3,0,3,5,-2,3,1,-0.683105,-0.529785,0.284668,1,18.5625,36.8125,-0.916638,0.794906,-0.180897
1218,-2,-2,2,0,-1,-4,-7,1,-0.683105,-0.529785,0.284668,1,18.5625,36.8125,-0.916638,0.794906,-0.180897
1228,-1,-1,-1,1,-4,1,-4,1,-0.749023,-0.586426,0.279785,-1.5625,24.125,36.4375,-0.920789,0.811489,-0.182765
1228,2,-1,-1,-2,-1,-8,-2,-2,-0.749023,-0.586426,0.279785,-1.5625,24.125,36.4375,-0.920789,0.811489,-0.182765
1242,-1,0,-3,-1,-3,-9,-1,1,-0.749023,-0.586426,0.279785,-1.5625,24.125,36.4375,-0.920789,0.811489,-0.182765
1242,-1,1,-1,-1,0,-6,-1,-2,-0.749023,-0.586426,0.279785,-1.5625,24.125,36.4375,-0.920789,0.811489,-0.182765
1244,-3,-1,-3,-2,5,-3,2,-2,-0.736328,-0.611328,0.313477,-2.6875,26.4375,38.625,-0.925066,0.827851,-0.184763
1244,-2,0,-2,1,4,-7,0,-1,-0.736328,-0.611328,0.313477,-2.6875,26.4375,38.625,-0.925066,0.827851,-0.184763
1265,1,-2,0,-4,-4,-4,-1,-1,-0.736328,-0.611328,0.313477,-2.6875,26.4375,38.625,-0.925066,0.827851,-0.184763
1265,-1,0,1,-1,-8,1,0,-2,-0.736328,-0.611328,0.313477,-2.6875,26.4375,38.625,-0.925066,0.827851,-0.184763
1266,-1,0,1,1,2,4,-2,0,-0.77832,-0.62207,0.358887,3.25,28.1875,36.75,-0.927421,0.84362,-0.187454
1266,-1,-1,1,-3,0,6,-3,-1,-0.77832,-0.62207,0.358887,3.25,28.1875,36.75,-0.927421,0.84362,-0.187454
1280,-1,0,-1,1,1,3,-1,-2,-0.77832,-0.62207,0.358887,3.25,28.1875,36.75,-0.927421,0.84362,-0.187454
1280,-1,-1,-1,1,0,7,-1,-1,-0.77832,-0.62207,0.358887,3.25,28.1875,36.75,-0.927421,0.84362,-0.187454
1288,1,-2,-2,-1,-2,13,-1,-2,-0.79541,-0.604004,0.369141,11.0625,28.8125,37.5625,-0.926206,0.85986,-0.189574
1288,-1,-1,-2,-1,-2,9,-1,0,-0.79541,-0.604004,0.369141,11.0625,28.8125,37.5625,-0.926206,0.85986,-0.189574
1303,2,-1,0,-1,-2,4,1,-1,-0.79541,-0.604004,0.369141,11.0625,28.8125,37.5625,-0.926206,0.85986,-0.189574
1303,0,-2,0,-1,3,-3,0,-1,-0.79541,-0.604004,0.369141,11.0625,28.8125,37.5625,-0.926206,0.85986,-0.189574
1304,-1,-1,-1,-2,-4,-6,-1,-2,-0.808594,-0.594238,0.383301,14.625,28.25,35.0625,-0.92359,0.874933,-0.191867
1304,-2,0,-3,0,-4,-4,-2,0,-0.808594,-0.594238,0.383301,14.625,28.25,35.0625,-0.92359,0.874933,-0.191867
1324,-2,-2,-1,-1,-5,-4,-3,0,-0.808594,-0.594238,0.383301,14.625,28.25,35.0625,-0.92359,0.874933,-0.191867
1324,-1,-3,-3,-3,-4,-3,-2,-1,-0.808594,-0.594238,0.383301,14.625,28.25,35.0625,-0.92359,0.874933,-0.191867
1327,-1,0,0,-1,-2,-4,0,0,-0.825684,-0.565918,0.40918,10.0625,26.875,33.75,-0.92106,0.889425,-0.192842
1327,-1,-1,2,-1,0,-1,-3,0,-0.825684,-0.565918,0.40918,10.0625,26.875,33.75,-0.92106,0.889425,-0.192842
1339,-1,-1,0,-2,-1,-4,0,0,-0.825684,-0.565918,0.40918,10.0625,26.875,33.75,-0.92106,0.889425,-0.192842
1339,0,0,1,0,2,1,0,1,-0.825684,-0.565918,0.40918,10.0625,26.875,33.75,-0.92106,0.889425,-0.192842
1348,-1,-3,-2,-1,0,-8,-2,-2,-0.813965,-0.554688,0.439941,10.375,25.75,30.9375,-0.917654,0.902184,-0.193402
1348,0,-1,0,0,-5,-3,-2,-4,-0.813965,-0.554688,0.439941,10.375,25.75,30.9375,-0.917654,0.902184,-0.193402
1362,-1,-1,-2,-1,13,0,-1,-1,-0.813965,-0.554688,0.439941,10.375,25.75,30.9375,-0.917654,0.902184,-0.193402
1362,0,-2,-1,0,2,2,1,0,-0.813965,-0.554688,0.439941,10.375,25.75,30.9375,-0.917654,0.902184,-0.193402
1364,1,-1,-1,-1,0,-4,2,-1,-0.813965,-0.564453,0.453125,13.875,26.125,28.0625,-0.914066,0.913692,-0.195149
1364,-1,-1,-2,0,7,-4,0,-1,-0.813965,-0.564453,0.453125,13.875,26.125,28.0625,-0.914066,0.913692,-0.195149
1385,-1,-2,-1,-1,-3,0,0,-1,-0.813965,-0.564453,0.453125,13.875,26.125,28.0625,-0.914066,0.913692,-0.195149
1385,-2,1,-2,-3,-9,-2,-2,-2,-0.813965,-0.564453,0.453125,13.875,26.125,28.0625,-0.914066,0.913692,-0.195149
1387,-2,1,1,1,6,1,-3,-1,-0.694824,-0.558105,0.506836,20.3125,29,26.8125,-0.907568,0.92293,-0.197046
1387,-2,-1,-2,-4,-2,1,1,-1,-0.694824,-0.558105,0.506836,20.3125,29,26.8125,-0.907568,0.92293,-0.197046
1399,-3,-2,0,1,-2,-2,-1,0,-0.694824,-0.558105,0.506836,20.3125,29,26.8125,-0.907568,0.92293,-0.197046
1399,-1,-1,-2,-2,1,6,1,0,-0.694824,-0.558105,0.506836,20.3125,29,26.8125,-0.907568,0.92293,-0.197046
1408,1,0,-1,1,6,3,0,-1,-0.5625,-0.530762,0.667969,27.0625,23.375,24.625,-0.891911,0.926653,-0.192683
1408,-3,0,-1,1,5,1,-1,-1,-0.5625,-0.530762,0.667969,27.0625,23.375,24.625,-0.891911,0.926653,-0.192683
1423,0,1,-2,-1,-1,-2,0,1,-0.5625,-0.530762,0.667969,27.0625,23.375,24.625,-0.891911,0.926653,-0.192683
1423,0,1,1,1,-2,0,2,2,-0.5625,-0.530762,0.667969,27.0625,23.375,24.625,-0.891911,0.926653,-0.192683
1424,-3,-1,-1,-2,1,2,1,1,-1.18262,-0.588867,0.202637,42.4375,28.5625,15,-0.891858,0.942584,-0.207266
1424,-2,1,1,0,9,2,3,2,-1.18262,-0.588867,0.202637,42.4375,28.5625,15,-0.891858,0.942584,-0.207266
1445,1,0,0,-1,4,-1,-2,-1,-1.18262,-0.588867,0.202637,42.4375,28.5625,15,-0.891858,0.942584,-0.207266
1445,2,2,1,-1,-5,-4,-1,-1,-1.18262,-0.588867,0.202637,42.4375,28.5625,15,-0.891858,0.942584,-0.207266
1446,2,1,0,-1,-8,-1,1,0,-1.03516,-0.612305,0.60498,30.0625,26.6875,20.625,-0.881784,0.951636,-0.209091
1446,1,-1,2,2,0,-3,0,-1,-1.03516,-0.612305,0.60498,30.0625,26.6875,20.625,-0.881784,0.951636,-0.209091
1458,-1,-1,3,-2,-3,7,2,0,-1.03516,-0.612305,0.60498,30.0625,26.6875,20.625,-0.881784,0.951636,-0.209091
1458,-1,-1,0,-3,-1,1,0,-2,-1.03516,-0.612305,0.60498,30.0625,26.6875,20.625,-0.881784,0.951636,-0.209091
1467,-2,1,-2,-4,-7,-1,-1,0,-0.473145,-0.513672,0.850098,17.6875,23.875,19.75,-0.86507,0.950217,-0.201723
1467,-1,1,-1,-1,-6,-1,-1,1,-0.473145,-0.513672,0.850098,17.6875,23.875,19.75,-0.86507,0.950217,-0.201723
1482,1,1,-2,-3,-7,-1,-1,0,-0.473145,-0.513672,0.850098,17.6875,23.875,19.75,-0.86507,0.950217,-0.201723
1482,0,-2,-3,-1,-3,-1,-3,-1,-0.473145,-0.513672,0.850098,17.6875,23.875,19.75,-0.86507,0.950217,-0.201723
1484,0,-2,-2,3,7,0,-5,-3,-0.253906,-0.445312,0.808105,12.8125,21.125,15.5,-0.850079,0.945631,-0.194359
1484,-1,-2,-2,-3,0,-1,-2,-1,-0.253906,-0.445312,0.808105,12.8125,21.125,15.5,-0.850079,0.945631,-0.194359
1505,-1,-1,-3,-1,1,-2,0,-3,-0.253906,-0.445312,0.808105,12.8125,21.125,15.5,-0.850079,0.945631,-0.194359
1505,-2,-1,1,-2,1,0,0,-2,-0.253906,-0.445312,0.808105,12.8125,21.125,15.5,-0.850079,0.945631,-0.194359
1506,0,1,0,-3,-3,-3,-3,-1,-0.739746,-0.508789,0.553711,11.8125,24.1875,9.8125,-0.848236,0.949273,-0.198636
1506,-1,-1,-1,-2,-2,-1,-1,1,-0.739746,-0.508789,0.553711,11.8125,24.1875,9.8125,-0.848236,0.949273,-0.198636
1518,-1,-1,-3,-3,-8,-5,-1,1,-0.739746,-0.508789,0.553711,11.8125,24.1875,9.8125,-0.848236,0.949273,-0.198636
1518,-1,-3,-2,0,20,3,0,1,-0.739746,-0.508789,0.553711,11.8125,24.1875,9.8125,-0.848236,0.949273,-0.198636
1528,-1,-1,-2,0,-3,0,0,-2,-0.814941,-0.49707,0.488281,12.4375,21.5625,8.25,-0.847597,0.954139,-0.203723
1528,-2,-1,-2,0,-6,1,1,0,-0.814941,-0.49707,0.488281,12.4375,21.5625,8.25,-0.847597,0.954139,-0.203723
1542,-2,-1,0,2,-3,0,-1,-1,-0.814941,-0.49707,0.488281,12.4375,21.5625,8.25,-0.847597,0.954139,-0.203723
1542,-1,-1,0,0,-4,-2,-1,-2,-0.814941,-0.49707,0.488281,12.4375,21.5625,8.25,-0.847597,0.954139,-0.203723
1544,-1,-3,-1,-1,-1,1,0,-1,-0.834473,-0.487305,0.479004,8.8125,19.3125,7.0625,-0.847709,0.958496,-0.208308
1544,-2,-1,-1,-5,2,0,-2,-3,-0.834473,-0.487305,0.479004,8.8125,19.3125,7.0625,-0.847709,0.958496,-0.208308
1565,-1,-1,-1,-3,-3,-4,-2,-2,-0.834473,-0.487305,0.479004,8.8125,19.3125,7.0625,-0.847709,0.958496,-0.208308
1565,-1,-1,-2,-1,-1,-3,1,-1,-0.834473,-0.487305,0.479004,8.8125,19.3125,7.0625,-0.847709,0.958496,-0.208308
1567,-3,0,-1,-1,-1,-1,1,-1,-0.845703,-0.48291,0.46875,5.25,17.4375,5.3125,-0.849403,0.962184,-0.213161
1567,2,-1,-1,-1,-7,-1,0,-2,-0.845703,-0.48291,0.46875,5.25,17.4375,5.3125,-0.849403,0.962184,-0.213161
1579,1,-1,-2,0,3,0,-2,0,-0.845703,-0.48291,0.46875,5.25,17.4375,5.3125,-0.849403,0.962184,-0.213161
1579,1,1,-1,-1,-9,-1,-3,0,-0.845703,-0.48291,0.46875,5.25,17.4375,5.3125,-0.849403,0.962184,-0.213161
1587,0,-1,-1,-1,1,-3,-2,1,-0.849609,-0.478027,0.460449,0.4375,15.375,4.1875,-0.852214,0.965351,-0.217365
1587,-1,-1,0,0,-4,-2,-3,-3,-0.849609,-0.478027,0.460449,0.4375,15.375,4.1875,-0.852214,0.965351,-0.217365
1602,-2,0,1,1,0,-2,0,-1,-0.849609,-0.478027,0.460449,0.4375,15.375,4.1875,-0.852214,0.965351,-0.217365
1602,-1,0,1,-1,13,0,1,-1,-0.849609,-0.478027,0.460449,0.4375,15.375,4.1875,-0.852214,0.965351,-0.217365
1604,-2,-2,0,0,-4,-2,1,0,-0.848633,-0.477051,0.433594,-2.125,12.5625,3.0625,-0.856105,0.967797,-0.221491
1604,-1,-2,-2,0,2,0,-1,1,-0.848633,-0.477051,0.433594,-2.125,12.5625,3.0625,-0.856105,0.967797,-0.221491
1625,-2,-1,0,1,0,0,-1,-2,-0.848633,-0.477051,0.433594,-2.125,12.5625,3.0625,-0.856105,0.967797,-0.221491
1625,-2,-2,-2,-1,-3,-1,0,-1,-0.848633,-0.477051,0.433594,-2.125,12.5625,3.0625,-0.856105,0.967797,-0.221491
1627,-2,-1,-1,-2,3,-1,-1,0,-0.842285,-0.476074,0.427734,-3.5,9.25,1.4375,-0.859908,0.969196,-0.224742
1627,-1,-1,-2,-2,1,-1,0,0,-0.842285,-0.476074,0.427734,-3.5,9.25,1.4375,-0.859908,0.969196,-0.224742
1638,-1,-1,-1,0,0,-1,0,-1,-0.842285,-0.476074,0.427734,-3.5,9.25,1.4375,-0.859908,0.969196,-0.224742
1638,-1,-2,-2,-2,-2,-1,1,-2,-0.842285,-0.476074,0.427734,-3.5,9.25,1.4375,-0.859908,0.969196,-0.224742
1654,1,-3,0,0,4,-1,0,-1,-0.853027,-0.458496,0.41748,0.6875,6,0.5625,-0.860956,0.970034,-0.226595
1654,-1,-1,-2,0,2,1,-2,0,-0.853027,-0.458496,0.41748,0.6875,6,0.5625,-0.860956,0.970034,-0.226595
1663,-2,-1,-1,-2,0,-1,-3,0,-0.853027,-0.458496,0.41748,0.6875,6,0.5625,-0.860956,0.970034,-0.226595
1663,-1,-2,0,-1,-4,-4,-3,1,-0.853027,-0.458496,0.41748,0.6875,6,0.5625,-0.860956,0.970034,-0.226595
1664,0,-1,-1,-1,-5,0,-1,-2,-0.851074,-0.44043,0.401367,3.5,3,0.0625,-0.859943,0.970318,-0.227299
1664,3,-1,0,0,0,0,1,-3,-0.851074,-0.44043,0.401367,3.5,3,0.0625,-0.859943,0.970318,-0.227299
1684,1,-1,-1,-2,-5,0,-1,-1,-0.851074,-0.44043,0.401367,3.5,3,0.0625,-0.859943,0.970318,-0.227299
1684,1,-1,-1,1,4,1,1,1,-0.851074,-0.44043,0.401367,3.5,3,0.0625,-0.859943,0.970318,-0.227299
1686,0,0,-1,-2,-5,-1,-1,-1,-0.845703,-0.44043,0.393066,4.625,0.375,-0.25,-0.858206,0.970095,-0.22726
1686,-1,-2,1,1,0,-2,-2,0,-0.845703,-0.44043,0.393066,4.625,0.375,-0.25,-0.858206,0.970095,-0.22726
1698,0,-1,-1,-2,1,-4,-2,-2,-0.845703,-0.44043,0.393066,4.625,0.375,-0.25,-0.858206,0.970095,-0.22726
1698,-2,0,-1,-2,-4,4,-2,-2,-0.845703,-0.44043,0.393066,4.625,0.375,-0.25,-0.858206,0.970095,-0.22726
1707,-2,-1,-3,-2,-3,-2,-1,0,-0.841309,-0.430664,0.388672,5.125,-2.1875,-1,-0.855309,0.969322,-0.226288
1707,-3,1,-2,1,-1,0,0,0,-0.841309,-0.430664,0.388672,5.125,-2.1875,-1,-0.855309,0.969322,-0.226288
1723,0,0,0,-1,0,-1,0,-2,-0.841309,-0.430664,0.388672,5.125,-2.1875,-1,-0.855309,0.969322,-0.226288
1723,-2,0,3,-1,-2,-2,-2,-2,-0.841309,-0.430664,0.388672,5.125,-2.1875,-1,-0.855309,0.969322,-0.226288
1724,1,-2,1,-1,-3,-1,-1,-2,-0.846191,-0.418457,0.390137,7,-4.3125,-1.4375,-0.851007,0.968232,-0.224287
1724,-2,0,-1,-1,0,-5,-1,-1,-0.846191,-0.418457,0.390137,7,-4.3125,-1.4375,-0.851007,0.968232,-0.224287
1745,-2,-2,-2,-3,1,9,1,1,-0.846191,-0.418457,0.390137,7,-4.3125,-1.4375,-0.851007,0.968232,-0.224287
1745,0,-2,-4,1,1,-2,-3,-1,-0.846191,-0.418457,0.390137,7,-4.3125,-1.4375,-0.851007,0.968232,-0.224287
1746,-2,0,-1,0,-3,-1,-3,-1,-0.836914,-0.407715,0.38623,6.9375,-5.4375,-1.4375,-0.846103,0.966904,-0.221658
1746,0,-1,-1,-2,-4,-5,-2,1,-0.836914,-0.407715,0.38623,6.9375,-5.4375,-1.4375,-0.846103,0.966904,-0.221658
1759,0,1,-2,-1,-1,-3,-1,-1,-0.836914,-0.407715,0.38623,6.9375,-5.4375,-1.4375,-0.846103,0.966904,-0.221658
1759,0,0,0,0,-8,-2,-1,-1,-0.836914,-0.407715,0.38623,6.9375,-5.4375,-1.4375,-0.846103,0.966904,-0.221658
1768,-1,0,-1,-1,0,-2,0,-1,-0.836914,-0.404297,0.391113,7.625,-5.75,-1,-0.840765,0.9657,-0.21867
1768,-2,-1,-2,0,2,3,0,-1,-0.836914,-0.404297,0.391113,7.625,-5.75,-1,-0.840765,0.9657,-0.21867
1783,-2,-2,-2,-1,1,0,1,0,-0.836914,-0.404297,0.391113,7.625,-5.75,-1,-0.840765,0.9657,-0.21867
1783,0,0,-2,-1,-1,0,-1,1,-0.836914,-0.404297,0.391113,7.625,-5.75,-1,-0.840765,0.9657,-0.21867
1784,-1,-2,-1,0,-4,-4,-2,-1,-0.826172,-0.406738,0.383301,6.375,-5.0625,-0.875,-0.836363,0.964561,-0.216235
1784,0,-1,2,-2,0,-1,-2,-2,-0.826172,-0.406738,0.383301,6.375,-5.0625,-0.875,-0.836363,0.964561,-0.216235
1805,-1,-2,0,1,3,0,1,-1,-0.826172,-0.406738,0.383301,6.375,-5.0625,-0.875,-0.836363,0.964561,-0.216235
1805,0,-1,-2,-2,-5,-3,-2,0,-0.826172,-0.406738,0.383301,6.375,-5.0625,-0.875,-0.836363,0.964561,-0.216235
1806,-1,-2,-3,-2,3,2,0,-1,-0.845703,-0.407715,0.369141,6.375,-4.5,-0.5625,-0.832805,0.96411,-0.214636
1806,-1,1,-3,-1,-5,-1,-2,-1,-0.845703,-0.407715,0.369141,6.375,-4.5,-0.5625,-0.832805,0.96411,-0.214636
1818,-2,0,-2,0,-5,-2,0,-2,-0.845703,-0.407715,0.369141,6.375,-4.5,-0.5625,-0.832805,0.96411,-0.214636
1818,-1,-1,-1,-1,5,-1,1,-1,-0.845703,-0.407715,0.369141,6.375,-4.5,-0.5625,-0.832805,0.96411,-0.214636
1828,-1,0,-3,1,0,-1,0,0,-0.845703,-0.395508,0.362793,3.9375,-4.25,0.5,-0.829502,0.964314,-0.212294
1828,0,-1,0,-1,-2,1,0,-1,-0.845703,-0.395508,0.362793,3.9375,-4.25,0.5,-0.829502,0.964314,-0.212294
1842,0,0,0,0,-3,-2,-1,0,-0.845703,-0.395508,0.362793,3.9375,-4.25,0.5,-0.829502,0.964314,-0.212294
1842,-1,0,-2,1,-1,1,0,-1,-0.845703,-0.395508,0.362793,3.9375,-4.25,0.5,-0.829502,0.964314,-0.212294
1844,-2,0,0,0,1,-1,-3,0,-0.833984,-0.400391,0.356445,1.5625,-3.8125,0.9375,-0.82752,0.964438,-0.210525
1844,-1,0,0,-3,-4,-2,-1,-1,-0.833984,-0.400391,0.356445,1.5625,-3.8125,0.9375,-0.82752,0.964438,-0.210525
1864,0,-1,-1,-1,-2,-3,-2,0,-0.833984,-0.400391,0.356445,1.5625,-3.8125,0.9375,-0.82752,0.964438,-0.210525
1864,0,0,-1,0,9,3,0,-1,-0.833984,-0.400391,0.356445,1.5625,-3.8125,0.9375,-0.82752,0.964438,-0.210525
1867,1,-1,-2,0,-1,1,-2,-2,-0.835449,-0.408203,0.360352,0.25,-3.3125,1.125,-0.826403,0.964603,-0.20895
1867,0,-3,0,1,3,0,0,-1,-0.835449,-0.408203,0.360352,0.25,-3.3125,1.125,-0.826403,0.964603,-0.20895
1887,-2,-2,0,-1,-3,2,0,-1,-0.835449,-0.408203,0.360352,0.25,-3.3125,1.125,-0.826403,0.964603,-0.20895
1887,-1,-1,0,-2,-7,-3,1,-2,-0.835449,-0.408203,0.360352,0.25,-3.3125,1.125,-0.826403,0.964603,-0.20895
1888,0,0,-2,-2,3,-3,-3,0,-0.839844,-0.411133,0.353027,1.3125,-2.8125,1.625,-0.825174,0.965247,-0.207693
1888,0,-1,0,-1,-1,-1,-3,-3,-0.839844,-0.411133,0.353027,1.3125,-2.8125,1.625,-0.825174,0.965247,-0.207693
1902,-1,0,-2,-1,3,1,-3,0,-0.839844,-0.411133,0.353027,1.3125,-2.8125,1.625,-0.825174,0.965247,-0.207693
1902,0,-1,-2,-2,-4,-1,-3,0,-0.839844,-0.411133,0.353027,1.3125,-2.8125,1.625,-0.825174,0.965247,-0.207693
1908,0,-1,-1,1,-2,0,1,0,-0.837891,-0.410156,0.351562,-0.3125,-2.1875,2.5,-0.824436,0.966136,-0.206378
1908,-1,-3,0,1,-3,-3,-2,1,-0.837891,-0.410156,0.351562,-0.3125,-2.1875,2.5,-0.824436,0.966136,-0.206378
1932,0,-1,0,0,8,6,0,1,-0.837891,-0.410156,0.351562,-0.3125,-2.1875,2.5,-0.824436,0.966136,-0.206378
1932,-1,0,0,-1,-6,-2,-1,-2,-0.837891,-0.410156,0.351562,-0.3125,-2.1875,2.5,-0.824436,0.966136,-0.206378
1933,-1,1,1,-3,-8,-4,0,-1,-0.836426,-0.412109,0.354492,-0.5,-0.875,2.8125,-0.82426,0.96748,-0.205494
1933,-1,0,-2,-1,7,2,-1,-3,-0.836426,-0.412109,0.354492,-0.5,-0.875,2.8125,-0.82426,0.96748,-0.205494
1947,-2,-2,-1,-1,-5,-2,0,-3,-0.836426,-0.412109,0.354492,-0.5,-0.875,2.8125,-0.82426,0.96748,-0.205494
1947,0,1,-1,-2,-1,-1,0,-1,-0.836426,-0.412109,0.354492,-0.5,-0.875,2.8125,-0.82426,0.96748,-0.205494
1948,0,-2,-1,-2,-5,0,-1,3,-0.845215,-0.413086,0.345703,-1.0625,-0.5,3.125,-0.824383,0.968808,-0.205004
1948,0,0,-3,-1,-6,-1,-2,0,-0.845215,-0.413086,0.345703,-1.0625,-0.5,3.125,-0.824383,0.968808,-0.205004
1962,2,-1,-1,-1,5,-2,-2,-1,-0.845215,-0.413086,0.345703,-1.0625,-0.5,3.125,-0.824383,0.968808,-0.205004
1962,-2,-1,-2,-1,-2,-3,-1,-1,-0.845215,-0.413086,0.345703,-1.0625,-0.5,3.125,-0.824383,0.968808,-0.205004
1964,-1,-2,0,-1,1,-5,-1,-2,-0.841309,-0.415039,0.35791,-3.125,-0.3125,3.1875,-0.825114,0.970258,-0.204106
1964,1,0,-1,0,-1,9,0,0,-0.841309,-0.415039,0.35791,-3.125,-0.3125,3.1875,-0.825114,0.970258,-0.204106
1985,-1,-1,-2,1,2,-2,-1,-1,-0.841309,-0.415039,0.35791,-3.125,-0.3125,3.1875,-0.825114,0.970258,-0.204106
1985,-1,-3,-1,-3,-4,1,-2,0,-0.841309,-0.415039,0.35791,-3.125,-0.3125,3.1875,-0.825114,0.970258,-0.204106
1987,-1,-1,-1,1,-1,0,-1,-1,-0.841309,-0.412109,0.364746,-2.6875,0.75,3.0625,-0.825761,0.97179,-0.203578
1987,-2,-2,0,-2,-4,-3,-2,-1,-0.841309,-0.412109,0.364746,-2.6875,0.75,3.0625,-0.825761,0.97179,-0.203578
2008,-1,0,-1,-2,-2,-3,-2,0,-0.841309,-0.412109,0.364746,-2.6875,0.75,3.0625,-0.825761,0.97179,-0.203578
2008,-1,0,0,2,3,-1,-3,-1,-0.841309,-0.412109,0.364746,-2.6875,0.75,3.0625,-0.825761,0.97179,-0.203578
2009,-2,-1,0,-2,-2,-2,0,-3,-0.853516,-0.422852,0.357422,-2,1,3.8125,-0.826478,0.973493,-0.203355
2009,-1,-1,-3,-1,11,0,0,-2,-0.853516,-0.422852,0.357422,-2,1,3.8125,-0.826478,0.973493,-0.203355
2022,-2,-1,1,2,-4,-2,-1,-1,-0.853516,-0.422852,0.357422,-2,1,3.8125,-0.826478,0.973493,-0.203355
2022,-1,-2,-1,-2,1,-5,-2,0,-0.853516,-0.422852,0.357422,-2,1,3.8125,-0.826478,0.973493,-0.203355
2028,-1,0,-2,-1,-4,0,-1,0,-0.839844,-0.425781,0.35791,-1.625,1.25,3.8125,-0.827046,0.974873,-0.203064
2028,-1,1,-1,-3,-5,-1,-1,-1,-0.839844,-0.425781,0.35791,-1.625,1.25,3.8125,-0.827046,0.974873,-0.203064
2044,1,-1,0,-3,-4,-1,0,-1,-0.839844,-0.425781,0.35791,-1.625,1.25,3.8125,-0.827046,0.974873,-0.203064
2044,-1,-1,-3,0,1,0,1,-1,-0.839844,-0.425781,0.35791,-1.625,1.25,3.8125,-0.827046,0.974873,-0.203064
2047,-1,-1,-1,-2,-1,0,-2,-2,-0.850586,-0.419922,0.36084,0.5625,1.5,3.75,-0.826919,0.976722,-0.20279
2047,0,0,-2,2,0,-3,1,0,-0.850586,-0.419922,0.36084,0.5625,1.5,3.75,-0.826919,0.976722,-0.20279
2067,-2,-1,-2,-3,-6,-1,0,-1,-0.850586,-0.419922,0.36084,0.5625,1.5,3.75,-0.826919,0.976722,-0.20279
2067,0,-1,0,-1,0,-2,-2,-1,-0.850586,-0.419922,0.36084,0.5625,1.5,3.75,-0.826919,0.976722,-0.20279
2069,1,-2,-2,-1,3,-6,-2,0,-0.843262,-0.411133,0.354004,-1.6875,1.8125,4,-0.82769,0.978769,-0.202687
2069,0,-3,1,-1,-2,-2,-3,-1,-0.843262,-0.411133,0.354004,-1.6875,1.8125,4,-0.82769,0.978769,-0.202687
2081,0,0,1,-1,-4,4,-1,0,-0.843262,-0.411133,0.354004,-1.6875,1.8125,4,-0.82769,0.978769,-0.202687
2081,-3,-1,1,1,-2,1,0,0,-0.843262,-0.411133,0.354004,-1.6875,1.8125,4,-0.82769,0.978769,-0.202687
2088,-2,0,-2,-1,-2,-2,0,-2,-0.849609,-0.421875,0.348633,-2.875,1.5625,3.3125,-0.829216,0.980372,-0.202917
2088,-2,-1,-1,0,-12,-4,-1,-2,-0.849609,-0.421875,0.348633,-2.875,1.5625,3.3125,-0.829216,0.980372,-0.202917
2105,0,-1,-3,-1,5,-2,1,-1,-0.849609,-0.421875,0.348633,-2.875,1.5625,3.3125,-0.829216,0.980372,-0.202917
2105,-1,-1,-1,-1,-2,0,0,-1,-0.849609,-0.421875,0.348633,-2.875,1.5625,3.3125,-0.829216,0.980372,-0.202917
2106,0,-2,-1,-1,1,13,0,-1,-0.84375,-0.425781,0.347656,-3.8125,1.3125,3.5625,-0.831259,0.982039,-0.203155
2106,0,-1,-2,0,-3,5,0,1,-0.84375,-0.425781,0.347656,-3.8125,1.3125,3.5625,-0.831259,0.982039,-0.203155
2127,-2,0,-1,2,-2,0,-2,-1,-0.84375,-0.425781,0.347656,-3.8125,1.3125,3.5625,-0.831259,0.982039,-0.203155
2127,1,-1,-1,-1,1,-1,-2,-1,-0.84375,-0.425781,0.347656,-3.8125,1.3125,3.5625,-0.831259,0.982039,-0.203155
2129,-2,-1,1,-1,1,-8,-2,-1,-0.838867,-0.419434,0.355469,-1.375,1.4375,3.25,-0.832029,0.983397,-0.203188
2129,-1,-3,-1,-1,3,-2,1,0,-0.838867,-0.419434,0.355469,-1.375,1.4375,3.25,-0.832029,0.983397,-0.203188
2142,0,-3,-2,-2,1,-5,-1,0,-0.838867,-0.419434,0.355469,-1.375,1.4375,3.25,-0.832029,0.983397,-0.203188
2142,0,0,0,1,2,-3,0,-1,-0.838867,-0.419434,0.355469,-1.375,1.4375,3.25,-0.832029,0.983397,-0.203188
2148,0,0,0,1,5,2,-2,0,-0.84082,-0.416016,0.358398,-0.9375,1.5,3.125,-0.832424,0.98464,-0.203191
2148,-1,-1,-2,0,-4,-3,-1,-2,-0.84082,-0.416016,0.358398,-0.9375,1.5,3.125,-0.832424,0.98464,-0.203191
2166,-2,-1,-2,-1,-1,-2,-1,-2,-0.84082,-0.416016,0.358398,-0.9375,1.5,3.125,-0.832424,0.98464,-0.203191
2166,0,1,-1,-2,-6,-1,-1,-2,-0.84082,-0.416016,0.358398,-0.9375,1.5,3.125,-0.832424,0.98464,-0.203191
2167,1,0,-3,-3,1,-3,2,-1,-0.838379,-0.40918,0.365234,-2.875,1.8125,2.625,-0.833326,0.985902,-0.203009
2167,0,1,-1,-1,-4,-1,-1,-1,-0.838379,-0.40918,0.365234,-2.875,1.8125,2.625,-0.833326,0.985902,-0.203009
2187,0,-2,1,-1,-2,-1,-3,-2,-0.838379,-0.40918,0.365234,-2.875,1.8125,2.625,-0.833326,0.985902,-0.203009
2187,0,-1,-2,-2,-4,1,0,0,-0.838379,-0.40918,0.365234,-2.875,1.8125,2.625,-0.833326,0.985902,-0.203009
2189,-2,-2,2,-1,-2,1,-1,-1,-0.842285,-0.427734,0.360352,-1.8125,1.8125,1.375,-0.834983,0.986575,-0.203944
2189,0,-2,-2,-2,1,-2,0,-2,-0.842285,-0.427734,0.360352,-1.8125,1.8125,1.375,-0.834983,0.986575,-0.203944
2202,-1,-1,-2,-1,-6,0,-1,0,-0.842285,-0.427734,0.360352,-1.8125,1.8125,1.375,-0.834983,0.986575,-0.203944
2202,-2,-1,-3,1,9,3,-2,-1,-0.842285,-0.427734,0.360352,-1.8125,1.8125,1.375,-0.834983,0.986575,-0.203944
2210,0,-2,-2,1,-2,-1,-1,1,-0.847656,-0.427246,0.364746,-0.75,1.9375,1.625,-0.836247,0.98754,-0.204796
2210,-2,0,-2,-1,1,-4,-2,-1,-0.847656,-0.427246,0.364746,-0.75,1.9375,1.625,-0.836247,0.98754,-0.204796
2225,-1,-1,3,-2,-2,7,0,-1,-0.847656,-0.427246,0.364746,-0.75,1.9375,1.625,-0.836247,0.98754,-0.204796
2225,-1,-1,0,-2,-4,-2,0,0,-0.847656,-0.427246,0.364746,-0.75,1.9375,1.625,-0.836247,0.98754,-0.204796
2226,-1,-1,-2,-2,-9,-2,-1,-1,-0.853516,-0.417969,0.363281,-0.375,2.5625,1.4375,-0.837365,0.988648,-0.205862
2226,-1,-1,-2,-2,9,3,1,-2,-0.853516,-0.417969,0.363281,-0.375,2.5625,1.4375,-0.837365,0.988648,-0.205862
2248,0,0,-1,0,0,-4,0,-3,-0.853516,-0.417969,0.363281,-0.375,2.5625,1.4375,-0.837365,0.988648,-0.205862
2248,-1,0,-2,-1,-3,0,2,-1,-0.853516,-0.417969,0.363281,-0.375,2.5625,1.4375,-0.837365,0.988648,-0.205862
2248,-1,-1,-1,-2,-1,-2,-1,-1,-0.852539,-0.415039,0.351562,-1.0625,2.25,0.9375,-0.838868,0.989874,-0.206967
2248,-1,0,0,-1,-3,-3,0,0,-0.852539,-0.415039,0.351562,-1.0625,2.25,0.9375,-0.838868,0.989874,-0.206967
2262,-1,0,-3,-1,-1,-4,-1,0,-0.852539,-0.415039,0.351562,-1.0625,2.25,0.9375,-0.838868,0.989874,-0.206967
2262,-1,-3,-1,-1,-4,0,-1,0,-0.852539,-0.415039,0.351562,-1.0625,2.25,0.9375,-0.838868,0.989874,-0.206967
2268,-1,-1,0,2,-1,-2,-1,-2,-0.850586,-0.420898,0.358887,-2.9375,1.375,0.8125,-0.840738,0.990381,-0.207865
2268,1,0,-1,-2,-1,0,-1,-1,-0.850586,-0.420898,0.358887,-2.9375,1.375,0.8125,-0.840738,0.990381,-0.207865
2285,-1,-2,-1,-2,0,-1,-3,-2,-0.850586,-0.420898,0.358887,-2.9375,1.375,0.8125,-0.840738,0.990381,-0.207865
2285,0,0,1,-1,9,2,-1,-1,-0.850586,-0.420898,0.358887,-2.9375,1.375,0.8125,-0.840738,0.990381,-0.207865
2286,-1,-1,-2,-1,1,0,-2,0,-0.84375,-0.422852,0.361816,-2.75,1.5625,0.5625,-0.842471,0.990706,-0.208654
2286,-2,-1,0,-1,-3,1,-1,1,-0.84375,-0.422852,0.361816,-2.75,1.5625,0.5625,-0.842471,0.990706,-0.208654
2308,-1,0,-1,-1,-4,-4,-1,-1,-0.84375,-0.422852,0.361816,-2.75,1.5625,0.5625,-0.842471,0.990706,-0.208654
2308,-1,-1,0,-4,-6,-3,-1,0,-0.84375,-0.422852,0.361816,-2.75,1.5625,0.5625,-0.842471,0.990706,-0.208654
2309,-1,-2,0,-1,-1,-3,0,-1,-0.848633,-0.42041,0.360352,0.625,1.8125,-0.375,-0.843581,0.991154,-0.210035
2309,-2,2,-1,0,-8,9,-1,-1,-0.848633,-0.42041,0.360352,0.625,1.8125,-0.375,-0.843581,0.991154,-0.210035
2322,0,-2,-3,0,13,1,0,-1,-0.848633,-0.42041,0.360352,0.625,1.8125,-0.375,-0.843581,0.991154,-0.210035
2322,-1,-1,-3,-4,-4,-1,-1,-1,-0.848633,-0.42041,0.360352,0.625,1.8125,-0.375,-0.843581,0.991154,-0.210035
2329,-1,0,-1,0,1,1,-1,-2,-0.852539,-0.419434,0.35498,1.875,1.375,-0.3125,-0.844227,0.991643,-0.211391
2329,-2,-3,-2,-2,-5,-4,-1,-1,-0.852539,-0.419434,0.35498,1.875,1.375,-0.3125,-0.844227,0.991643,-0.211391
2345,0,0,-1,0,-5,-3,2,-1,-0.852539,-0.419434,0.35498,1.875,1.375,-0.3125,-0.844227,0.991643,-0.211391
2345,-1,-2,-1,0,-3,0,0,-1,-0.852539,-0.419434,0.35498,1.875,1.375,-0.3125,-0.844227,0.991643,-0.211391
2346,-1,-2,0,1,-3,-3,-1,-2,-0.844238,-0.408203,0.360352,-0.8125,1,-0.1875,-0.84496,0.991925,-0.212004
2346,0,-4,-1,-2,3,-4,-1,0,-0.844238,-0.408203,0.360352,-0.8125,1,-0.1875,-0.84496,0.991925,-0.212004
2368,-1,0,-2,-4,-5,-2,-2,0,-0.844238,-0.408203,0.360352,-0.8125,1,-0.1875,-0.84496,0.991925,-0.212004
2368,0,0,1,1,1,-3,-4,-1,-0.844238,-0.408203,0.360352,-0.8125,1,-0.1875,-0.84496,0.991925,-0.212004
2369,1,-1,-1,-1,0,1,0,-1,-0.831543,-0.41748,0.374512,-1.9375,0.9375,-0.4375,-0.845986,0.991601,-0.212418
2369,-1,-2,0,0,2,-3,-1,0,-0.831543,-0.41748,0.374512,-1.9375,0.9375,-0.4375,-0.845986,0.991601,-0.212418
2381,-3,-2,0,-1,2,0,0,0,-0.831543,-0.41748,0.374512,-1.9375,0.9375,-0.4375,-0.845986,0.991601,-0.212418
2381,0,-2,-1,-1,-5,-2,-1,-1,-0.831543,-0.41748,0.374512,-1.9375,0.9375,-0.4375,-0.845986,0.991601,-0.212418
2390,0,-1,-2,-1,-2,1,-1,-2,-0.842285,-0.411621,0.369629,-1.5,2.0625,-1.875,-0.847901,0.9917,-0.214114
2390,1,-1,0,-1,0,-1,1,-1,-0.842285,-0.411621,0.369629,-1.5,2.0625,-1.875,-0.847901,0.9917,-0.214114
2405,1,0,-1,-2,-3,-1,-1,1,-0.842285,-0.411621,0.369629,-1.5,2.0625,-1.875,-0.847901,0.9917,-0.214114
2405,0,-1,0,-1,-7,-2,0,-1,-0.842285,-0.411621,0.369629,-1.5,2.0625,-1.875,-0.847901,0.9917,-0.214114
2407,-1,-2,-2,-1,-1,-1,0,-1,-0.860352,-0.422852,0.353516,1.375,1.75,-1.6875,-0.849295,0.991868,-0.216172
2407,-2,-1,-1,0,4,-3,-1,0,-0.860352,-0.422852,0.353516,1.375,1.75,-1.6875,-0.849295,0.991868,-0.216172
2427,-1,0,-1,0,-4,-3,-1,-2,-0.860352,-0.422852,0.353516,1.375,1.75,-1.6875,-0.849295,0.991868,-0.216172
2427,-1,-1,0,-1,-1,-2,0,0,-0.860352,-0.422852,0.353516,1.375,1.75,-1.6875,-0.849295,0.991868,-0.216172
2429,-1,-3,-2,-3,-2,0,-1,0,-0.837891,-0.414551,0.356445,0.375,1.4375,-1.0625,-0.850356,0.991974,-0.217436
2429,-1,0,-1,-1,-2,-3,-1,-2,-0.837891,-0.414551,0.356445,0.375,1.4375,-1.0625,-0.850356,0.991974,-0.217436
2441,-1,0,-2,0,-3,0,-1,1,-0.837891,-0.414551,0.356445,0.375,1.4375,-1.0625,-0.850356,0.991974,-0.217436
2441,-1,-1,-2,-3,0,-1,-1,1,-0.837891,-0.414551,0.356445,0.375,1.4375,-1.0625,-0.850356,0.991974,-0.217436
2449,-1,-2,-1,-1,-5,-3,0,0,-0.847168,-0.416992,0.361328,1.75,1.625,-1.75,-0.851064,0.991833,-0.21904
2449,-2,-1,-1,-1,-3,-1,-3,-2,-0.847168,-0.416992,0.361328,1.75,1.625,-1.75,-0.851064,0.991833,-0.21904
2465,-1,-1,0,4,7,-1,-2,-2,-0.847168,-0.416992,0.361328,1.75,1.625,-1.75,-0.851064,0.991833,-0.21904
2465,0,0,-3,-1,-5,-1,-2,-2,-0.847168,-0.416992,0.361328,1.75,1.625,-1.75,-0.851064,0.991833,-0.21904
2466,-1,2,-3,-2,0,-3,2,-2,-0.855957,-0.409668,0.351074,0.625,1.375,-1.9375,-0.852324,0.992139,-0.220766
2466,0,0,-1,0,0,4,-1,-1,-0.855957,-0.409668,0.351074,0.625,1.375,-1.9375,-0.852324,0.992139,-0.220766
2488,0,-1,-2,-2,-4,-1,-1,0,-0.855957,-0.409668,0.351074,0.625,1.375,-1.9375,-0.852324,0.992139,-0.220766
2488,-1,-1,-2,-2,-1,0,0,0,-0.855957,-0.409668,0.351074,0.625,1.375,-1.9375,-0.852324,0.992139,-0.220766
2489,-1,-1,0,-2,-1,0,-2,0,-0.853516,-0.413574,0.354004,-1,0.75,-1.625,-0.853806,0.992098,-0.22208
2489,-1,-2,1,-2,-2,-5,-2,1,-0.853516,-0.413574,0.354004,-1,0.75,-1.625,-0.853806,0.992098,-0.22208
2501,-1,-1,0,-2,0,-2,-1,-2,-0.853516,-0.413574,0.354004,-1,0.75,-1.625,-0.853806,0.992098,-0.22208
2501,-2,0,-3,1,-2,-1,-1,-2,-0.853516,-0.413574,0.354004,-1,0.75,-1.625,-0.853806,0.992098,-0.22208
2510,-2,1,-1,1,5,-2,-3,0,-0.850586,-0.424805,0.356934,1.0625,-0.0625,-1.375,-0.854054,0.991671,-0.222779
2510,1,0,-1,0,1,1,-1,-2,-0.850586,-0.424805,0.356934,1.0625,-0.0625,-1.375,-0.854054,0.991671,-0.222779
2525,0,-1,0,-2,-2,-1,0,0,-0.850586,-0.424805,0.356934,1.0625,-0.0625,-1.375,-0.854054,0.991671,-0.222779
2525,1,-1,-1,3,8,0,0,-1,-0.850586,-0.424805,0.356934,1.0625,-0.0625,-1.375,-0.854054,0.991671,-0.222779
2527,-1,-1,0,1,-4,0,1,-1,-0.846191,-0.402832,0.351562,1.3125,-0.25,-1,-0.854142,0.991883,-0.223282
2527,-1,-1,-2,0,-7,-4,1,-3,-0.846191,-0.402832,0.351562,1.3125,-0.25,-1,-0.854142,0.991883,-0.223282
2548,-1,-3,-1,-1,5,1,-2,0,-0.846191,-0.402832,0.351562,1.3125,-0.25,-1,-0.854142,0.991883,-0.223282
2548,0,-2,1,-2,-7,-1,-3,-1,-0.846191,-0.402832,0.351562,1.3125,-0.25,-1,-0.854142,0.991883,-0.223282
2549,-1,-1,-1,-2,-1,0,-1,0,-0.848633,-0.40332,0.352539,0.875,-0.5625,-1.3125,-0.85383,0.991695,-0.223412
2549,0,1,-4,-1,-3,0,1,0,-0.848633,-0.40332,0.352539,0.875,-0.5625,-1.3125,-0.85383,0.991695,-0.223412
2561,-1,-1,-3,0,4,-1,-1,-2,-0.848633,-0.40332,0.352539,0.875,-0.5625,-1.3125,-0.85383,0.991695,-0.223412
2561,0,0,-3,0,-1,0,0,-2,-0.848633,-0.40332,0.352539,0.875,-0.5625,-1.3125,-0.85383,0.991695,-0.223412
2569,0,0,0,1,-2,-7,-1,-1,-0.849609,-0.408691,0.357422,-1.625,-1.125,-1.125,-0.854165,0.991383,-0.223143
2569,0,-2,1,0,0,6,-2,-2,-0.849609,-0.408691,0.357422,-1.625,-1.125,-1.125,-0.854165,0.991383,-0.223143
2585,0,0,1,-3,-6,-2,-3,0,-0.849609,-0.408691,0.357422,-1.625,-1.125,-1.125,-0.854165,0.991383,-0.223143
2585,-2,0,1,-3,3,0,-2,-2,-0.849609,-0.408691,0.357422,-1.625,-1.125,-1.125,-0.854165,0.991383,-0.223143
2587,-1,0,-1,-1,1,-1,-1,-3,-0.84375,-0.414551,0.370117,-1.9375,-0.9375,-1,-0.854697,0.990948,-0.223005
2587,-1,-1,-2,-1,0,-2,0,-1,-0.84375,-0.414551,0.370117,-1.9375,-0.9375,-1,-0.854697,0.990948,-0.223005
2608,-3,0,-1,-1,-1,-1,0,-1,-0.84375,-0.414551,0.370117,-1.9375,-0.9375,-1,-0.854697,0.990948,-0.223005
2608,-1,-1,-2,-1,-7,1,-2,0,-0.84375,-0.414551,0.370117,-1.9375,-0.9375,-1,-0.854697,0.990948,-0.223005
2608,-1,-2,-1,-1,-2,-1,-2,2,-0.847656,-0.41748,0.356445,0.625,-0.625,-1.0625,-0.854807,0.990661,-0.223369
2608,-3,-2,1,-1,7,-2,-3,0,-0.847656,-0.41748,0.356445,0.625,-0.625,-1.0625,-0.854807,0.990661,-0.223369
2621,1,-1,-2,-1,-5,-2,-2,-1,-0.847656,-0.41748,0.356445,0.625,-0.625,-1.0625,-0.854807,0.990661,-0.223369
2621,0,0,-1,-2,-1,-4,1,-1,-0.847656,-0.41748,0.356445,0.625,-0.625,-1.0625,-0.854807,0.990661,-0.223369
2630,-2,0,-1,-1,-2,2,-1,-2,-0.850098,-0.411133,0.355469,1.3125,-0.6875,-0.1875,-0.854095,0.990853,-0.223051
2630,-1,-2,-2,-2,-2,-2,0,-2,-0.850098,-0.411133,0.355469,1.3125,-0.6875,-0.1875,-0.854095,0.990853,-0.223051
2645,0,-1,1,-2,-6,-2,-1,-1,-0.850098,-0.411133,0.355469,1.3125,-0.6875,-0.1875,-0.854095,0.990853,-0.223051
2645,-3,1,0,1,1,-3,0,-2,-0.850098,-0.411133,0.355469,1.3125,-0.6875,-0.1875,-0.854095,0.990853,-0.223051
2646,-1,-2,-1,-1,-5,-2,0,-1,-0.851074,-0.408203,0.356445,0.1875,-0.75,-0.1875,-0.854049,0.990748,-0.223074
2646,2,0,-1,1,19,1,-1,0,-0.851074,-0.408203,0.356445,0.1875,-0.75,-0.1875,-0.854049,0.990748,-0.223074
2667,0,0,-1,-1,-4,-1,1,-3,-0.851074,-0.408203,0.356445,0.1875,-0.75,-0.1875,-0.854049,0.990748,-0.223074
2667,-1,-1,-1,-3,-2,1,-1,-1,-0.851074,-0.408203,0.356445,0.1875,-0.75,-0.1875,-0.854049,0.990748,-0.223074
2669,-1,-2,-2,-3,-2,0,-1,-2,-0.84375,-0.416504,0.348633,-1.375,-1.4375,-0.0625,-0.854458,0.990689,-0.222753
2669,-2,0,-3,-2,-8,-2,-2,-2,-0.84375,-0.416504,0.348633,-1.375,-1.4375,-0.0625,-0.854458,0.990689,-0.222753
2681,0,0,-4,-2,-5,-1,0,2,-0.84375,-0.416504,0.348633,-1.375,-1.4375,-0.0625,-0.854458,0.990689,-0.222753
2681,0,-2,-2,-1,4,0,-1,0,-0.84375,-0.416504,0.348633,-1.375,-1.4375,-0.0625,-0.854458,0.990689,-0.222753
2690,0,-1,-1,-1,-1,1,-1,0,-0.84082,-0.42041,0.352539,-2.25,-1.4375,0,-0.855061,0.990461,-0.222377
2690,-1,-1,-1,-1,-4,0,0,0,-0.84082,-0.42041,0.352539,-2.25,-1.4375,0,-0.855061,0.990461,-0.222377
2705,-3,-1,1,1,0,-4,-2,-1,-0.84082,-0.42041,0.352539,-2.25,-1.4375,0,-0.855061,0.990461,-0.222377
2705,-1,1,2,-1,-3,-1,-1,-1,-0.84082,-0.42041,0.352539,-2.25,-1.4375,0,-0.855061,0.990461,-0.222377
2706,0,-1,-2,0,-6,-3,-2,-1,-0.841797,-0.41748,0.353516,-0.875,-1.1875,0,-0.855089,0.990285,-0.222018
2706,-2,-1,-3,-2,2,-3,-1,-1,-0.841797,-0.41748,0.353516,-0.875,-1.1875,0,-0.855089,0.990285,-0.222018
2727,-1,0,-3,-3,1,1,0,-1,-0.841797,-0.41748,0.353516,-0.875,-1.1875,0,-0.855089,0.990285,-0.222018
2727,-2,-2,-2,-1,-2,0,-2,0,-0.841797,-0.41748,0.353516,-0.875,-1.1875,0,-0.855089,0.990285,-0.222018
2728,-1,-2,-1,-4,-6,-1,-1,-1,-0.848145,-0.415039,0.349609,1.5625,-1.25,-0.1875,-0.854528,0.990248,-0.221856
2728,-1,-1,0,5,-4,-1,-1,-2,-0.848145,-0.415039,0.349609,1.5625,-1.25,-0.1875,-0.854528,0.990248,-0.221856
2741,-2,-1,-1,-1,-1,0,0,0,-0.848145,-0.415039,0.349609,1.5625,-1.25,-0.1875,-0.854528,0.990248,-0.221856
2741,-1,-2,-1,0,2,-1,-1,1,-0.848145,-0.415039,0.349609,1.5625,-1.25,-0.1875,-0.854528,0.990248,-0.221856
2750,0,-1,-2,0,3,-1,-1,-1,-0.841309,-0.408203,0.359375,1.0625,-1.3125,-0.1875,-0.853707,0.990126,-0.221251
2750,0,-1,0,-1,-6,-2,-2,-1,-0.841309,-0.408203,0.359375,1.0625,-1.3125,-0.1875,-0.853707,0.990126,-0.221251
2765,0,-1,-1,0,14,1,0,1,-0.841309,-0.408203,0.359375,1.0625,-1.3125,-0.1875,-0.853707,0.990126,-0.221251
2765,2,-1,-2,-2,-1,-3,-1,-2,-0.841309,-0.408203,0.359375,1.0625,-1.3125,-0.1875,-0.853707,0.990126,-0.221251
2766,-2,-2,2,-2,0,-1,-2,-3,-0.83252,-0.404785,0.362793,-0.5,-0.3125,0,-0.853482,0.990102,-0.221149
2766,-2,0,-1,-3,-1,-1,-3,-1,-0.83252,-0.404785,0.362793,-0.5,-0.3125,0,-0.853482,0.990102,-0.221149
2788,-2,-2,-1,1,-4,1,-1,-1,-0.83252,-0.404785,0.362793,-0.5,-0.3125,0,-0.853482,0.990102,-0.221149
2788,-3,-2,-3,-1,0,0,0,-2,-0.83252,-0.404785,0.362793,-0.5,-0.3125,0,-0.853482,0.990102,-0.221149
2789,0,-2,-2,0,2,0,0,-2,-0.847168,-0.413086,0.358398,-1.0625,0.5625,-0.8125,-0.854432,0.99017,-0.221718
2789,-2,-1,-1,-1,-2,-2,-2,-1,-0.847168,-0.413086,0.358398,-1.0625,0.5625,-0.8125,-0.854432,0.99017,-0.221718
2801,0,-1,-2,-2,-4,-5,-1,-1,-0.847168,-0.413086,0.358398,-1.0625,0.5625,-0.8125,-0.854432,0.99017,-0.221718
2801,-1,0,1,1,3,1,0,-1,-0.847168,-0.413086,0.358398,-1.0625,0.5625,-0.8125,-0.854432,0.99017,-0.221718
2810,0,1,-3,-1,-3,0,-3,0,-0.852051,-0.416992,0.362305,-1,0.5,-1,-0.854386,0.990066,-0.221742
2810,-1,0,-1,-1,-2,1,0,0,-0.852051,-0.416992,0.362305,-1,0.5,-1,-0.854386,0.990066,-0.221742
2824,0,-1,1,-1,-2,0,0,-1,-0.852051,-0.416992,0.362305,-1,0.5,-1,-0.854386,0.990066,-0.221742
2824,-1,0,-1,-2,-3,-3,0,-2,-0.852051,-0.416992,0.362305,-1,0.5,-1,-0.854386,0.990066,-0.221742
2826,-1,0,0,-2,-10,-1,1,1,-0.846191,-0.412598,0.355957,0.3125,0.75,-0.3125,-0.854528,0.990248,-0.221856
2826,1,-1,1,-2,6,0,1,0,-0.846191,-0.412598,0.355957,0.3125,0.75,-0.3125,-0.854528,0.990248,-0.221856
2847,-2,-2,-2,-1,0,-1,-4,-1,-0.846191,-0.412598,0.355957,0.3125,0.75,-0.3125,-0.854528,0.990248,-0.221856
2847,0,-1,0,-1,-3,-2,-1,-1,-0.846191,-0.412598,0.355957,0.3125,0.75,-0.3125,-0.854528,0.990248,-0.221856
2849,-1,-2,1,0,1,-2,-1,-2,-0.842773,-0.412598,0.346191,1.5625,0.75,-0.125,-0.854583,0.99059,-0.222532
2849,0,-2,0,-2,-4,-3,-1,-2,-0.842773,-0.412598,0.346191,1.5625,0.75,-0.125,-0.854583,0.99059,-0.222532
2870,-2,1,-2,1,-1,0,1,-4,-0.842773,-0.412598,0.346191,1.5625,0.75,-0.125,-0.854583,0.99059,-0.222532
2870,1,-1,-2,-1,-1,1,0,1,-0.842773,-0.412598,0.346191,1.5625,0.75,-0.125,-0.854583,0.99059,-0.222532
2871,-2,2,-1,-1,1,-3,-2,-2,-0.846191,-0.411621,0.350586,-0.25,0.75,-0.1875,-0.854725,0.990772,-0.222646
2871,1,-1,-2,0,-3,-1,-2,0,-0.846191,-0.411621,0.350586,-0.25,0.75,-0.1875,-0.854725,0.990772,-0.222646
2885,-1,0,-1,-2,-2,-2,-1,2,-0.846191,-0.411621,0.350586,-0.25,0.75,-0.1875,-0.854725,0.990772,-0.222646
2885,0,0,0,0,-1,-3,2,0,-0.846191,-0.411621,0.350586,-0.25,0.75,-0.1875,-0.854725,0.990772,-0.222646
2887,0,-1,0,0,5,7,0,-1,-0.855957,-0.410156,0.349609,-1.0625,0.6875,-0.375,-0.855719,0.991222,-0.223338
2887,-2,0,-2,-1,-4,0,-1,-2,-0.855957,-0.410156,0.349609,-1.0625,0.6875,-0.375,-0.855719,0.991222,-0.223338
2907,-1,-1,1,2,-2,0,-1,-2,-0.855957,-0.410156,0.349609,-1.0625,0.6875,-0.375,-0.855719,0.991222,-0.223338
2907,-2,-2,-2,0,-6,1,-1,-1,-0.855957,-0.410156,0.349609,-1.0625,0.6875,-0.375,-0.855719,0.991222,-0.223338
2909,-3,0,-1,0,0,-2,0,-1,-0.850098,-0.416992,0.357422,-1.375,0.1875,0,-0.856308,0.991407,-0.223472
2909,0,-1,-3,-2,-2,0,-1,0,-0.850098,-0.416992,0.357422,-1.375,0.1875,0,-0.856308,0.991407,-0.223472
2930,0,-1,-1,-1,-5,-1,-2,-1,-0.850098,-0.416992,0.357422,-1.375,0.1875,0,-0.856308,0.991407,-0.223472
2930,-1,-1,0,0,-3,-1,-2,-2,-0.850098,-0.416992,0.357422,-1.375,0.1875,0,-0.856308,0.991407,-0.223472
2931,1,-1,0,1,14,2,1,-1,-0.845215,-0.431152,0.352539,-0.375,-0.125,0.375,-0.856534,0.99143,-0.223574
2931,-2,-1,-3,1,-2,-2,0,0,-0.845215,-0.431152,0.352539,-0.375,-0.125,0.375,-0.856534,0.99143,-0.223574
2945,0,2,-1,-2,-1,1,1,-2,-0.845215,-0.431152,0.352539,-0.375,-0.125,0.375,-0.856534,0.99143,-0.223574
2945,1,-2,-3,-1,-3,0,-1,-1,-0.845215,-0.431152,0.352539,-0.375,-0.125,0.375,-0.856534,0.99143,-0.223574
2947,-1,0,0,0,-6,-3,-2,-3,-0.839844,-0.416504,0.358398,0.5625,-0.3125,0.6875,-0.856534,0.99143,-0.223574
2947,-1,-3,-2,-1,-2,-1,-1,-1,-0.839844,-0.416504,0.358398,0.5625,-0.3125,0.6875,-0.856534,0.99143,-0.223574
2968,0,-3,-2,-1,5,0,1,1,-0.839844,-0.416504,0.358398,0.5625,-0.3125,0.6875,-0.856534,0.99143,-0.223574
2968,-2,-1,-3,-1,0,-2,0,0,-0.839844,-0.416504,0.358398,0.5625,-0.3125,0.6875,-0.856534,0.99143,-0.223574
2968,0,0,-2,1,-5,-2,0,0,-0.834473,-0.412109,0.361328,0.125,-0.4375,0.4375,-0.856534,0.99143,-0.223574
2968,-2,0,-1,2,3,-3,-3,-1,-0.834473,-0.412109,0.361328,0.125,-0.4375,0.4375,-0.856534,0.99143,-0.223574
2990,-2,-3,-2,0,-4,1,-3,-2,-0.834473,-0.412109,0.361328,0.125,-0.4375,0.4375,-0.856534,0.99143,-0.223574
2990,-1,0,-1,0,-2,1,-1,0,-0.834473,-0.412109,0.361328,0.125,-0.4375,0.4375,-0.856534,0.99143,-0.223574
2991,1,-1,-2,-2,0,0,1,-1,-0.84082,-0.416016,0.36377,-0.5,-0.3125,-0.125,-0.856534,0.99143,-0.223574
2991,0,0,0,0,-5,-1,1,-3,-0.84082,-0.416016,0.36377,-0.5,-0.3125,-0.125,-0.856534,0.99143,-0.223574
3005,-2,-1,-1,-3,-2,-1,-2,0,-0.84082,-0.416016,0.36377,-0.5,-0.3125,-0.125,-0.856534,0.99143,-0.223574
3005,-1,-1,1,-1,7,-1,1,-2,-0.84082,-0.416016,0.36377,-0.5,-0.3125,-0.125,-0.856534,0.99143,-0.223574
3011,-1,-2,0,-1,-4,-4,1,0,-0.849609,-0.419434,0.355957,0.0625,-0.5625,-0.375,-0.856534,0.99143,-0.223574
3011,1,-1,-3,-1,-1,0,0,-1,-0.849609,-0.419434,0.355957,0.0625,-0.5625,-0.375,-0.856534,0.99143,-0.223574
3028,0,-1,-3,2,-3,-2,-2,0,-0.849609,-0.419434,0.355957,0.0625,-0.5625,-0.375,-0.856534,0.99143,-0.223574
3028,0,-1,0,-2,-3,-2,0,-1,-0.849609,-0.419434,0.355957,0.0625,-0.5625,-0.375,-0.856534,0.99143,-0.223574
3029,-2,-2,-1,-2,-3,-1,-2,-1,-0.834961,-0.414062,0.357422,0.1875,-0.75,0.125,-0.856534,0.99143,-0.223574
3029,0,-2,-1,-3,-6,-1,0,-1,-0.834961,-0.414062,0.357422,0.1875,-0.75,0.125,-0.856534,0.99143,-0.223574
3050,-1,0,-1,2,10,3,-1,0,-0.834961,-0.414062,0.357422,0.1875,-0.75,0.125,-0.856534,0.99143,-0.223574
3050,-1,-1,-1,0,-3,-1,-2,-1,-0.834961,-0.414062,0.357422,0.1875,-0.75,0.125,-0.856534,0.99143,-0.223574
3052,-2,-2,0,-1,1,0,0,-1,-0.844727,-0.413574,0.363281,0.5625,-0.25,-0.25,-0.856534,0.99143,-0.223574
3052,-1,-2,0,-2,-6,-2,-2,-1,-0.844727,-0.413574,0.363281,0.5625,-0.25,-0.25,-0.856534,0.99143,-0.223574
3064,-3,-2,0,-2,-4,-3,-2,0,-0.844727,-0.413574,0.363281,0.5625,-0.25,-0.25,-0.856534,0.99143,-0.223574
3064,0,0,-2,1,-3,-2,0,-1,-0.844727,-0.413574,0.363281,0.5625,-0.25,-0.25,-0.856534,0.99143,-0.223574
3071,0,0,-2,-1,0,1,-2,0,-0.852051,-0.416016,0.356934,0.3125,-0.25,-0.375,-0.856534,0.99143,-0.223574
3071,-2,0,-2,-2,4,1,-2,-1,-0.852051,-0.416016,0.356934,0.3125,-0.25,-0.375,-0.856534,0.99143,-0.223574
3088,-1,-1,0,-1,-5,-4,-1,-1,-0.852051,-0.416016,0.356934,0.3125,-0.25,-0.375,-0.856534,0.99143,-0.223574
3088,-2,-1,-1,0,3,9,-1,-4,-0.852051,-0.416016,0.356934,0.3125,-0.25,-0.375,-0.856534,0.99143,-0.223574
3089,0,-1,-2,0,-4,-7,0,-2,-0.84668,-0.419922,0.356445,-0.5,-0.625,0,-0.856631,0.991508,-0.223712
3089,1,-2,-1,-1,0,-1,-1,-1,-0.84668,-0.419922,0.356445,-0.5,-0.625,0,-0.856631,0.991508,-0.223712
3118,2,-1,0,0,-1,-1,-1,-1,-0.84668,-0.419922,0.356445,-0.5,-0.625,0,-0.856631,0.991508,-0.223712
3118,0,-2,-2,-2,-4,-1,-3,-1,-0.84668,-0.419922,0.356445,-0.5,-0.625,0,-0.856631,0.991508,-0.223712
3119,-2,-2,0,1,1,0,0,0,-0.839844,-0.41748,0.361816,-0.5625,-0.375,-0.25,-0.856488,0.991325,-0.223597
3119,-1,-2,0,1,-6,-1,-2,0,-0.839844,-0.41748,0.361816,-0.5625,-0.375,-0.25,-0.856488,0.991325,-0.223597
3124,-1,-2,-1,-3,6,-1,-1,-1,-0.839844,-0.41748,0.361816,-0.5625,-0.375,-0.25,-0.856488,0.991325,-0.223597
3124,0,-1,1,1,-4,-3,0,0,-0.839844,-0.41748,0.361816,-0.5625,-0.375,-0.25,-0.856488,0.991325,-0.223597
3131,0,-1,-2,-1,-2,0,-2,0,-0.842285,-0.415527,0.354492,-0.1875,-0.5625,-0.375,-0.856631,0.991508,-0.223712
3131,-1,-1,-1,2,6,-3,-1,0,-0.842285,-0.415527,0.354492,-0.1875,-0.5625,-0.375,-0.856631,0.991508,-0.223712
3147,0,-1,-2,-1,-7,-1,0,-2,-0.842285,-0.415527,0.354492,-0.1875,-0.5625,-0.375,-0.856631,0.991508,-0.223712
3147,-2,-1,-2,0,1,-6,-4,0,-0.842285,-0.415527,0.354492,-0.1875,-0.5625,-0.375,-0.856631,0.991508,-0.223712
3149,-3,1,0,-1,-3,10,-2,0,-0.837891,-0.412598,0.356934,-0.0625,-0.375,-0.6875,-0.856631,0.991508,-0.223712
3149,-2,1,0,-2,-4,-5,-2,-1,-0.837891,-0.412598,0.356934,-0.0625,-0.375,-0.6875,-0.856631,0.991508,-0.223712
3170,-2,0,1,1,4,-1,0,0,-0.837891,-0.412598,0.356934,-0.0625,-0.375,-0.6875,-0.856631,0.991508,-0.223712
3170,-2,-1,-2,-2,3,-2,0,-2,-0.837891,-0.412598,0.356934,-0.0625,-0.375,-0.6875,-0.856631,0.991508,-0.223712
3171,0,-1,-3,-1,1,-5,0,-3,-0.841797,-0.418457,0.359375,0.875,-0.25,-0.625,-0.856631,0.991508,-0.223712
3171,-1,-2,-2,-2,-2,1,-2,-1,-0.841797,-0.418457,0.359375,0.875,-0.25,-0.625,-0.856631,0.991508,-0.223712
3184,0,-2,0,1,-2,2,-1,-1,-0.841797,-0.418457,0.359375,0.875,-0.25,-0.625,-0.856631,0.991508,-0.223712
3184,0,0,0,1,2,-1,-3,-1,-0.841797,-0.418457,0.359375,0.875,-0.25,-0.625,-0.856631,0.991508,-0.223712
3192,-1,0,-1,-2,-7,-8,-2,-2,-0.847168,-0.415039,0.355469,1.125,-0.1875,-0.25,-0.856507,0.991607,-0.223934
3192,-1,0,0,-2,6,10,3,-1,-0.847168,-0.415039,0.355469,1.125,-0.1875,-0.25,-0.856507,0.991607,-0.223934
3207,0,-2,-2,-2,-3,-3,0,1,-0.847168,-0.415039,0.355469,1.125,-0.1875,-0.25,-0.856507,0.991607,-0.223934
3207,0,-2,0,0,-4,-2,1,1,-0.847168,-0.415039,0.355469,1.125,-0.1875,-0.25,-0.856507,0.991607,-0.223934
3209,-2,-1,0,-1,-1,-5,0,-2,-0.850586,-0.412598,0.348633,-0.9375,-0.3125,-0.3125,-0.856461,0.991502,-0.223957
3209,-2,-3,0,0,-3,-2,0,-2,-0.850586,-0.412598,0.348633,-0.9375,-0.3125,-0.3125,-0.856461,0.991502,-0.223957
3230,-1,-2,-3,-2,-1,3,-1,-2,-0.850586,-0.412598,0.348633,-0.9375,-0.3125,-0.3125,-0.856461,0.991502,-0.223957
3230,-2,0,-2,-1,5,1,1,0,-0.850586,-0.412598,0.348633,-0.9375,-0.3125,-0.3125,-0.856461,0.991502,-0.223957
3232,-2,-2,-1,-1,3,0,0,1,-0.853516,-0.413574,0.355469,-1.8125,-0.1875,-0.25,-0.857207,0.99178,-0.224027
3232,1,-1,-2,-2,-4,-1,1,-2,-0.853516,-0.413574,0.355469,-1.8125,-0.1875,-0.25,-0.857207,0.99178,-0.224027
3244,1,1,2,0,-1,1,0,0,-0.853516,-0.413574,0.355469,-1.8125,-0.1875,-0.25,-0.857207,0.99178,-0.224027
3244,0,0,0,-1,-4,-3,-3,-1,-0.853516,-0.413574,0.355469,-1.8125,-0.1875,-0.25,-0.857207,0.99178,-0.224027
3251,-1,-1,0,1,-3,-3,-3,1,-0.854004,-0.424805,0.350586,0.5,-0.375,-0.0625,-0.857207,0.99178,-0.224027
3251,-2,0,0,-1,-2,-4,-2,0,-0.854004,-0.424805,0.350586,0.5,-0.375,-0.0625,-0.857207,0.99178,-0.224027
3267,-1,0,-3,-1,-2,-4,-3,-3,-0.854004,-0.424805,0.350586,0.5,-0.375,-0.0625,-0.857207,0.99178,-0.224027
3267,-1,-1,-3,0,4,-1,-1,-5,-0.854004,-0.424805,0.350586,0.5,-0.375,-0.0625,-0.857207,0.99178,-0.224027
3269,0,1,-2,1,-4,0,-2,-1,-0.847168,-0.422852,0.351562,3.8125,-0.75,0.125,-0.856254,0.99176,-0.224191
3269,1,0,-2,-4,-4,-3,0,0,-0.847168,-0.422852,0.351562,3.8125,-0.75,0.125,-0.856254,0.99176,-0.224191
3288,-2,-2,-1,-3,1,-2,1,-1,-0.847168,-0.422852,0.351562,3.8125,-0.75,0.125,-0.856254,0.99176,-0.224191
3288,-2,-1,0,-2,-2,1,1,0,-0.847168,-0.422852,0.351562,3.8125,-0.75,0.125,-0.856254,0.99176,-0.224191
3297,1,-4,-2,1,0,-1,1,-2,-0.851074,-0.416504,0.350586,7.125,-0.875,0.0625,-0.853536,0.99179,-0.223878
3297,-1,-1,0,0,2,-1,-2,-1,-0.851074,-0.416504,0.350586,7.125,-0.875,0.0625,-0.853536,0.99179,-0.223878
3305,-1,0,-2,-1,-2,-2,0,0,-0.851074,-0.416504,0.350586,7.125,-0.875,0.0625,-0.853536,0.99179,-0.223878
3305,-1,-1,-2,-2,0,-1,-2,0,-0.851074,-0.416504,0.350586,7.125,-0.875,0.0625,-0.853536,0.99179,-0.223878
3319,-1,-2,-3,-2,-2,-2,-3,0,-0.847656,-0.401367,0.355469,6.25,-1.0625,0.1875,-0.850909,0.991988,-0.223333
3319,-2,0,-2,-2,3,-1,2,-1,-0.847656,-0.401367,0.355469,6.25,-1.0625,0.1875,-0.850909,0.991988,-0.223333
3327,0,0,-1,0,-1,-2,0,0,-0.847656,-0.401367,0.355469,6.25,-1.0625,0.1875,-0.850909,0.991988,-0.223333
3327,0,0,2,-1,-4,-2,0,-2,-0.847656,-0.401367,0.355469,6.25,-1.0625,0.1875,-0.850909,0.991988,-0.223333
3329,-1,2,0,-3,0,-1,-1,0,-0.838379,-0.412109,0.362305,3.5625,-0.875,0.0625,-0.849201,0.991735,-0.222873
3329,0,-1,-1,2,1,-2,-2,0,-0.838379,-0.412109,0.362305,3.5625,-0.875,0.0625,-0.849201,0.991735,-0.222873
3350,0,-3,2,0,-5,0,-4,-2,-0.838379,-0.412109,0.362305,3.5625,-0.875,0.0625,-0.849201,0.991735,-0.222873
3350,0,0,-1,-1,-5,1,1,-2,-0.838379,-0.412109,0.362305,3.5625,-0.875,0.0625,-0.849201,0.991735,-0.222873
3351,0,-2,-2,-3,-2,-1,-1,-3,-0.838379,-0.416992,0.362305,2.4375,-0.625,0.375,-0.847986,0.991587,-0.22241
3351,0,0,-1,-2,7,1,-2,-1,-0.838379,-0.416992,0.362305,2.4375,-0.625,0.375,-0.847986,0.991587,-0.22241
3364,0,0,-2,0,1,-1,1,0,-0.838379,-0.416992,0.362305,2.4375,-0.625,0.375,-0.847986,0.991587,-0.22241
3364,1,-3,-1,-5,5,1,-2,2,-0.838379,-0.416992,0.362305,2.4375,-0.625,0.375,-0.847986,0.991587,-0.22241
3373,1,-2,-3,-4,4,1,-1,-1,-0.838379,-0.415039,0.35791,2.125,-0.375,0.5625,-0.847234,0.991724,-0.222301
3373,-1,-1,-3,-2,-4,-2,-2,-1,-0.838379,-0.415039,0.35791,2.125,-0.375,0.5625,-0.847234,0.991724,-0.222301
3387,-1,-1,-2,-1,-2,-2,-2,1,-0.838379,-0.415039,0.35791,2.125,-0.375,0.5625,-0.847234,0.991724,-0.222301
3387,0,-1,0,2,-4,-6,-1,-1,-0.838379,-0.415039,0.35791,2.125,-0.375,0.5625,-0.847234,0.991724,-0.222301
3388,-2,-1,-1,1,-4,-1,-1,-1,-0.843262,-0.412598,0.359863,1.75,0.125,0.0625,-0.846803,0.991961,-0.222432
3388,-2,-1,-1,4,3,2,0,0,-0.843262,-0.412598,0.359863,1.75,0.125,0.0625,-0.846803,0.991961,-0.222432
3409,-1,-1,-1,2,-2,-1,-1,-1,-0.843262,-0.412598,0.359863,1.75,0.125,0.0625,-0.846803,0.991961,-0.222432
3409,-1,2,-1,1,-2,-4,0,-2,-0.843262,-0.412598,0.359863,1.75,0.125,0.0625,-0.846803,0.991961,-0.222432
3412,0,0,0,1,-1,-1,0,1,-0.84668,-0.409668,0.354492,-0.3125,0.3125,0.25,-0.846803,0.991961,-0.222432
3412,-1,0,-1,0,-3,-3,0,-1,-0.84668,-0.409668,0.354492,-0.3125,0.3125,0.25,-0.846803,0.991961,-0.222432
3424,-1,-1,-1,1,1,1,-3,-1,-0.84668,-0.409668,0.354492,-0.3125,0.3125,0.25,-0.846803,0.991961,-0.222432
3424,-1,-2,-2,-1,-6,1,-2,-1,-0.84668,-0.409668,0.354492,-0.3125,0.3125,0.25,-0.846803,0.991961,-0.222432
3432,-1,-1,-2,1,-7,1,-1,-1,-0.845703,-0.413574,0.348633,-1.1875,0.125,0,-0.84778,0.992174,-0.222972
3432,-1,-1,-1,-3,0,0,-1,-2,-0.845703,-0.413574,0.348633,-1.1875,0.125,0,-0.84778,0.992174,-0.222972
3447,0,-2,-2,-1,-3,1,2,-1,-0.845703,-0.413574,0.348633,-1.1875,0.125,0,-0.84778,0.992174,-0.222972
3447,-1,1,0,0,-2,1,0,-1,-0.845703,-0.413574,0.348633,-1.1875,0.125,0,-0.84778,0.992174,-0.222972
3448,-2,-2,0,-1,-2,-1,0,-1,-0.846191,-0.415039,0.355957,-1.4375,0.3125,0.125,-0.848688,0.992457,-0.223345
3448,0,-1,0,-1,-6,-4,-2,0,-0.846191,-0.415039,0.355957,-1.4375,0.3125,0.125,-0.848688,0.992457,-0.223345
3470,0,-1,-1,-2,0,-2,0,-1,-0.846191,-0.415039,0.355957,-1.4375,0.3125,0.125,-0.848688,0.992457,-0.223345
3470,-1,-1,0,-2,-1,0,0,-2,-0.846191,-0.415039,0.355957,-1.4375,0.3125,0.125,-0.848688,0.992457,-0.223345
3471,-1,1,1,-3,1,-1,-2,-2,-0.858398,-0.424805,0.356445,0,0.5,0,-0.848913,0.992481,-0.223447
3471,0,-1,0,-1,-1,0,0,-1,-0.858398,-0.424805,0.356445,0,0.5,0,-0.848913,0.992481,-0.223447
3484,-2,-2,-2,-2,-5,0,1,0,-0.858398,-0.424805,0.356445,0,0.5,0,-0.848913,0.992481,-0.223447
3484,-1,-1,-1,2,-1,2,-2,-2,-0.858398,-0.424805,0.356445,0,0.5,0,-0.848913,0.992481,-0.223447
3493,0,0,-1,-1,2,1,-2,-1,-0.855957,-0.424805,0.357422,1.625,0.125,0.125,-0.848957,0.99259,-0.223974
3493,0,-2,-2,1,0,-1,-1,-2,-0.855957,-0.424805,0.357422,1.625,0.125,0.125,-0.848957,0.99259,-0.223974
3508,-1,0,-1,-1,-1,-1,0,-2,-0.855957,-0.424805,0.357422,1.625,0.125,0.125,-0.848957,0.99259,-0.223974
3508,0,-2,-2,-3,0,-2,-1,-2,-0.855957,-0.424805,0.357422,1.625,0.125,0.125,-0.848957,0.99259,-0.223974
3509,1,-2,-2,1,-5,-1,-3,-1,-0.849121,-0.413086,0.352051,1.0625,-0.1875,0.5,-0.848663,0.992963,-0.224033
3509,0,1,-1,-1,0,0,0,0,-0.849121,-0.413086,0.352051,1.0625,-0.1875,0.5,-0.848663,0.992963,-0.224033
3529,-2,-2,0,1,6,1,0,1,-0.849121,-0.413086,0.352051,1.0625,-0.1875,0.5,-0.848663,0.992963,-0.224033
3529,-2,0,-1,0,-2,0,0,-1,-0.849121,-0.413086,0.352051,1.0625,-0.1875,0.5,-0.848663,0.992963,-0.224033
3531,-1,-1,-3,-2,2,-1,0,-1,-0.841309,-0.403809,0.351074,-0.375,0.125,0.4375,-0.848663,0.992963,-0.224033
3531,-2,1,-2,-1,-4,-2,-1,-1,-0.841309,-0.403809,0.351074,-0.375,0.125,0.4375,-0.848663,0.992963,-0.224033
3544,1,0,-2,-2,-3,-3,-1,-1,-0.841309,-0.403809,0.351074,-0.375,0.125,0.4375,-0.848663,0.992963,-0.224033
3544,-2,-1,-2,-1,1,-1,-2,1,-0.841309,-0.403809,0.351074,-0.375,0.125,0.4375,-0.848663,0.992963,-0.224033
3552,-3,-1,-1,0,1,1,0,-3,-0.837402,-0.407715,0.356445,-1.1875,0.0625,-0.125,-0.849251,0.993144,-0.224166
3552,-2,-1,1,-1,1,-2,1,-1,-0.837402,-0.407715,0.356445,-1.1875,0.0625,-0.125,-0.849251,0.993144,-0.224166
3569,1,-2,-2,-2,-3,1,2,0,-0.837402,-0.407715,0.356445,-1.1875,0.0625,-0.125,-0.849251,0.993144,-0.224166
3569,0,-2,0,-3,-2,-3,-1,-1,-0.837402,-0.407715,0.356445,-1.1875,0.0625,-0.125,-0.849251,0.993144,-0.224166
3574,1,0,-1,-2,-1,-1,-1,-2,-0.841797,-0.412109,0.36084,-1.4375,0.3125,-0.4375,-0.850106,0.993133,-0.224601
3574,-3,-3,-1,0,0,1,-3,-1,-0.841797,-0.412109,0.36084,-1.4375,0.3125,-0.4375,-0.850106,0.993133,-0.224601
3598,-2,-1,-1,1,-3,-3,-3,0,-0.841797,-0.412109,0.36084,-1.4375,0.3125,-0.4375,-0.850106,0.993133,-0.224601
3598,-1,-1,-2,1,-2,-18,-1,1,-0.841797,-0.412109,0.36084,-1.4375,0.3125,-0.4375,-0.850106,0.993133,-0.224601
3599,-1,0,-2,-1,2,2,2,2,-0.840332,-0.416016,0.359863,0.5625,0.8125,-0.1875,-0.850106,0.993133,-0.224601
3599,-1,0,0,0,0,4,1,-1,-0.840332,-0.416016,0.359863,0.5625,0.8125,-0.1875,-0.850106,0.993133,-0.224601
3603,-2,-1,-2,0,-5,5,-2,-3,-0.840332,-0.416016,0.359863,0.5625,0.8125,-0.1875,-0.850106,0.993133,-0.224601
3603,-1,0,-1,1,-1,7,0,-1,-0.840332,-0.416016,0.359863,0.5625,0.8125,-0.1875,-0.850106,0.993133,-0.224601
3613,1,-1,-1,-1,0,-1,0,1,-0.839844,-0.407227,0.357422,0,1.1875,-0.1875,-0.850513,0.993401,-0.22516
3613,0,0,1,-1,-4,-4,-2,-1,-0.839844,-0.407227,0.357422,0,1.1875,-0.1875,-0.850513,0.993401,-0.22516
3627,-1,1,0,0,-1,-1,-2,-1,-0.839844,-0.407227,0.357422,0,1.1875,-0.1875,-0.850513,0.993401,-0.22516
3627,0,0,1,-1,-1,0,-1,0,-0.839844,-0.407227,0.357422,0,1.1875,-0.1875,-0.850513,0.993401,-0.22516
3629,-1,-2,-1,0,0,-4,-3,-1,-0.845703,-0.406738,0.35498,-0.875,1.1875,-0.8125,-0.851551,0.993634,-0.226051
3629,-1,-1,-1,1,6,0,0,1,-0.845703,-0.406738,0.35498,-0.875,1.1875,-0.8125,-0.851551,0.993634,-0.226051
3650,-1,-3,-2,0,1,-3,-1,-1,-0.845703,-0.406738,0.35498,-0.875,1.1875,-0.8125,-0.851551,0.993634,-0.226051
3650,-1,-2,-2,-4,-5,-3,1,-1,-0.845703,-0.406738,0.35498,-0.875,1.1875,-0.8125,-0.851551,0.993634,-0.226051
3652,-2,-2,-2,-1,-3,-4,-2,0,-0.846191,-0.400391,0.358887,-1.25,1.4375,-0.375,-0.852369,0.994166,-0.22662
3652,1,-2,-2,0,-8,-1,-1,-1,-0.846191,-0.400391,0.358887,-1.25,1.4375,-0.375,-0.852369,0.994166,-0.22662
3664,0,0,-1,-2,1,-3,-2,-1,-0.846191,-0.400391,0.358887,-1.25,1.4375,-0.375,-0.852369,0.994166,-0.22662
3664,-1,0,0,1,0,2,-2,0,-0.846191,-0.400391,0.358887,-1.25,1.4375,-0.375,-0.852369,0.994166,-0.22662
3672,0,0,-2,-3,0,2,2,-1,-0.844727,-0.415039,0.354492,0.625,1.3125,-0.3125,-0.853062,0.994476,-0.227632
3672,-1,-1,-1,-1,2,0,-2,-2,-0.844727,-0.415039,0.354492,0.625,1.3125,-0.3125,-0.853062,0.994476,-0.227632
3688,0,-1,-1,-1,-4,-1,0,-1,-0.844727,-0.415039,0.354492,0.625,1.3125,-0.3125,-0.853062,0.994476,-0.227632
3688,-2,1,-2,-2,1,2,0,-1,-0.844727,-0.415039,0.354492,0.625,1.3125,-0.3125,-0.853062,0.994476,-0.227632
3689,-1,0,0,0,-2,-3,0,-1,-0.852539,-0.418945,0.35498,1.5625,0.9375,-0.1875,-0.85342,0.994776,-0.228584
3689,-1,0,0,-3,-6,-5,0,-1,-0.852539,-0.418945,0.35498,1.5625,0.9375,-0.1875,-0.85342,0.994776,-0.228584
3710,-1,-2,1,-3,-2,-1,1,-1,-0.852539,-0.418945,0.35498,1.5625,0.9375,-0.1875,-0.85342,0.994776,-0.228584
3710,-3,-1,-1,2,-2,1,-1,-1,-0.852539,-0.418945,0.35498,1.5625,0.9375,-0.1875,-0.85342,0.994776,-0.228584
3711,-2,-1,-1,1,-1,-1,-1,-1,-0.853516,-0.404785,0.358398,1.0625,1.0625,-0.25,-0.853344,0.995263,-0.228929
3711,0,-3,-2,-1,-1,2,-1,-1,-0.853516,-0.404785,0.358398,1.0625,1.0625,-0.25,-0.853344,0.995263,-0.228929
3724,-1,-1,0,3,-2,-1,0,-2,-0.853516,-0.404785,0.358398,1.0625,1.0625,-0.25,-0.853344,0.995263,-0.228929
3724,0,0,-2,-1,-1,-1,-1,-1,-0.853516,-0.404785,0.358398,1.0625,1.0625,-0.25,-0.853344,0.995263,-0.228929
3732,-1,-2,-1,1,0,-1,0,0,-0.854004,-0.404297,0.358887,0.5,0.9375,-0.125,-0.853118,0.995239,-0.228826
3732,0,-3,-2,0,-6,-3,0,0,-0.854004,-0.404297,0.358887,0.5,0.9375,-0.125,-0.853118,0.995239,-0.228826
3747,-2,2,2,-1,14,3,-1,0,-0.854004,-0.404297,0.358887,0.5,0.9375,-0.125,-0.853118,0.995239,-0.228826
3747,-2,-1,-2,-2,-1,0,-2,0,-0.854004,-0.404297,0.358887,0.5,0.9375,-0.125,-0.853118,0.995239,-0.228826
3749,0,0,-1,-1,0,-5,-1,-2,-0.845703,-0.416504,0.358398,-0.6875,0.375,0.5625,-0.853344,0.995263,-0.228929
3749,-2,-1,0,0,-1,-6,-4,0,-0.845703,-0.416504,0.358398,-0.6875,0.375,0.5625,-0.853344,0.995263,-0.228929
3770,0,-2,0,-1,1,0,-2,-3,-0.845703,-0.416504,0.358398,-0.6875,0.375,0.5625,-0.853344,0.995263,-0.228929
3770,-1,-2,-2,-3,-1,1,1,-1,-0.845703,-0.416504,0.358398,-0.6875,0.375,0.5625,-0.853344,0.995263,-0.228929
3771,-1,-2,2,0,-1,3,0,-1,-0.84668,-0.41748,0.359863,0.1875,0.4375,0.375,-0.853344,0.995263,-0.228929
3771,-1,0,-3,-1,-4,1,0,-1,-0.84668,-0.41748,0.359863,0.1875,0.4375,0.375,-0.853344,0.995263,-0.228929
3792,-3,-2,-3,-1,-5,0,-1,-1,-0.84668,-0.41748,0.359863,0.1875,0.4375,0.375,-0.853344,0.995263,-0.228929
3792,1,0,-1,-2,-2,0,-1,-1,-0.84668,-0.41748,0.359863,0.1875,0.4375,0.375,-0.853344,0.995263,-0.228929
3794,0,0,1,-3,-5,0,-2,-2,-0.842773,-0.408203,0.359863,1.4375,0.375,0.5,-0.85262,0.995548,-0.22879
3794,1,-1,0,0,2,-2,-1,-2,-0.842773,-0.408203,0.359863,1.4375,0.375,0.5,-0.85262,0.995548,-0.22879
3808,-2,-2,-1,2,6,0,-1,-1,-0.842773,-0.408203,0.359863,1.4375,0.375,0.5,-0.85262,0.995548,-0.22879
3808,-1,-4,0,-2,-2,-1,0,-1,-0.842773,-0.408203,0.359863,1.4375,0.375,0.5,-0.85262,0.995548,-0.22879
3809,0,-1,-1,-1,-6,-3,0,-1,-0.844727,-0.40332,0.360352,0.625,0.4375,0.25,-0.85262,0.995548,-0.22879
3809,-1,0,-1,0,-4,-1,2,-5,-0.844727,-0.40332,0.360352,0.625,0.4375,0.25,-0.85262,0.995548,-0.22879
3830,0,0,-1,-3,0,6,0,-1,-0.844727,-0.40332,0.360352,0.625,0.4375,0.25,-0.85262,0.995548,-0.22879
3830,0,-1,-2,-1,-2,-2,0,-2,-0.844727,-0.40332,0.360352,0.625,0.4375,0.25,-0.85262,0.995548,-0.22879
3832,-2,0,-3,-1,0,-1,-3,-1,-0.847656,-0.409668,0.352051,-0.8125,0.375,0,-0.85262,0.995548,-0.22879
3832,-2,-1,-1,-1,-4,-2,-2,0,-0.847656,-0.409668,0.352051,-0.8125,0.375,0,-0.85262,0.995548,-0.22879
3852,-2,-2,-2,-2,-7,-4,-3,-1,-0.847656,-0.409668,0.352051,-0.8125,0.375,0,-0.85262,0.995548,-0.22879
3852,-2,0,-2,0,1,0,-1,0,-0.847656,-0.409668,0.352051,-0.8125,0.375,0,-0.85262,0.995548,-0.22879
3854,-2,0,-3,0,-1,0,-1,-1,-0.842285,-0.415039,0.358887,-0.4375,0.375,0.0625,-0.85262,0.995548,-0.22879
3854,-2,-1,-2,-1,0,-1,-1,1,-0.842285,-0.415039,0.358887,-0.4375,0.375,0.0625,-0.85262,0.995548,-0.22879
3875,0,0,0,0,-2,-4,-1,-1,-0.842285,-0.415039,0.358887,-0.4375,0.375,0.0625,-0.85262,0.995548,-0.22879
3875,-2,-1,0,1,0,0,-3,0,-0.842285,-0.415039,0.358887,-0.4375,0.375,0.0625,-0.85262,0.995548,-0.22879
3876,-1,-2,-1,0,-2,0,-1,0,-0.850098,-0.416504,0.36377,0.5625,0.4375,0.125,-0.85262,0.995548,-0.22879
3876,-1,0,-1,1,3,2,0,-1,-0.850098,-0.416504,0.36377,0.5625,0.4375,0.125,-0.85262,0.995548,-0.22879
3891,-2,-2,-1,-4,0,-3,-1,-3,-0.850098,-0.416504,0.36377,0.5625,0.4375,0.125,-0.85262,0.995548,-0.22879
3891,1,0,-1,-2,-1,0,0,0,-0.850098,-0.416504,0.36377,0.5625,0.4375,0.125,-0.85262,0.995548,-0.22879
3892,-1,-1,-1,-1,-3,-2,0,-1,-0.856934,-0.416504,0.359863,1.3125,0.4375,0.1875,-0.852446,0.995958,-0.228996
3892,-2,-1,-1,-1,-1,0,-1,0,-0.856934,-0.416504,0.359863,1.3125,0.4375,0.1875,-0.852446,0.995958,-0.228996
3913,1,-1,-2,-1,-1,-4,1,-1,-0.856934,-0.416504,0.359863,1.3125,0.4375,0.1875,-0.852446,0.995958,-0.228996
3913,0,-1,-1,-1,-3,-2,-2,-2,-0.856934,-0.416504,0.359863,1.3125,0.4375,0.1875,-0.852446,0.995958,-0.228996
3914,0,-2,-1,-2,4,-1,-1,-3,-0.846191,-0.413574,0.354492,0.875,-0.1875,0.1875,-0.8524,0.995852,-0.229019
3914,1,-1,0,-3,-3,-2,-3,-2,-0.846191,-0.413574,0.354492,0.875,-0.1875,0.1875,-0.8524,0.995852,-0.229019
3927,-1,-2,-3,-2,-6,-4,-3,-1,-0.846191,-0.413574,0.354492,0.875,-0.1875,0.1875,-0.8524,0.995852,-0.229019
3927,-2,-2,-2,-3,-1,3,-3,-1,-0.846191,-0.413574,0.354492,0.875,-0.1875,0.1875,-0.8524,0.995852,-0.229019
3934,-1,0,0,0,4,2,0,0,-0.845703,-0.410156,0.359375,0,-0.25,0,-0.8524,0.995852,-0.229019
3934,-2,-1,-1,0,0,2,-1,-2,-0.845703,-0.410156,0.359375,0,-0.25,0,-0.8524,0.995852,-0.229019
3950,-2,-1,-1,2,-2,-1,-1,-2,-0.845703,-0.410156,0.359375,0,-0.25,0,-0.8524,0.995852,-0.229019
3950,1,2,-2,0,-2,-3,0,-2,-0.845703,-0.410156,0.359375,0,-0.25,0,-0.8524,0.995852,-0.229019
3952,-2,0,0,1,5,0,-1,-2,-0.844238,-0.405762,0.35498,0.1875,-0.1875,-0.375,-0.8524,0.995852,-0.229019
3952,-1,1,-1,-2,-2,-4,-1,0,-0.844238,-0.405762,0.35498,0.1875,-0.1875,-0.375,-0.8524,0.995852,-0.229019
3972,-1,0,1,-3,-3,-2,-2,0,-0.844238,-0.405762,0.35498,0.1875,-0.1875,-0.375,-0.8524,0.995852,-0.229019
3972,-2,-1,0,-2,-7,-1,2,1,-0.844238,-0.405762,0.35498,0.1875,-0.1875,-0.375,-0.8524,0.995852,-0.229019
3974,-4,-2,-3,0,3,0,0,-3,-0.847656,-0.42041,0.362305,0.8125,-0.4375,-0.625,-0.8524,0.995852,-0.229019
3974,-2,0,1,1,-1,-2,-3,-1,-0.847656,-0.42041,0.362305,0.8125,-0.4375,-0.625,-0.8524,0.995852,-0.229019
3986,-1,-1,-1,3,3,1,-1,-1,-0.847656,-0.42041,0.362305,0.8125,-0.4375,-0.625,-0.8524,0.995852,-0.229019
3986,0,-4,0,0,-1,-2,1,-2,-0.847656,-0.42041,0.362305,0.8125,-0.4375,-0.625,-0.8524,0.995852,-0.229019
3994,-1,-2,1,-3,-2,-3,-1,-1,-0.842285,-0.414551,0.363281,0.8125,-0.1875,-0.4375,-0.8524,0.995852,-0.229019
3994,0,-3,0,-3,1,-1,-1,-1,-0.842285,-0.414551,0.363281,0.8125,-0.1875,-0.4375,-0.8524,0.995852,-0.229019
4010,-1,0,-1,-4,-7,-3,-1,-1,-0.842285,-0.414551,0.363281,0.8125,-0.1875,-0.4375,-0.8524,0.995852,-0.229019
4010,0,-1,1,-1,2,1,2,-1,-0.842285,-0.414551,0.363281,0.8125,-0.1875,-0.4375,-0.8524,0.995852,-0.229019
4012,-2,-2,-1,0,-1,-1,-1,0,-0.845703,-0.416016,0.36377,2.5625,-0.0625,-1,-0.851979,0.995404,-0.229596
4012,-1,-2,-1,0,9,0,-1,-1,-0.845703,-0.416016,0.36377,2.5625,-0.0625,-1,-0.851979,0.995404,-0.229596
4033,-1,1,0,0,-3,-4,-3,-1,-0.845703,-0.416016,0.36377,2.5625,-0.0625,-1,-0.851979,0.995404,-0.229596
4033,1,0,0,0,1,2,-1,-2,-0.845703,-0.416016,0.36377,2.5625,-0.0625,-1,-0.851979,0.995404,-0.229596
4034,0,0,-2,-3,-7,-4,0,-1,-0.843262,-0.410156,0.363281,1.375,-0.125,-1,-0.851459,0.995154,-0.229627
4034,-1,-2,-2,-2,10,2,0,0,-0.843262,-0.410156,0.363281,1.375,-0.125,-1,-0.851459,0.995154,-0.229627
4047,0,-1,-1,0,-1,0,-2,1,-0.843262,-0.410156,0.363281,1.375,-0.125,-1,-0.851459,0.995154,-0.229627
4047,-2,-2,-3,-1,2,0,-3,-2,-0.843262,-0.410156,0.363281,1.375,-0.125,-1,-0.851459,0.995154,-0.229627
4053,1,-1,1,0,-6,0,-3,0,-0.845703,-0.413086,0.360352,0.5625,0.1875,-1.5,-0.852081,0.994935,-0.230547
4053,-3,-2,-2,0,-5,-1,1,0,-0.845703,-0.413086,0.360352,0.5625,0.1875,-1.5,-0.852081,0.994935,-0.230547
4070,-1,1,-1,-3,0,-1,2,-1,-0.845703,-0.413086,0.360352,0.5625,0.1875,-1.5,-0.852081,0.994935,-0.230547
4070,-2,2,1,-1,-8,-2,0,-2,-0.845703,-0.413086,0.360352,0.5625,0.1875,-1.5,-0.852081,0.994935,-0.230547
4071,-1,0,0,-3,2,1,-2,-2,-0.845215,-0.425781,0.367676,0.875,0.25,-1.875,-0.852679,0.994157,-0.231533
4071,-2,-2,-1,-1,-1,-1,-1,-1,-0.845215,-0.425781,0.367676,0.875,0.25,-1.875,-0.852679,0.994157,-0.231533
4093,-1,-1,-2,-2,0,0,-2,-1,-0.845215,-0.425781,0.367676,0.875,0.25,-1.875,-0.852679,0.994157,-0.231533
4093,0,1,-1,0,-5,-4,-2,1,-0.845215,-0.425781,0.367676,0.875,0.25,-1.875,-0.852679,0.994157,-0.231533
4094,-1,-1,-1,-2,-3,-2,-3,-1,-0.847168,-0.433105,0.365234,2.75,0.0625,-2.375,-0.853068,0.99332,-0.232972
4094,0,0,0,1,-2,0,0,1,-0.847168,-0.433105,0.365234,2.75,0.0625,-2.375,-0.853068,0.99332,-0.232972
4106,-2,0,-1,-3,0,-2,0,0,-0.842773,-0.432129,0.374512,4.875,0,-2.8125,-0.852235,0.992023,-0.234161
4106,-2,-3,-2,0,10,-1,-3,-2,-0.842773,-0.432129,0.374512,4.875,0,-2.8125,-0.852235,0.992023,-0.234161
4114,-1,-1,-1,-1,-6,0,1,0,-0.842773,-0.432129,0.374512,4.875,0,-2.8125,-0.852235,0.992023,-0.234161
4114,0,0,-1,0,-5,-1,-1,-1,-0.842773,-0.432129,0.374512,4.875,0,-2.8125,-0.852235,0.992023,-0.234161
4130,0,-2,1,1,-1,-1,1,-1,-0.847656,-0.413086,0.371582,4.9375,0.0625,-3.25,-0.851542,0.991323,-0.235431
4130,0,0,1,-2,-4,-2,-2,-2,-0.847656,-0.413086,0.371582,4.9375,0.0625,-3.25,-0.851542,0.991323,-0.235431
4132,0,-2,-2,0,2,-2,-2,-1,-0.847656,-0.413086,0.371582,4.9375,0.0625,-3.25,-0.851542,0.991323,-0.235431
4132,-1,-2,-1,0,-10,-2,-3,-2,-0.847656,-0.413086,0.371582,4.9375,0.0625,-3.25,-0.851542,0.991323,-0.235431
4152,1,-2,-2,2,11,2,1,-1,-0.847656,-0.423828,0.370605,4.125,-0.5,-4.25,-0.851242,0.989919,-0.236811
4152,-2,-1,-1,0,-1,1,0,-1,-0.847656,-0.423828,0.370605,4.125,-0.5,-4.25,-0.851242,0.989919,-0.236811
4153,1,0,1,1,1,-3,-1,0,-0.847656,-0.423828,0.370605,4.125,-0.5,-4.25,-0.851242,0.989919,-0.236811
4153,-1,2,-1,-2,-6,-4,0,0,-0.847656,-0.423828,0.370605,4.125,-0.5,-4.25,-0.851242,0.989919,-0.236811
4167,-2,0,-1,-2,-8,1,1,1,-0.838379,-0.437012,0.374512,3.625,-1,-4.3125,-0.851296,0.988075,-0.238292
4167,-1,-2,-2,-1,6,0,0,-1,-0.838379,-0.437012,0.374512,3.625,-1,-4.3125,-0.851296,0.988075,-0.238292
4174,-1,0,-1,0,-2,-1,0,-2,-0.838379,-0.437012,0.374512,3.625,-1,-4.3125,-0.851296,0.988075,-0.238292
4174,0,-2,0,-1,3,-1,-2,-2,-0.838379,-0.437012,0.374512,3.625,-1,-4.3125,-0.851296,0.988075,-0.238292
4189,1,-1,-1,-2,-5,-2,-3,0,-0.839844,-0.429688,0.379883,4,-0.9375,-4.5,-0.851047,0.986372,-0.239683
4189,-1,-4,-3,-4,-3,0,-1,-1,-0.839844,-0.429688,0.379883,4,-0.9375,-4.5,-0.851047,0.986372,-0.239683
4191,-2,-1,-1,-1,0,0,1,0,-0.839844,-0.429688,0.379883,4,-0.9375,-4.5,-0.851047,0.986372,-0.239683
4191,-1,0,-2,-1,1,-1,-2,-1,-0.839844,-0.429688,0.379883,4,-0.9375,-4.5,-0.851047,0.986372,-0.239683
4212,-2,-1,-1,-2,-3,-11,-2,0,-0.833008,-0.416992,0.38623,-1.125,-1.625,-4.4375,-0.851589,0.984483,-0.240235
4212,1,1,0,-2,0,31,1,-1,-0.833008,-0.416992,0.38623,-1.125,-1.625,-4.4375,-0.851589,0.984483,-0.240235
4212,-2,-1,-1,-2,-3,-5,-4,-1,-0.833008,-0.416992,0.38623,-1.125,-1.625,-4.4375,-0.851589,0.984483,-0.240235
4212,-2,-1,-1,0,4,0,0,-1,-0.833008,-0.416992,0.38623,-1.125,-1.625,-4.4375,-0.851589,0.984483,-0.240235
4226,0,0,-4,-1,-4,-1,-2,-1,-0.834473,-0.428223,0.395508,-7.9375,-2.125,-4.625,-0.854284,0.982224,-0.240368
4226,0,1,-3,2,6,-12,-1,0,-0.834473,-0.428223,0.395508,-7.9375,-2.125,-4.625,-0.854284,0.982224,-0.240368
4235,1,-1,-3,-3,-7,1,0,-2,-0.834473,-0.428223,0.395508,-7.9375,-2.125,-4.625,-0.854284,0.982224,-0.240368
4235,-2,0,-2,-2,-4,1,0,-1,-0.834473,-0.428223,0.395508,-7.9375,-2.125,-4.625,-0.854284,0.982224,-0.240368
4249,-1,0,0,0,-10,-2,0,-3,-0.83252,-0.442383,0.402832,-16.375,-2,-5.25,-0.860254,0.979641,-0.240935
4249,-2,-1,-1,-1,-2,-10,-5,-3,-0.83252,-0.442383,0.402832,-16.375,-2,-5.25,-0.860254,0.979641,-0.240935
4250,0,-1,-2,0,0,-2,3,0,-0.83252,-0.442383,0.402832,-16.375,-2,-5.25,-0.860254,0.979641,-0.240935
4250,1,-1,0,1,17,25,1,1,-0.83252,-0.442383,0.402832,-16.375,-2,-5.25,-0.860254,0.979641,-0.240935
4272,-2,-1,0,0,0,-6,-1,-2,-0.82373,-0.46582,0.415039,-18.9375,-2.25,-6.125,-0.867526,0.976212,-0.241976
4272,1,-1,-1,0,-11,-8,-3,0,-0.82373,-0.46582,0.415039,-18.9375,-2.25,-6.125,-0.867526,0.976212,-0.241976
4273,-2,-2,2,-2,-2,-6,-5,-1,-0.82373,-0.46582,0.415039,-18.9375,-2.25,-6.125,-0.867526,0.976212,-0.241976
4273,1,-2,-3,-4,-6,-13,-1,-2,-0.82373,-0.46582,0.415039,-18.9375,-2.25,-6.125,-0.867526,0.976212,-0.241976
4294,-1,0,-1,1,9,6,-1,-2,-0.844727,-0.477539,0.407227,-17.5,-3.375,-8,-0.874494,0.972187,-0.243138
4294,-1,-1,0,0,-3,-4,0,0,-0.844727,-0.477539,0.407227,-17.5,-3.375,-8,-0.874494,0.972187,-0.243138
4295,-1,-2,-4,0,2,-5,-4,-1,-0.844727,-0.477539,0.407227,-17.5,-3.375,-8,-0.874494,0.972187,-0.243138
4295,1,0,-2,-6,-9,-8,-5,-1,-0.844727,-0.477539,0.407227,-17.5,-3.375,-8,-0.874494,0.972187,-0.243138
4309,-3,-1,-2,-2,3,9,2,1,-0.843262,-0.496094,0.40332,-13.75,-5.625,-9.5625,-0.880365,0.967236,-0.244553
4309,0,-3,-1,-1,8,-9,0,-2,-0.843262,-0.496094,0.40332,-13.75,-5.625,-9.5625,-0.880365,0.967236,-0.244553
4309,-2,0,-2,-2,1,23,7,-1,-0.843262,-0.496094,0.40332,-13.75,-5.625,-9.5625,-0.880365,0.967236,-0.244553
4309,0,-1,1,-2,-2,-30,-1,0,-0.843262,-0.496094,0.40332,-13.75,-5.625,-9.5625,-0.880365,0.967236,-0.244553
4332,-1,-1,2,1,-8,-6,-7,-1,-0.834961,-0.496094,0.428711,-12.125,-7.25,-11.3125,-0.884488,0.961063,-0.244698
4332,1,1,-1,-1,-4,0,4,1,-0.834961,-0.496094,0.428711,-12.125,-7.25,-11.3125,-0.884488,0.961063,-0.244698
4332,-2,-1,0,2,-1,-5,-2,-1,-0.834961,-0.496094,0.428711,-12.125,-7.25,-11.3125,-0.884488,0.961063,-0.244698
4332,-1,-1,-1,-2,-4,8,2,-1,-0.834961,-0.496094,0.428711,-12.125,-7.25,-11.3125,-0.884488,0.961063,-0.244698
4354,-1,-1,-1,1,-7,0,-4,0,-0.832031,-0.526855,0.449707,-10.375,-8.75,-13.75,-0.888342,0.953333,-0.245375
4354,-1,-1,0,1,0,2,-1,-1,-0.832031,-0.526855,0.449707,-10.375,-8.75,-13.75,-0.888342,0.953333,-0.245375
4354,-1,1,0,2,8,-7,-6,-2,-0.832031,-0.526855,0.449707,-10.375,-8.75,-13.75,-0.888342,0.953333,-0.245375
4354,-2,1,-1,5,12,34,7,0,-0.832031,-0.526855,0.449707,-10.375,-8.75,-13.75,-0.888342,0.953333,-0.245375
4369,0,-2,-2,-1,-10,8,2,-3,-0.84082,-0.564453,0.455078,-0.4375,-12.375,-18.4375,-0.889665,0.943396,-0.246627
4369,0,-2,-2,0,17,4,-4,-2,-0.84082,-0.564453,0.455078,-0.4375,-12.375,-18.4375,-0.889665,0.943396,-0.246627
4369,-1,-2,-3,-4,-1,-3,-1,1,-0.84082,-0.564453,0.455078,-0.4375,-12.375,-18.4375,-0.889665,0.943396,-0.246627
4369,-2,-2,-1,-1,-3,-9,-5,2,-0.84082,-0.564453,0.455078,-0.4375,-12.375,-18.4375,-0.889665,0.943396,-0.246627
4392,1,-2,1,-2,2,3,0,0,-0.84375,-0.555176,0.465332,16.125,-16,-20.5625,-0.883844,0.932405,-0.246647
4392,1,-2,0,3,-1,4,-2,0,-0.84375,-0.555176,0.465332,16.125,-16,-20.5625,-0.883844,0.932405,-0.246647
4392,0,1,0,-4,-2,0,0,-3,-0.84375,-0.555176,0.465332,16.125,-16,-20.5625,-0.883844,0.932405,-0.246647
4392,-2,-1,-2,0,2,-2,0,-2,-0.84375,-0.555176,0.465332,16.125,-16,-20.5625,-0.883844,0.932405,-0.246647
4414,-2,-1,-1,-3,5,-1,0,-1,-0.839355,-0.513672,0.48584,23.6875,-18.4375,-20.5625,-0.873345,0.92139,-0.244701
4414,-3,-1,-2,-4,-8,-7,0,-2,-0.839355,-0.513672,0.48584,23.6875,-18.4375,-20.5625,-0.873345,0.92139,-0.244701
4415,0,0,-1,-1,-1,-5,-2,0,-0.839355,-0.513672,0.48584,23.6875,-18.4375,-20.5625,-0.873345,0.92139,-0.244701
4415,-3,-3,-3,-1,-5,-4,-5,-4,-0.839355,-0.513672,0.48584,23.6875,-18.4375,-20.5625,-0.873345,0.92139,-0.244701
4429,-2,-1,-1,1,0,-4,-1,-2,-0.814453,-0.536133,0.511719,24.9375,-23.0625,-24.5625,-0.862281,0.907676,-0.242352
4429,-1,0,0,-1,-8,-7,-4,-3,-0.814453,-0.536133,0.511719,24.9375,-23.0625,-24.5625,-0.862281,0.907676,-0.242352
4430,0,-1,0,2,3,9,2,0,-0.814453,-0.536133,0.511719,24.9375,-23.0625,-24.5625,-0.862281,0.907676,-0.242352
4430,-1,-1,-1,-2,-7,-3,-2,-1,-0.814453,-0.536133,0.511719,24.9375,-23.0625,-24.5625,-0.862281,0.907676,-0.242352
4452,2,-1,-1,-1,0,-19,2,0,-0.822266,-0.558105,0.529297,37.625,-27.25,-30.3125,-0.847809,0.891415,-0.241227
4452,-2,0,1,-1,-14,1,0,-1,-0.822266,-0.558105,0.529297,37.625,-27.25,-30.3125,-0.847809,0.891415,-0.241227
4452,-1,-2,1,-2,-2,3,-2,-4,-0.822266,-0.558105,0.529297,37.625,-27.25,-30.3125,-0.847809,0.891415,-0.241227
4452,1,1,1,2,13,4,5,-1,-0.822266,-0.558105,0.529297,37.625,-27.25,-30.3125,-0.847809,0.891415,-0.241227
4474,0,-1,-2,-4,-12,-2,-2,-1,-0.827637,-0.529785,0.540039,57.9375,-31.8125,-31.1875,-0.825023,0.874794,-0.238653
4474,-1,-3,-2,-3,-13,-10,1,2,-0.827637,-0.529785,0.540039,57.9375,-31.8125,-31.1875,-0.825023,0.874794,-0.238653
4481,0,-1,-1,-1,-4,-3,-1,2,-0.827637,-0.529785,0.540039,57.9375,-31.8125,-31.1875,-0.825023,0.874794,-0.238653
4481,-1,-3,-1,1,2,-2,-1,0,-0.827637,-0.529785,0.540039,57.9375,-31.8125,-31.1875,-0.825023,0.874794,-0.238653
4489,-4,-2,-2,-1,2,-7,-6,-1,-0.806152,-0.505371,0.564453,66.125,-36.25,-29.8125,-0.797533,0.857393,-0.233958
4489,-2,-1,-1,0,-3,4,-3,-4,-0.806152,-0.505371,0.564453,66.125,-36.25,-29.8125,-0.797533,0.857393,-0.233958
4490,1,-2,0,1,-2,2,10,1,-0.806152,-0.505371,0.564453,66.125,-36.25,-29.8125,-0.797533,0.857393,-0.233958
4490,0,-3,-1,-1,-10,-3,-6,-1,-0.806152,-0.505371,0.564453,66.125,-36.25,-29.8125,-0.797533,0.857393,-0.233958
4512,0,0,-1,1,4,2,0,-3,-0.802734,-0.443848,0.611328,74.6875,-39.75,-32.6875,-0.765652,0.839068,-0.228586
4512,-1,1,-2,1,-1,-1,-2,-1,-0.802734,-0.443848,0.611328,74.6875,-39.75,-32.6875,-0.765652,0.839068,-0.228586
4513,-2,0,-1,2,6,-2,-1,-1,-0.802734,-0.443848,0.611328,74.6875,-39.75,-32.6875,-0.765652,0.839068,-0.228586
4513,0,0,-2,0,-7,-3,0,-2,-0.802734,-0.443848,0.611328,74.6875,-39.75,-32.6875,-0.765652,0.839068,-0.228586
4534,0,-1,-1,1,-1,-1,-2,-2,-0.802734,-0.463867,0.604492,83.9375,-48.875,-36.4375,-0.731673,0.817733,-0.223555
4534,-1,-1,-1,-2,-4,-4,0,-1,-0.802734,-0.463867,0.604492,83.9375,-48.875,-36.4375,-0.731673,0.817733,-0.223555
4534,-2,-2,-2,-1,13,-9,-11,-5,-0.802734,-0.463867,0.604492,83.9375,-48.875,-36.4375,-0.731673,0.817733,-0.223555
4534,2,1,1,-3,3,-4,7,2,-0.802734,-0.463867,0.604492,83.9375,-48.875,-36.4375,-0.731673,0.817733,-0.223555
4549,1,0,-2,0,3,6,4,0,-0.757812,-0.446289,0.648926,99.9375,-55.4375,-36.0625,-0.691096,0.794185,-0.217338
4549,-1,0,0,1,1,0,1,-1,-0.757812,-0.446289,0.648926,99.9375,-55.4375,-36.0625,-0.691096,0.794185,-0.217338
4550,0,0,-1,-1,-14,-6,-1,-1,-0.757812,-0.446289,0.648926,99.9375,-55.4375,-36.0625,-0.691096,0.794185,-0.217338
4550,-2,-2,0,-3,-20,-28,-17,-5,-0.757812,-0.446289,0.648926,99.9375,-55.4375,-36.0625,-0.691096,0.794185,-0.217338
4571,-2,-3,-3,3,19,-1,10,1,-0.739258,-0.383789,0.645996,106.625,-59.5,-30.75,-0.648767,0.771325,-0.210503
4571,2,-1,-1,1,9,2,13,4,-0.739258,-0.383789,0.645996,106.625,-59.5,-30.75,-0.648767,0.771325,-0.210503
4572,0,-2,-4,-3,-1,6,2,3,-0.739258,-0.383789,0.645996,106.625,-59.5,-30.75,-0.648767,0.771325,-0.210503
4572,-2,1,-1,3,4,15,-6,-2,-0.739258,-0.383789,0.645996,106.625,-59.5,-30.75,-0.648767,0.771325,-0.210503
4594,-1,-1,-1,-5,-8,9,3,-1,-0.728516,-0.356445,0.666016,106.5,-64.5625,-29.6875,-0.606335,0.747217,-0.203405
4594,10,0,-1,-2,4,-2,-4,-1,-0.728516,-0.356445,0.666016,106.5,-64.5625,-29.6875,-0.606335,0.747217,-0.203405
4594,-1,1,3,2,1,20,16,3,-0.728516,-0.356445,0.666016,106.5,-64.5625,-29.6875,-0.606335,0.747217,-0.203405
4594,-5,-4,-2,-6,-16,-9,-26,-10,-0.728516,-0.356445,0.666016,106.5,-64.5625,-29.6875,-0.606335,0.747217,-0.203405
4609,0,3,2,-3,1,6,4,3,-0.708984,-0.35498,0.656738,102.75,-70.125,-31.125,-0.565958,0.721036,-0.197046
4609,-3,-1,-1,-3,-1,-5,-7,-5,-0.708984,-0.35498,0.656738,102.75,-70.125,-31.125,-0.565958,0.721036,-0.197046
4610,0,-2,-1,-3,-11,-16,-28,-8,-0.708984,-0.35498,0.656738,102.75,-70.125,-31.125,-0.565958,0.721036,-0.197046
4610,1,-2,-3,1,9,11,14,1,-0.708984,-0.35498,0.656738,102.75,-70.125,-31.125,-0.565958,0.721036,-0.197046
4632,2,-2,-1,1,-4,12,-12,-4,-0.714355,-0.391113,0.657715,113.125,-72.375,-36.25,-0.524581,0.693315,-0.194039
4632,-4,-3,-4,-6,-10,-2,-13,-4,-0.714355,-0.391113,0.657715,113.125,-72.375,-36.25,-0.524581,0.693315,-0.194039
4633,-1,1,-3,-4,-3,-1,-5,-3,-0.714355,-0.391113,0.657715,113.125,-72.375,-36.25,-0.524581,0.693315,-0.194039
4633,-2,-2,-1,0,0,8,1,1,-0.714355,-0.391113,0.657715,113.125,-72.375,-36.25,-0.524581,0.693315,-0.194039
4654,-1,0,-1,0,-6,-4,-13,-2,-0.723633,-0.375,0.686035,147.312,-72.25,-34.1875,-0.471905,0.665937,-0.192018
4654,0,0,-1,1,5,6,-5,0,-0.723633,-0.375,0.686035,147.312,-72.25,-34.1875,-0.471905,0.665937,-0.192018
4655,-15,-3,-1,4,3,-12,-4,-2,-0.723633,-0.375,0.686035,147.312,-72.25,-34.1875,-0.471905,0.665937,-0.192018
4655,-6,-1,-3,-2,7,-5,21,9,-0.723633,-0.375,0.686035,147.312,-72.25,-34.1875,-0.471905,0.665937,-0.192018
4669,2,0,1,0,-2,-7,-11,1,-0.680176,-0.301758,0.664551,174.375,-70.6875,-23.375,-0.408889,0.640928,-0.188271
4669,-2,-9,-12,-2,10,3,26,1,-0.680176,-0.301758,0.664551,174.375,-70.6875,-23.375,-0.408889,0.640928,-0.188271
4670,4,4,1,-1,-3,-5,0,0,-0.680176,-0.301758,0.664551,174.375,-70.6875,-23.375,-0.408889,0.640928,-0.188271
4670,-7,5,4,0,-3,-5,-10,-4,-0.680176,-0.301758,0.664551,174.375,-70.6875,-23.375,-0.408889,0.640928,-0.188271
4691,-3,-8,-7,0,12,27,35,2,-0.655762,-0.217773,0.645996,183.688,-66.5,-19,-0.342926,0.617767,-0.185211
4691,-5,3,3,1,-1,-9,-21,-4,-0.655762,-0.217773,0.645996,183.688,-66.5,-19,-0.342926,0.617767,-0.185211
4692,11,0,-1,6,18,31,52,13,-0.655762,-0.217773,0.645996,183.688,-66.5,-19,-0.342926,0.617767,-0.185211
4692,-5,-2,2,3,7,16,13,-9,-0.655762,-0.217773,0.645996,183.688,-66.5,-19,-0.342926,0.617767,-0.185211
4714,6,-2,1,-1,-6,-3,-14,14,-0.615723,-0.213379,0.595215,182.625,-58.375,-16.8125,-0.279037,0.597485,-0.184676
4714,4,6,7,3,-3,1,-3,-4,-0.615723,-0.213379,0.595215,182.625,-58.375,-16.8125,-0.279037,0.597485,-0.184676
4715,2,-3,-4,-5,-5,-4,-6,-2,-0.615723,-0.213379,0.595215,182.625,-58.375,-16.8125,-0.279037,0.597485,-0.184676
4715,5,4,2,0,-6,-8,-20,-3,-0.615723,-0.213379,0.595215,182.625,-58.375,-16.8125,-0.279037,0.597485,-0.184676
4728,-1,-1,-3,-5,1,-1,7,-2,-0.616211,-0.281738,0.61377,195.312,-48.5625,-14.875,-0.212553,0.580721,-0.186362
4728,-11,-4,-2,-1,-5,12,-5,-3,-0.616211,-0.281738,0.61377,195.312,-48.5625,-14.875,-0.212553,0.580721,-0.186362
4730,-5,-7,-7,-3,2,5,23,3,-0.616211,-0.281738,0.61377,195.312,-48.5625,-14.875,-0.212553,0.580721,-0.186362
4730,10,1,-1,-2,-1,-7,-10,3,-0.616211,-0.281738,0.61377,195.312,-48.5625,-14.875,-0.212553,0.580721,-0.186362
4752,0,-7,-5,-6,-2,0,8,2,-0.594727,-0.208496,0.663086,229.125,-42.75,2.375,-0.13125,0.566945,-0.182746
4752,-7,-4,-2,-3,5,11,8,-13,-0.594727,-0.208496,0.663086,229.125,-42.75,2.375,-0.13125,0.566945,-0.182746
4752,-13,4,2,-5,-19,-19,-41,-4,-0.594727,-0.208496,0.663086,229.125,-42.75,2.375,-0.13125,0.566945,-0.182746
4752,-5,-4,-3,-1,4,14,14,-10,-0.594727,-0.208496,0.663086,229.125,-42.75,2.375,-0.13125,0.566945,-0.182746
4774,4,-5,-5,2,6,19,-2,21,-0.547852,-0.00732422,0.599121,230.938,-39.3125,14.75,-0.0465504,0.554722,-0.175167
4774,38,5,0,3,5,35,14,11,-0.547852,-0.00732422,0.599121,230.938,-39.3125,14.75,-0.0465504,0.554722,-0.175167
4775,-24,-4,0,-1,2,-9,-2,2,-0.547852,-0.00732422,0.599121,230.938,-39.3125,14.75,-0.0465504,0.554722,-0.175167
4775,12,1,-3,7,7,-10,0,24,-0.547852,-0.00732422,0.599121,230.938,-39.3125,14.75,-0.0465504,0.554722,-0.175167
4789,-15,5,1,-3,-12,-50,-28,-28,-0.568848,0.081543,0.574707,203.062,-34.25,15.6875,0.0282102,0.543971,-0.16839
4789,-6,5,4,4,3,-17,5,13,-0.568848,0.081543,0.574707,203.062,-34.25,15.6875,0.0282102,0.543971,-0.16839
4790,20,1,1,0,-1,-3,-2,8,-0.568848,0.081543,0.574707,203.062,-34.25,15.6875,0.0282102,0.543971,-0.16839
4790,1,1,1,1,0,16,0,-8,-0.568848,0.081543,0.574707,203.062,-34.25,15.6875,0.0282102,0.543971,-0.16839
4820,-2,1,4,1,1,8,6,2,-0.55957,0.0908203,0.564453,182.438,-32.125,15.9375,0.095103,0.533509,-0.162503
4820,-1,-3,-3,-3,-4,3,1,-4,-0.55957,0.0908203,0.564453,182.438,-32.125,15.9375,0.095103,0.533509,-0.162503
4820,20,1,-4,-3,-9,-6,-10,-8,-0.55957,0.0908203,0.564453,182.438,-32.125,15.9375,0.095103,0.533509,-0.162503
4820,-13,0,0,2,-11,-16,-7,-13,-0.55957,0.0908203,0.564453,182.438,-32.125,15.9375,0.095103,0.533509,-0.162503
4835,6,0,-1,3,4,10,12,1,-0.481934,0.174805,0.578613,148.562,-27.3125,18.8125,0.150635,0.523964,-0.155988
4835,13,1,0,-3,-5,-6,-11,-7,-0.481934,0.174805,0.578613,148.562,-27.3125,18.8125,0.150635,0.523964,-0.155988
4835,-19,1,5,1,-6,-12,-25,3,-0.481934,0.174805,0.578613,148.562,-27.3125,18.8125,0.150635,0.523964,-0.155988
4835,1,-4,-2,-5,2,-10,6,-23,-0.481934,0.174805,0.578613,148.562,-27.3125,18.8125,0.150635,0.523964,-0.155988
4850,10,3,2,-2,-1,-21,-3,32,-0.512207,0.175781,0.624512,101,-26.1875,22.125,0.189671,0.514533,-0.148901
4850,4,4,9,4,-9,-39,-13,6,-0.512207,0.175781,0.624512,101,-26.1875,22.125,0.189671,0.514533,-0.148901
4850,-2,-3,0,0,-2,-10,1,-2,-0.512207,0.175781,0.624512,101,-26.1875,22.125,0.189671,0.514533,-0.148901
4850,5,-3,-1,-2,-4,1,-3,-15,-0.512207,0.175781,0.624512,101,-26.1875,22.125,0.189671,0.514533,-0.148901
4872,-9,-2,2,2,1,4,3,-19,-0.535156,0.106934,0.60791,80.875,-25,23.8125,0.220766,0.508429,-0.142021
4872,-15,-1,2,-3,-1,-8,-10,-6,-0.535156,0.106934,0.60791,80.875,-25,23.8125,0.220766,0.508429,-0.142021
4879,2,-2,-2,-2,3,20,27,-3,-0.535156,0.106934,0.60791,80.875,-25,23.8125,0.220766,0.508429,-0.142021
4879,19,-5,-6,-3,6,27,42,6,-0.535156,0.106934,0.60791,80.875,-25,23.8125,0.220766,0.508429,-0.142021
4895,-14,-1,-2,-1,-4,6,-17,-30,-0.455566,0.0234375,0.471191,66.5625,-12.3125,21.75,0.244918,0.5067,-0.135969
4895,-12,-3,-6,-3,-2,11,-29,6,-0.455566,0.0234375,0.471191,66.5625,-12.3125,21.75,0.244918,0.5067,-0.135969
4902,0,-4,-3,-2,4,18,-13,-12,-0.455566,0.0234375,0.471191,66.5625,-12.3125,21.75,0.244918,0.5067,-0.135969
4902,-33,-5,-6,-7,-9,-13,-52,40,-0.455566,0.0234375,0.471191,66.5625,-12.3125,21.75,0.244918,0.5067,-0.135969
4909,-22,7,-20,-11,-11,-22,-69,-23,-0.556641,-0.162598,0.456543,81,9.625,0.125,0.265975,0.516883,-0.138708
4909,22,-14,-12,3,-2,-17,-110,-28,-0.556641,-0.162598,0.456543,81,9.625,0.125,0.265975,0.516883,-0.138708
4910,0,-3,4,3,-12,0,-122,8,-0.556641,-0.162598,0.456543,81,9.625,0.125,0.265975,0.516883,-0.138708
4910,-15,-10,-8,-11,1,8,-50,-1,-0.556641,-0.162598,0.456543,81,9.625,0.125,0.265975,0.516883,-0.138708
4932,1,-8,4,-1,-14,-12,21,-24,-0.607422,0.0522461,0.651855,78.75,8.6875,-6.1875,0.288933,0.525339,-0.142016
4932,25,15,-2,-4,-3,-3,86,12,-0.607422,0.0522461,0.651855,78.75,8.6875,-6.1875,0.288933,0.525339,-0.142016
4932,-20,-10,-1,-3,12,38,56,2,-0.607422,0.0522461,0.651855,78.75,8.6875,-6.1875,0.288933,0.525339,-0.142016
4932,28,4,12,2,-6,-17,32,-41,-0.607422,0.0522461,0.651855,78.75,8.6875,-6.1875,0.288933,0.525339,-0.142016
4954,5,-1,7,-2,3,-10,-33,14,-0.59082,0.0771484,0.632324,23.5625,1.875,1.5,0.294498,0.530552,-0.142732
4954,-17,-4,8,-5,1,-12,-89,-9,-0.59082,0.0771484,0.632324,23.5625,1.875,1.5,0.294498,0.530552,-0.142732
4962,10,-2,3,-1,3,-10,-99,-3,-0.59082,0.0771484,0.632324,23.5625,1.875,1.5,0.294498,0.530552,-0.142732
4962,3,-1,1,2,12,16,-18,19,-0.59082,0.0771484,0.632324,23.5625,1.875,1.5,0.294498,0.530552,-0.142732
4969,8,2,5,4,9,12,25,-1,-0.668945,-0.000976562,0.708008,16.125,-6.5,6,0.295079,0.533554,-0.144134
4969,-16,-3,5,2,-4,-1,127,3,-0.668945,-0.000976562,0.708008,16.125,-6.5,6,0.295079,0.533554,-0.144134
4970,-11,-6,-9,-4,0,-4,127,-4,-0.668945,-0.000976562,0.708008,16.125,-6.5,6,0.295079,0.533554,-0.144134
4970,-19,4,5,4,-10,-6,12,-15,-0.668945,-0.000976562,0.708008,16.125,-6.5,6,0.295079,0.533554,-0.144134
4992,7,-3,-4,-5,-4,-8,11,13,-0.652832,0.21875,0.771973,39.6875,-11.3125,6.875,0.308864,0.532774,-0.143185
4992,-61,-8,-3,0,-2,8,-102,-5,-0.652832,0.21875,0.771973,39.6875,-11.3125,6.875,0.308864,0.532774,-0.143185
4992,47,11,1,0,-11,-26,-73,-20,-0.652832,0.21875,0.771973,39.6875,-11.3125,6.875,0.308864,0.532774,-0.143185
4992,7,0,-8,-2,-1,3,-69,13,-0.652832,0.21875,0.771973,39.6875,-11.3125,6.875,0.308864,0.532774,-0.143185
5014,11,-2,-5,1,1,7,-71,25,-0.578613,0.335938,0.833984,47.1875,-19.625,10.5625,0.327547,0.526437,-0.140892
5014,13,8,1,0,1,2,-83,2,-0.578613,0.335938,0.833984,47.1875,-19.625,10.5625,0.327547,0.526437,-0.140892
5014,-43,-3,-14,-6,-5,0,-94,42,-0.578613,0.335938,0.833984,47.1875,-19.625,10.5625,0.327547,0.526437,-0.140892
5014,-4,-2,-3,-2,5,11,-32,-12,-0.578613,0.335938,0.833984,47.1875,-19.625,10.5625,0.327547,0.526437,-0.140892
5029,10,6,3,7,3,37,-57,17,-0.44043,0.381836,0.833008,46.8125,-15.125,10.875,0.347103,0.518473,-0.137727
5029,-14,-2,-9,-10,-13,-33,-78,12,-0.44043,0.381836,0.833008,46.8125,-15.125,10.875,0.347103,0.518473,-0.137727
5029,-8,1,2,6,6,16,-57,-38,-0.44043,0.381836,0.833008,46.8125,-15.125,10.875,0.347103,0.518473,-0.137727
5029,-24,-20,-4,-3,-4,-5,-6,31,-0.44043,0.381836,0.833008,46.8125,-15.125,10.875,0.347103,0.518473,-0.137727
5052,-22,-21,-3,-3,-7,-7,-14,16,-0.444824,0.464844,0.857422,40.125,-4.0625,3.4375,0.365101,0.514551,-0.135236
5052,-24,19,2,6,10,8,61,-9,-0.444824,0.464844,0.857422,40.125,-4.0625,3.4375,0.365101,0.514551,-0.135236
5052,14,5,0,-5,-14,-47,-14,-12,-0.444824,0.464844,0.857422,40.125,-4.0625,3.4375,0.365101,0.514551,-0.135236
5052,-40,-3,-15,-6,-4,-29,58,-20,-0.444824,0.464844,0.857422,40.125,-4.0625,3.4375,0.365101,0.514551,-0.135236
5074,-75,-3,-4,-2,9,14,-23,-21,-0.502441,0.48291,0.859863,27.3125,1.1875,-1.0625,0.378181,0.513946,-0.133607
5074,-22,-21,-1,7,-7,-1,-48,18,-0.502441,0.48291,0.859863,27.3125,1.1875,-1.0625,0.378181,0.513946,-0.133607
5074,28,-2,-6,-5,5,3,101,26,-0.502441,0.48291,0.859863,27.3125,1.1875,-1.0625,0.378181,0.513946,-0.133607
5074,-56,15,7,-1,-16,-24,-97,2,-0.502441,0.48291,0.859863,27.3125,1.1875,-1.0625,0.378181,0.513946,-0.133607
5098,6,-16,-1,-8,4,5,59,-14,-0.467285,0.401855,0.86084,22.875,5,-3.8125,0.387242,0.514618,-0.133549
5098,6,-12,-2,0,2,11,-14,-4,-0.467285,0.401855,0.86084,22.875,5,-3.8125,0.387242,0.514618,-0.133549
5098,18,6,-3,-2,-3,-8,25,-34,-0.467285,0.401855,0.86084,22.875,5,-3.8125,0.387242,0.514618,-0.133549
5098,20,47,10,1,8,7,2,24,-0.467285,0.401855,0.86084,22.875,5,-3.8125,0.387242,0.514618,-0.133549
5113,11,-48,-15,9,8,15,-1,52,-0.486328,0.402344,0.817871,22.875,11.375,-8.8125,0.396032,0.518773,-0.134321
5113,-25,26,-4,-6,-6,-6,-39,3,-0.486328,0.402344,0.817871,22.875,11.375,-8.8125,0.396032,0.518773,-0.134321
5113,9,37,5,-3,-6,-14,-6,-9,-0.486328,0.402344,0.817871,22.875,11.375,-8.8125,0.396032,0.518773,-0.134321
5113,-24,-31,1,-9,-18,-32,-95,-46,-0.486328,0.402344,0.817871,22.875,11.375,-8.8125,0.396032,0.518773,-0.134321
5134,40,65,3,0,0,-18,28,-1,-0.581055,0.394043,0.762207,18.25,13.625,-7.75,0.403904,0.52598,-0.134089
5134,-40,-18,-5,-2,2,6,13,-46,-0.581055,0.394043,0.762207,18.25,13.625,-7.75,0.403904,0.52598,-0.134089
5135,39,93,16,0,-2,1,-37,45,-0.581055,0.394043,0.762207,18.25,13.625,-7.75,0.403904,0.52598,-0.134089
5135,39,-33,-4,5,5,19,6,33,-0.581055,0.394043,0.762207,18.25,13.625,-7.75,0.403904,0.52598,-0.134089
5149,45,13,11,0,-14,-23,-11,-3,-0.555176,0.383301,0.804199,9.9375,20.1875,-14.75,0.407083,0.535055,-0.135987
5149,-18,25,-7,-3,2,-1,95,16,-0.555176,0.383301,0.804199,9.9375,20.1875,-14.75,0.407083,0.535055,-0.135987
5157,46,-3,0,-2,5,14,6,-26,-0.555176,0.383301,0.804199,9.9375,20.1875,-14.75,0.407083,0.535055,-0.135987
5157,-13,-33,-35,-17,-4,-16,26,-20,-0.555176,0.383301,0.804199,9.9375,20.1875,-14.75,0.407083,0.535055,-0.135987
5171,1,22,-8,-7,-8,-18,38,29,-0.507812,0.300781,0.784668,-2.1875,21.0625,-15,0.404327,0.543792,-0.13857
5171,-52,10,-40,-3,-2,-1,-40,-27,-0.507812,0.300781,0.784668,-2.1875,21.0625,-15,0.404327,0.543792,-0.13857
5172,-8,-42,-49,-1,-5,-7,-20,-25,-0.507812,0.300781,0.784668,-2.1875,21.0625,-15,0.404327,0.543792,-0.13857
5172,74,12,-40,8,2,-2,39,3,-0.507812,0.300781,0.784668,-2.1875,21.0625,-15,0.404327,0.543792,-0.13857
5195,-52,-41,-7,1,-4,5,-93,-40,-0.585449,0.308594,0.703125,-0.9375,22.6875,-14.5,0.403338,0.55545,-0.140335
5195,-9,70,-5,1,8,0,33,13,-0.585449,0.308594,0.703125,-0.9375,22.6875,-14.5,0.403338,0.55545,-0.140335
5202,-63,-5,14,-2,4,20,46,-24,-0.585449,0.308594,0.703125,-0.9375,22.6875,-14.5,0.403338,0.55545,-0.140335
5202,22,17,34,5,-5,-5,-24,8,-0.585449,0.308594,0.703125,-0.9375,22.6875,-14.5,0.403338,0.55545,-0.140335
5209,52,98,9,-7,-22,-44,46,-41,-0.591797,0.364746,0.738281,4.25,25.1875,-17.0625,0.404814,0.567281,-0.142041
5209,-37,-87,15,-10,-14,-2,-65,-9,-0.591797,0.364746,0.738281,4.25,25.1875,-17.0625,0.404814,0.567281,-0.142041
5210,-103,7,-15,6,13,6,30,-17,-0.591797,0.364746,0.738281,4.25,25.1875,-17.0625,0.404814,0.567281,-0.142041
5210,-103,-34,-13,4,-1,16,127,-26,-0.591797,0.364746,0.738281,4.25,25.1875,-17.0625,0.404814,0.567281,-0.142041
5231,41,-76,-9,-3,-15,-7,16,23,-0.496094,0.329102,0.788574,-1.0625,25.0625,-17.625,0.402924,0.576445,-0.144676
5231,46,-21,10,-1,-6,21,31,-3,-0.496094,0.329102,0.788574,-1.0625,25.0625,-17.625,0.402924,0.576445,-0.144676
5232,-76,41,8,-13,-10,-30,10,-12,-0.496094,0.329102,0.788574,-1.0625,25.0625,-17.625,0.402924,0.576445,-0.144676
5232,8,21,27,-12,-21,-39,-93,-10,-0.496094,0.329102,0.788574,-1.0625,25.0625,-17.625,0.402924,0.576445,-0.144676
5262,4,54,41,1,19,0,-24,-72,-0.470215,0.397461,0.772461,-1.875,30.3125,-17.375,0.403122,0.586374,-0.145419
5262,48,-45,-9,5,1,20,105,75,-0.470215,0.397461,0.772461,-1.875,30.3125,-17.375,0.403122,0.586374,-0.145419
5262,65,-27,22,4,1,17,30,42,-0.470215,0.397461,0.772461,-1.875,30.3125,-17.375,0.403122,0.586374,-0.145419
5262,60,-10,10,1,9,14,-16,-30,-0.470215,0.397461,0.772461,-1.875,30.3125,-17.375,0.403122,0.586374,-0.145419
5269,-87,-86,-15,4,-15,-1,-80,-21,-0.459961,0.33252,0.652344,-0.625,33.0625,-21,0.402983,0.599103,-0.147195
5269,-18,-9,3,2,24,15,-12,13,-0.459961,0.33252,0.652344,-0.625,33.0625,-21,0.402983,0.599103,-0.147195
5270,-59,-52,-46,6,-7,2,64,-31,-0.459961,0.33252,0.652344,-0.625,33.0625,-21,0.402983,0.599103,-0.147195
5270,-11,-37,-93,3,1,43,127,62,-0.459961,0.33252,0.652344,-0.625,33.0625,-21,0.402983,0.599103,-0.147195
5292,-8,53,-29,3,5,9,13,3,-0.520996,0.270996,0.551758,1.4375,30.875,-17.625,0.4034,0.61327,-0.148452
5292,-30,-62,-10,5,2,-13,-42,14,-0.520996,0.270996,0.551758,1.4375,30.875,-17.625,0.4034,0.61327,-0.148452
5292,-24,-7,-9,-13,-16,-2,-3,-33,-0.520996,0.270996,0.551758,1.4375,30.875,-17.625,0.4034,0.61327,-0.148452
5292,46,-24,15,-5,5,-14,-36,4,-0.520996,0.270996,0.551758,1.4375,30.875,-17.625,0.4034,0.61327,-0.148452
5315,54,-13,-6,7,18,-4,101,66,-0.563477,0.286133,0.447266,-3.625,25.8125,-16.75,0.403449,0.62741,-0.149168
5315,127,103,45,-1,-21,-25,78,-23,-0.563477,0.286133,0.447266,-3.625,25.8125,-16.75,0.403449,0.62741,-0.149168
5315,18,62,22,-5,-11,-20,-80,9,-0.563477,0.286133,0.447266,-3.625,25.8125,-16.75,0.403449,0.62741,-0.149168
5315,-101,6,22,1,-2,2,-16,-6,-0.563477,0.286133,0.447266,-3.625,25.8125,-16.75,0.403449,0.62741,-0.149168
5328,67,-50,30,-5,10,17,-33,11,-0.525879,0.211914,0.508789,-9.125,20.25,-12.8125,0.399283,0.638061,-0.150816
5328,34,17,49,1,0,-12,-28,-46,-0.525879,0.211914,0.508789,-9.125,20.25,-12.8125,0.399283,0.638061,-0.150816
5337,30,-57,39,7,0,13,-40,38,-0.525879,0.211914,0.508789,-9.125,20.25,-12.8125,0.399283,0.638061,-0.150816
5337,19,69,22,-8,-8,-10,-44,-6,-0.525879,0.211914,0.508789,-9.125,20.25,-12.8125,0.399283,0.638061,-0.150816
5352,-5,43,23,5,4,-5,-19,35,-0.526367,0.167969,0.495117,-4.375,13.6875,-6.375,0.396374,0.645848,-0.151806
5352,37,66,9,0,6,27,49,18,-0.526367,0.167969,0.495117,-4.375,13.6875,-6.375,0.396374,0.645848,-0.151806
5353,-4,-19,33,6,5,8,10,3,-0.526367,0.167969,0.495117,-4.375,13.6875,-6.375,0.396374,0.645848,-0.151806
5353,50,104,38,2,6,-14,31,29,-0.526367,0.167969,0.495117,-4.375,13.6875,-6.375,0.396374,0.645848,-0.151806
5375,19,-5,15,0,-4,-6,18,-16,-0.599121,0.217285,0.506348,-0.4375,8.25,-3,0.396522,0.652334,-0.151519
5375,-38,-21,-1,1,-9,-13,-10,-6,-0.599121,0.217285,0.506348,-0.4375,8.25,-3,0.396522,0.652334,-0.151519
5375,-58,-7,1,1,1,8,-40,-16,-0.599121,0.217285,0.506348,-0.4375,8.25,-3,0.396522,0.652334,-0.151519
5375,3,-16,11,12,18,23,5,66,-0.599121,0.217285,0.506348,-0.4375,8.25,-3,0.396522,0.652334,-0.151519
5398,-8,53,-2,-4,-11,1,-41,-14,-0.620605,0.380371,0.618652,-6,2.5,-2.375,0.397543,0.654874,-0.149938
5398,-35,-44,-20,-2,-7,-3,-57,-28,-0.620605,0.380371,0.618652,-6,2.5,-2.375,0.397543,0.654874,-0.149938
5398,61,32,-21,-9,1,28,-4,32,-0.620605,0.380371,0.618652,-6,2.5,-2.375,0.397543,0.654874,-0.149938
5398,-68,-74,-6,-4,-15,-20,-9,-70,-0.620605,0.380371,0.618652,-6,2.5,-2.375,0.397543,0.654874,-0.149938
5412,-1,6,-20,-3,-2,5,-12,-4,-0.637695,0.39502,0.785156,-6.5625,3.5625,-1.5625,0.397142,0.655499,-0.14879
5412,-73,-11,-4,-4,8,-9,-57,-30,-0.637695,0.39502,0.785156,-6.5625,3.5625,-1.5625,0.397142,0.655499,-0.14879
5412,77,-22,-10,7,14,14,-41,-24,-0.637695,0.39502,0.785156,-6.5625,3.5625,-1.5625,0.397142,0.655499,-0.14879
5412,29,11,-17,-2,2,32,114,29,-0.637695,0.39502,0.785156,-6.5625,3.5625,-1.5625,0.397142,0.655499,-0.14879
5435,-22,-8,3,-2,-3,-3,24,-6,-0.648438,0.359863,0.727051,-1,8.125,-2.375,0.398642,0.658965,-0.147433
5435,17,18,-9,0,-4,0,-35,29,-0.648438,0.359863,0.727051,-1,8.125,-2.375,0.398642,0.658965,-0.147433
5436,-70,-61,0,-6,-10,-17,-15,-11,-0.648438,0.359863,0.727051,-1,8.125,-2.375,0.398642,0.658965,-0.147433
5436,-3,15,2,6,-5,-3,-88,-50,-0.648438,0.359863,0.727051,-1,8.125,-2.375,0.398642,0.658965,-0.147433
5448,-18,-27,-6,2,3,2,28,-42,-0.59668,0.223145,0.609375,-4.6875,9.625,-2.9375,0.396461,0.664162,-0.14748
5448,28,39,-9,2,12,8,17,39,-0.59668,0.223145,0.609375,-4.6875,9.625,-2.9375,0.396461,0.664162,-0.14748
5457,68,54,3,-4,-8,-38,42,45,-0.59668,0.223145,0.609375,-4.6875,9.625,-2.9375,0.396461,0.664162,-0.14748
5457,41,58,7,-4,0,-10,9,2,-0.59668,0.223145,0.609375,-4.6875,9.625,-2.9375,0.396461,0.664162,-0.14748
5471,-103,-90,-14,-7,-6,-7,2,-16,-0.621094,0.295898,0.53418,-3.875,5.75,-0.9375,0.397495,0.66874,-0.145536
5471,-27,24,2,3,-2,4,-84,10,-0.621094,0.295898,0.53418,-3.875,5.75,-0.9375,0.397495,0.66874,-0.145536
5480,-44,-40,11,1,-2,-19,75,7,-0.621094,0.295898,0.53418,-3.875,5.75,-0.9375,0.397495,0.66874,-0.145536
5480,27,-29,-8,5,10,12,-39,59,-0.621094,0.295898,0.53418,-3.875,5.75,-0.9375,0.397495,0.66874,-0.145536
5495,28,-37,-19,-5,-8,-3,-40,-28,-0.634277,0.398926,0.651855,-7.3125,2.875,-1.6875,0.398411,0.670647,-0.143551
5495,64,-56,1,-2,-7,-1,47,-36,-0.634277,0.398926,0.651855,-7.3125,2.875,-1.6875,0.398411,0.670647,-0.143551
5496,-10,-14,-7,0,12,14,-59,-1,-0.634277,0.398926,0.651855,-7.3125,2.875,-1.6875,0.398411,0.670647,-0.143551
5496,-96,-68,-1,-9,-6,-28,56,-23,-0.634277,0.398926,0.651855,-7.3125,2.875,-1.6875,0.398411,0.670647,-0.143551
5508,-67,3,6,-6,-6,4,4,-26,-0.581055,0.275391,0.681641,-8.875,3.8125,-3.1875,0.394698,0.672103,-0.144257
5508,50,80,8,2,2,9,-21,-10,-0.581055,0.275391,0.681641,-8.875,3.8125,-3.1875,0.394698,0.672103,-0.144257
5517,63,-50,-28,2,-2,-2,-50,63,-0.581055,0.275391,0.681641,-8.875,3.8125,-3.1875,0.394698,0.672103,-0.144257
5517,-54,55,10,0,-4,6,65,-72,-0.581055,0.275391,0.681641,-8.875,3.8125,-3.1875,0.394698,0.672103,-0.144257
5531,55,6,-20,2,6,17,-1,37,-0.625,0.241699,0.588867,-1.75,3.5,-1.1875,0.394049,0.675727,-0.144268
5531,-44,-28,-30,-5,-3,-7,-10,-35,-0.625,0.241699,0.588867,-1.75,3.5,-1.1875,0.394049,0.675727,-0.144268
5540,20,-47,-16,5,2,12,1,25,-0.625,0.241699,0.588867,-1.75,3.5,-1.1875,0.394049,0.675727,-0.144268
5540,-31,11,-13,-6,-16,0,26,-3,-0.625,0.241699,0.588867,-1.75,3.5,-1.1875,0.394049,0.675727,-0.144268
5555,-63,-11,-12,-2,-19,-2,-17,-22,-0.658203,0.368164,0.612793,-3.25,0.5,-1.5,0.395893,0.67776,-0.142758
5555,49,-26,9,-3,3,25,64,27,-0.658203,0.368164,0.612793,-3.25,0.5,-1.5,0.395893,0.67776,-0.142758
5555,10,35,13,0,3,11,9,3,-0.658203,0.368164,0.612793,-3.25,0.5,-1.5,0.395893,0.67776,-0.142758
5555,-73,-34,-3,3,0,-15,-31,-46,-0.658203,0.368164,0.612793,-3.25,0.5,-1.5,0.395893,0.67776,-0.142758
5570,-17,51,1,-12,-2,-37,-41,2,-0.574219,0.293945,0.650391,-7.125,0.5,-2.375,0.393453,0.678163,-0.143234
5570,14,-102,-13,7,11,3,66,46,-0.574219,0.293945,0.650391,-7.125,0.5,-2.375,0.393453,0.678163,-0.143234
5577,-95,8,0,-4,1,-11,74,-54,-0.574219,0.293945,0.650391,-7.125,0.5,-2.375,0.393453,0.678163,-0.143234
5577,114,41,16,-1,3,-1,-47,-10,-0.574219,0.293945,0.650391,-7.125,0.5,-2.375,0.393453,0.678163,-0.143234
5591,-8,-70,-5,2,-9,-25,80,-22,-0.594727,0.241699,0.668945,-9.375,-0.0625,-1.8125,0.388905,0.67889,-0.144547
5591,5,80,11,0,3,3,24,-27,-0.594727,0.241699,0.668945,-9.375,-0.0625,-1.8125,0.388905,0.67889,-0.144547
5592,8,69,-2,-1,5,19,0,25,-0.594727,0.241699,0.668945,-9.375,-0.0625,-1.8125,0.388905,0.67889,-0.144547
5592,101,-92,2,-1,1,28,-2,-26,-0.594727,0.241699,0.668945,-9.375,-0.0625,-1.8125,0.388905,0.67889,-0.144547
5615,26,77,8,1,7,15,-4,19,-0.666504,0.367676,0.680176,-0.5625,-0.1875,-1.3125,0.390868,0.679835,-0.14344
5615,71,-41,-19,1,11,19,21,32,-0.666504,0.367676,0.680176,-0.5625,-0.1875,-1.3125,0.390868,0.679835,-0.14344
5616,-15,-57,-8,-5,-7,-2,-21,-48,-0.666504,0.367676,0.680176,-0.5625,-0.1875,-1.3125,0.390868,0.679835,-0.14344
5616,-50,-56,-5,-2,3,-32,21,38,-0.666504,0.367676,0.680176,-0.5625,-0.1875,-1.3125,0.390868,0.679835,-0.14344
5629,-72,-9,-2,-2,5,-29,-10,-6,-0.563965,0.254883,0.641602,0.625,2,-1.9375,0.390522,0.680837,-0.144045
5629,-71,2,6,-8,-4,-52,38,-38,-0.563965,0.254883,0.641602,0.625,2,-1.9375,0.390522,0.680837,-0.144045
5637,17,-21,10,0,9,-31,-2,16,-0.563965,0.254883,0.641602,0.625,2,-1.9375,0.390522,0.680837,-0.144045
5637,-58,-39,-30,-10,5,1,-29,11,-0.563965,0.254883,0.641602,0.625,2,-1.9375,0.390522,0.680837,-0.144045
5651,-4,-78,12,-3,-2,24,52,-30,-0.632324,0.22168,0.572266,-6.25,0.25,0.25,0.388085,0.683428,-0.144175
5651,50,-5,-12,-6,-5,-8,57,-13,-0.632324,0.22168,0.572266,-6.25,0.25,0.25,0.388085,0.683428,-0.144175
5652,-9,-3,-5,-3,-5,7,4,-10,-0.632324,0.22168,0.572266,-6.25,0.25,0.25,0.388085,0.683428,-0.144175
5652,-26,-16,-9,-10,-6,-22,-39,4,-0.632324,0.22168,0.572266,-6.25,0.25,0.25,0.388085,0.683428,-0.144175
5675,-17,56,10,6,11,-14,76,2,-0.655762,0.376465,0.69873,-9.4375,-1.3125,-2.875,0.386579,0.68352,-0.143859
5675,17,-16,-9,-1,-9,-8,-88,21,-0.655762,0.376465,0.69873,-9.4375,-1.3125,-2.875,0.386579,0.68352,-0.143859
5676,-72,37,-1,1,-6,-4,-21,-10,-0.655762,0.376465,0.69873,-9.4375,-1.3125,-2.875,0.386579,0.68352,-0.143859
5676,-16,7,0,1,-7,-14,70,-8,-0.655762,0.376465,0.69873,-9.4375,-1.3125,-2.875,0.386579,0.68352,-0.143859
5698,84,8,-3,11,12,51,37,39,-0.563477,0.268555,0.714355,-8,1.8125,-2.25,0.382918,0.683384,-0.144893
5698,-63,46,1,6,1,10,-93,-35,-0.563477,0.268555,0.714355,-8,1.8125,-2.25,0.382918,0.683384,-0.144893
5698,-20,-15,8,3,-2,-8,42,32,-0.563477,0.268555,0.714355,-8,1.8125,-2.25,0.382918,0.683384,-0.144893
5698,-101,67,11,18,18,25,-15,15,-0.563477,0.268555,0.714355,-8,1.8125,-2.25,0.382918,0.683384,-0.144893
5711,52,61,9,2,2,13,-27,20,-0.643066,0.240234,0.599609,-0.75,2.4375,0,0.382939,0.686292,-0.144383
5711,-23,17,1,-3,-18,-13,-4,-6,-0.643066,0.240234,0.599609,-0.75,2.4375,0,0.382939,0.686292,-0.144383
5712,30,24,-7,-1,1,11,-100,-21,-0.643066,0.240234,0.599609,-0.75,2.4375,0,0.382939,0.686292,-0.144383
5712,108,-22,8,1,-9,4,45,-10,-0.643066,0.240234,0.599609,-0.75,2.4375,0,0.382939,0.686292,-0.144383
5734,-75,-21,-12,-8,-9,-34,-10,-4,-0.601074,0.290527,0.60498,-3.4375,-0.5625,-1.875,0.382551,0.687288,-0.144353
5734,-38,-58,10,1,5,26,41,43,-0.601074,0.290527,0.60498,-3.4375,-0.5625,-1.875,0.382551,0.687288,-0.144353
5736,-37,45,-5,-5,-7,-7,-34,-16,-0.601074,0.290527,0.60498,-3.4375,-0.5625,-1.875,0.382551,0.687288,-0.144353
5736,-2,81,3,0,-6,-17,-58,-4,-0.601074,0.290527,0.60498,-3.4375,-0.5625,-1.875,0.382551,0.687288,-0.144353
5758,78,11,5,6,2,-24,43,19,-0.539551,0.231445,0.661133,-13.9375,-0.625,-0.5,0.376636,0.686544,-0.14533
