0,-4,-4,4,2,1,-1,-3,-5,0.290039,0.536133,0.700684,2.875,-0.0625,-3.625,0.63526,-0.31647,1.91859
0,-2,2,0,-2,0,-1,-2,6,0.290039,0.536133,0.700684,2.875,-0.0625,-3.625,0.63526,-0.31647,1.91859
2,1,3,-7,-2,-1,-1,0,-2,0.290039,0.536133,0.700684,2.875,-0.0625,-3.625,0.63526,-0.31647,1.91859
2,0,-2,5,2,0,-1,-2,-10,0.290039,0.536133,0.700684,2.875,-0.0625,-3.625,0.63526,-0.31647,1.91859
3,-3,2,-15,-2,3,1,-1,7,0.290039,0.536133,0.700684,2.875,-0.0625,-3.625,0.63526,-0.31647,1.91859
3,-3,11,0,0,-3,-1,-1,-6,0.290039,0.536133,0.700684,2.875,-0.0625,-3.625,0.63526,-0.31647,1.91859
13,-3,-49,-8,-1,4,-4,1,2,0.290039,0.536133,0.700684,2.875,-0.0625,-3.625,0.63526,-0.31647,1.91859
13,0,8,-3,-1,-4,-5,-1,2,0.290039,0.536133,0.700684,2.875,-0.0625,-3.625,0.63526,-0.31647,1.91859
14,2,8,14,1,-1,0,-1,0,0.296387,0.500977,0.694824,-5.0625,-0.6875,1.125,0.633247,-0.317217,1.91884
14,2,4,16,0,1,0,-1,-2,0.296387,0.500977,0.694824,-5.0625,-0.6875,1.125,0.633247,-0.317217,1.91884
18,1,8,-27,-3,-5,-3,-1,-3,0.296387,0.500977,0.694824,-5.0625,-0.6875,1.125,0.633247,-0.317217,1.91884
18,3,-6,13,-1,-3,-1,-2,0,0.296387,0.500977,0.694824,-5.0625,-0.6875,1.125,0.633247,-0.317217,1.91884
33,-3,-3,-11,-2,1,0,-1,-2,0.290527,0.48877,0.687012,0.6875,1,-1.375,0.633303,-0.31697,1.91863
33,-2,4,15,3,1,-1,-3,1,0.290527,0.48877,0.687012,0.6875,1,-1.375,0.633303,-0.31697,1.91863
41,-4,6,0,-2,-1,-1,0,-8,0.290527,0.48877,0.687012,0.6875,1,-1.375,0.633303,-0.31697,1.91863
41,-1,-4,-5,-2,2,-4,-1,3,0.290527,0.48877,0.687012,0.6875,1,-1.375,0.633303,-0.31697,1.91863
49,-4,0,-2,-3,-4,-1,-1,-1,0.288574,0.498535,0.702637,0.9375,1.6875,-0.4375,0.63323,-0.316633,1.91908
49,2,-8,-3,3,1,-2,0,0,0.288574,0.498535,0.702637,0.9375,1.6875,-0.4375,0.63323,-0.316633,1.91908
65,-5,3,-5,-2,-3,2,0,-1,0.288574,0.498535,0.702637,0.9375,1.6875,-0.4375,0.63323,-0.316633,1.91908
65,-5,-7,-5,-4,-2,0,1,-2,0.288574,0.498535,0.702637,0.9375,1.6875,-0.4375,0.63323,-0.316633,1.91908
72,9,7,27,-2,-4,-2,-1,0,0.279297,0.51709,0.693359,1.875,1.625,-0.0625,0.633902,-0.316082,1.91941
72,-9,0,-10,-1,4,-2,-1,-3,0.279297,0.51709,0.693359,1.875,1.625,-0.0625,0.633902,-0.316082,1.91941
85,9,0,-7,-3,-1,-2,-1,1,0.273438,0.52002,0.696289,2.5625,1.5,-0.4375,0.634942,-0.315259,1.91958
85,14,3,7,-3,-1,-1,-1,0,0.273438,0.52002,0.696289,2.5625,1.5,-0.4375,0.634942,-0.315259,1.91958
126,3,-3,-29,-4,-4,-2,1,-1,0.275879,0.503418,0.694336,-0.875,1.25,-0.6875,0.634113,-0.314189,1.91968
126,5,1,10,4,0,0,2,-1,0.275879,0.503418,0.694336,-0.875,1.25,-0.6875,0.634113,-0.314189,1.91968
127,-12,1,9,0,3,0,-1,-2,0.275879,0.503418,0.694336,-0.875,1.25,-0.6875,0.634113,-0.314189,1.91968
127,17,0,-1,0,-1,1,-1,3,0.275879,0.503418,0.694336,-0.875,1.25,-0.6875,0.634113,-0.314189,1.91968
130,2,-13,-16,-1,-1,1,-1,-2,0.275879,0.503418,0.694336,-0.875,1.25,-0.6875,0.634113,-0.314189,1.91968
130,-6,11,5,-8,-3,-2,-1,-2,0.275879,0.503418,0.694336,-0.875,1.25,-0.6875,0.634113,-0.314189,1.91968
131,14,23,-20,1,1,-1,-1,0,0.275879,0.503418,0.694336,-0.875,1.25,-0.6875,0.634113,-0.314189,1.91968
131,-14,-28,5,-3,-2,-1,0,-1,0.275879,0.503418,0.694336,-0.875,1.25,-0.6875,0.634113,-0.314189,1.91968
138,-5,4,-3,-2,-2,-4,-2,0,0.275879,0.503418,0.694336,-0.875,1.25,-0.6875,0.634113,-0.314189,1.91968
138,7,-12,-3,-1,-2,-1,1,0,0.275879,0.503418,0.694336,-0.875,1.25,-0.6875,0.634113,-0.314189,1.91968
153,-4,9,9,0,-6,-1,-1,-3,0.289551,0.502441,0.694336,0.8125,1.3125,-0.9375,0.634135,-0.313857,1.91975
153,-5,10,4,-1,2,-2,-1,-2,0.289551,0.502441,0.694336,0.8125,1.3125,-0.9375,0.634135,-0.313857,1.91975
161,1,-5,-4,0,-3,0,0,-2,0.289551,0.502441,0.694336,0.8125,1.3125,-0.9375,0.634135,-0.313857,1.91975
161,-2,-4,-8,-4,-3,-3,0,0,0.289551,0.502441,0.694336,0.8125,1.3125,-0.9375,0.634135,-0.313857,1.91975
168,-6,4,23,1,-4,0,0,4,0.281738,0.508301,0.701172,1.25,1.8125,-0.4375,0.63437,-0.31329,1.92012
168,19,-2,-15,-1,1,1,-3,0,0.281738,0.508301,0.701172,1.25,1.8125,-0.4375,0.63437,-0.31329,1.92012
176,-5,-5,5,-1,1,-1,-2,-4,0.281738,0.508301,0.701172,1.25,1.8125,-0.4375,0.63437,-0.31329,1.92012
176,4,3,-5,-1,1,1,0,-3,0.281738,0.508301,0.701172,1.25,1.8125,-0.4375,0.63437,-0.31329,1.92012
199,-6,-14,-5,3,1,-2,-4,-2,0.266602,0.528809,0.703613,1.3125,0.5625,-0.375,0.635041,-0.31268,1.92011
199,-6,-4,28,-1,0,-1,0,-1,0.266602,0.528809,0.703613,1.3125,0.5625,-0.375,0.635041,-0.31268,1.92011
200,-1,16,-9,0,0,-3,-1,0,0.266602,0.528809,0.703613,1.3125,0.5625,-0.375,0.635041,-0.31268,1.92011
200,1,-6,-8,2,2,0,1,-3,0.266602,0.528809,0.703613,1.3125,0.5625,-0.375,0.635041,-0.31268,1.92011
212,10,-7,3,1,1,0,-1,2,0.276855,0.516113,0.696289,-2.0625,-0.3125,-0.125,0.634477,-0.312689,1.91995
212,-2,9,6,3,-3,1,-2,0,0.276855,0.516113,0.696289,-2.0625,-0.3125,-0.125,0.634477,-0.312689,1.91995
220,4,8,9,-2,-3,1,0,-2,0.276855,0.516113,0.696289,-2.0625,-0.3125,-0.125,0.634477,-0.312689,1.91995
220,-13,-6,-15,-4,3,-1,-2,-1,0.276855,0.516113,0.696289,-2.0625,-0.3125,-0.125,0.634477,-0.312689,1.91995
237,1,-4,-1,-2,-3,-3,-2,-1,0.283203,0.49707,0.692383,-1.625,-0.1875,-0.125,0.633685,-0.312885,1.91993
237,-7,-2,-12,-2,1,1,0,0,0.283203,0.49707,0.692383,-1.625,-0.1875,-0.125,0.633685,-0.312885,1.91993
238,-13,-6,4,-3,2,-2,0,0,0.283203,0.49707,0.692383,-1.625,-0.1875,-0.125,0.633685,-0.312885,1.91993
238,24,4,2,2,-2,-3,-2,1,0.283203,0.49707,0.692383,-1.625,-0.1875,-0.125,0.633685,-0.312885,1.91993
266,24,8,-6,-6,-2,0,0,-1,0.281738,0.500977,0.695801,0.6875,0.875,-0.125,0.633685,-0.312885,1.91993
266,-8,2,-4,-1,-2,-2,-1,0,0.281738,0.500977,0.695801,0.6875,0.875,-0.125,0.633685,-0.312885,1.91993
268,7,2,0,1,-3,0,-2,-5,0.274902,0.51123,0.70166,1.375,1.3125,-0.4375,0.633903,-0.31228,1.92013
268,4,-8,0,-1,-4,-2,-2,-2,0.274902,0.51123,0.70166,1.375,1.3125,-0.4375,0.633903,-0.31228,1.92013
272,-4,-4,-11,-2,0,0,0,-2,0.274902,0.51123,0.70166,1.375,1.3125,-0.4375,0.633903,-0.31228,1.92013
272,1,8,0,0,2,-1,1,-1,0.274902,0.51123,0.70166,1.375,1.3125,-0.4375,0.633903,-0.31228,1.92013
282,-6,-9,-5,-3,-4,-2,0,-2,0.269531,0.52002,0.695312,0.4375,0.4375,-0.9375,0.634042,-0.312194,1.92012
282,-2,3,1,-2,1,-3,-2,0,0.269531,0.52002,0.695312,0.4375,0.4375,-0.9375,0.634042,-0.312194,1.92012
296,-7,-4,0,2,-3,0,1,0,0.269531,0.52002,0.695312,0.4375,0.4375,-0.9375,0.634042,-0.312194,1.92012
296,-7,-4,4,1,-1,-2,-3,-2,0.269531,0.52002,0.695312,0.4375,0.4375,-0.9375,0.634042,-0.312194,1.92012
310,0,-1,-9,1,2,-1,-1,4,0.277344,0.50293,0.699219,-1.125,0.1875,-0.5625,0.633507,-0.312075,1.92016
310,-2,0,6,0,-5,0,-2,-3,0.277344,0.50293,0.699219,-1.125,0.1875,-0.5625,0.633507,-0.312075,1.92016
319,-5,-7,-16,-3,1,1,-2,1,0.277344,0.50293,0.699219,-1.125,0.1875,-0.5625,0.633507,-0.312075,1.92016
319,-4,3,10,2,-5,-2,-1,-2,0.277344,0.50293,0.699219,-1.125,0.1875,-0.5625,0.633507,-0.312075,1.92016
320,1,4,10,4,1,-2,0,0,0.28418,0.506348,0.698242,-0.9375,0.5,-0.75,0.633507,-0.312075,1.92016
320,-19,-14,-8,-3,-4,-2,-3,1,0.28418,0.506348,0.698242,-0.9375,0.5,-0.75,0.633507,-0.312075,1.92016
349,4,1,-16,-5,1,0,0,0,0.28418,0.506348,0.698242,-0.9375,0.5,-0.75,0.633507,-0.312075,1.92016
349,4,-2,5,0,2,-2,-1,-2,0.28418,0.506348,0.698242,-0.9375,0.5,-0.75,0.633507,-0.312075,1.92016
351,-9,0,9,-5,-6,-2,-1,-3,0.281738,0.51416,0.702148,0,1.3125,-0.5625,0.633336,-0.311538,1.92024
351,-1,5,6,4,5,1,-1,0,0.281738,0.51416,0.702148,0,1.3125,-0.5625,0.633336,-0.311538,1.92024
355,3,-4,16,1,0,-2,-1,-1,0.281738,0.51416,0.702148,0,1.3125,-0.5625,0.633336,-0.311538,1.92024
355,-9,-1,-13,-2,-2,1,-4,-8,0.281738,0.51416,0.702148,0,1.3125,-0.5625,0.633336,-0.311538,1.92024
364,9,-7,-7,-2,-2,-2,0,-1,0.279297,0.506348,0.70166,0.0625,1.75,-0.25,0.633091,-0.311142,1.92064
364,-6,-2,-3,-5,-3,-1,-2,0,0.279297,0.506348,0.70166,0.0625,1.75,-0.25,0.633091,-0.311142,1.92064
379,-5,-2,4,0,-4,-1,-2,-1,0.279297,0.506348,0.70166,0.0625,1.75,-0.25,0.633091,-0.311142,1.92064
379,1,-1,-18,-5,1,0,-1,-2,0.279297,0.506348,0.70166,0.0625,1.75,-0.25,0.633091,-0.311142,1.92064
380,1,6,-8,0,0,-1,2,0,0.265137,0.504883,0.711426,0.9375,1.3125,-0.125,0.632961,-0.310311,1.92096
380,1,-6,-16,-3,0,-3,-1,-6,0.265137,0.504883,0.711426,0.9375,1.3125,-0.125,0.632961,-0.310311,1.92096
401,-5,15,10,1,-2,-3,-1,1,0.265137,0.504883,0.711426,0.9375,1.3125,-0.125,0.632961,-0.310311,1.92096
401,11,-34,-1,0,0,-1,-2,0,0.265137,0.504883,0.711426,0.9375,1.3125,-0.125,0.632961,-0.310311,1.92096
403,-15,-2,-7,-2,0,-3,-1,2,0.264648,0.51123,0.703613,1.875,0.375,-0.25,0.633481,-0.309847,1.92117
403,0,-3,-16,0,0,0,1,2,0.264648,0.51123,0.703613,1.875,0.375,-0.25,0.633481,-0.309847,1.92117
424,-2,4,-5,0,-5,-2,-1,-3,0.264648,0.51123,0.703613,1.875,0.375,-0.25,0.633481,-0.309847,1.92117
424,0,6,8,3,1,0,1,1,0.264648,0.51123,0.703613,1.875,0.375,-0.25,0.633481,-0.309847,1.92117
425,15,2,-10,1,2,0,-2,0,0.274902,0.51123,0.70166,1.3125,-0.0625,-0.375,0.633883,-0.309719,1.92107
425,-4,3,9,0,-1,1,0,-3,0.274902,0.51123,0.70166,1.3125,-0.0625,-0.375,0.633883,-0.309719,1.92107
439,-13,-3,10,-3,-1,1,0,-3,0.274902,0.51123,0.70166,1.3125,-0.0625,-0.375,0.633883,-0.309719,1.92107
439,1,10,-13,-1,-3,-1,-1,-6,0.274902,0.51123,0.70166,1.3125,-0.0625,-0.375,0.633883,-0.309719,1.92107
440,-3,-9,12,-1,-2,-1,-1,-4,0.271973,0.516113,0.705566,1,-0.125,-0.375,0.634286,-0.309591,1.92098
440,-2,-3,7,-4,-5,-2,-1,0,0.271973,0.516113,0.705566,1,-0.125,-0.375,0.634286,-0.309591,1.92098
462,-1,1,-6,3,1,0,-3,-2,0.271973,0.516113,0.705566,1,-0.125,-0.375,0.634286,-0.309591,1.92098
462,-12,-5,-7,-4,-5,-3,2,1,0.271973,0.516113,0.705566,1,-0.125,-0.375,0.634286,-0.309591,1.92098
463,6,4,11,-1,0,-4,-2,0,0.272949,0.507324,0.701172,0.3125,-0.625,-0.5,0.634189,-0.309489,1.92099
463,2,5,-5,3,-6,-1,-1,-1,0.272949,0.507324,0.701172,0.3125,-0.625,-0.5,0.634189,-0.309489,1.92099
475,18,18,14,-2,3,-3,-3,2,0.272949,0.507324,0.701172,0.3125,-0.625,-0.5,0.634189,-0.309489,1.92099
475,1,-40,-22,-2,0,0,-1,0,0.272949,0.507324,0.701172,0.3125,-0.625,-0.5,0.634189,-0.309489,1.92099
484,-10,-1,0,-4,-2,0,-1,-2,0.284668,0.507812,0.697266,0,-0.8125,-0.4375,0.634189,-0.309489,1.92099
484,-2,-3,-17,-4,0,0,0,-1,0.284668,0.507812,0.697266,0,-0.8125,-0.4375,0.634189,-0.309489,1.92099
499,4,2,0,1,1,-1,0,1,0.284668,0.507812,0.697266,0,-0.8125,-0.4375,0.634189,-0.309489,1.92099
499,-15,8,14,0,-2,-2,-2,1,0.284668,0.507812,0.697266,0,-0.8125,-0.4375,0.634189,-0.309489,1.92099
500,8,6,-8,-6,0,0,-1,-1,0.285156,0.507324,0.693359,0.4375,-0.375,0.0625,0.634178,-0.309655,1.92095
500,12,6,13,2,0,0,0,0,0.285156,0.507324,0.693359,0.4375,-0.375,0.0625,0.634178,-0.309655,1.92095
522,-8,-15,-17,-1,-2,-2,-3,-4,0.285156,0.507324,0.693359,0.4375,-0.375,0.0625,0.634178,-0.309655,1.92095
522,-1,11,11,0,-2,0,-1,2,0.285156,0.507324,0.693359,0.4375,-0.375,0.0625,0.634178,-0.309655,1.92095
523,-5,-8,-2,0,-2,1,-2,-6,0.280762,0.50293,0.692871,0.875,0.375,0.0625,0.634178,-0.309655,1.92095
523,4,9,4,2,1,-1,-2,1,0.280762,0.50293,0.692871,0.875,0.375,0.0625,0.634178,-0.309655,1.92095
536,-25,-14,5,-3,0,-3,-1,-5,0.280762,0.50293,0.692871,0.875,0.375,0.0625,0.634178,-0.309655,1.92095
536,6,3,-16,-5,-2,-1,3,0,0.280762,0.50293,0.692871,0.875,0.375,0.0625,0.634178,-0.309655,1.92095
543,1,1,1,2,-3,-1,0,1,0.275879,0.512695,0.712402,1.1875,0.4375,-0.125,0.634267,-0.309447,1.92105
543,-10,-2,0,2,3,0,-3,-3,0.275879,0.512695,0.712402,1.1875,0.4375,-0.125,0.634267,-0.309447,1.92105
559,3,-6,3,-1,-4,-2,-3,-5,0.275879,0.512695,0.712402,1.1875,0.4375,-0.125,0.634267,-0.309447,1.92105
559,-3,3,-3,1,0,-2,0,0,0.275879,0.512695,0.712402,1.1875,0.4375,-0.125,0.634267,-0.309447,1.92105
565,-1,-4,9,0,4,0,-1,1,0.26709,0.511719,0.698242,1.3125,-0.125,-0.3125,0.634681,-0.309153,1.92099
565,4,3,-22,3,0,0,-2,-4,0.26709,0.511719,0.698242,1.3125,-0.125,-0.3125,0.634681,-0.309153,1.92099
581,-2,-15,0,-3,-1,-2,-1,4,0.26709,0.511719,0.698242,1.3125,-0.125,-0.3125,0.634681,-0.309153,1.92099
581,0,13,27,-3,-5,-2,0,-4,0.26709,0.511719,0.698242,1.3125,-0.125,-0.3125,0.634681,-0.309153,1.92099
588,1,1,-17,1,-3,0,0,0,0.273926,0.503418,0.689941,0.8125,-0.5,-0.6875,0.634681,-0.309153,1.92099
588,-15,-9,21,-1,-3,-2,0,-3,0.273926,0.503418,0.689941,0.8125,-0.5,-0.6875,0.634681,-0.309153,1.92099
596,4,-3,5,2,2,1,-1,1,0.273926,0.503418,0.689941,0.8125,-0.5,-0.6875,0.634681,-0.309153,1.92099
596,5,11,-9,-1,0,-2,-1,-2,0.273926,0.503418,0.689941,0.8125,-0.5,-0.6875,0.634681,-0.309153,1.92099
603,15,1,-2,-2,1,-1,-2,1,0.28418,0.508301,0.696289,1.9375,0.125,-0.625,0.635384,-0.309166,1.92091
603,-30,-8,3,-2,1,-1,-1,-6,0.28418,0.508301,0.696289,1.9375,0.125,-0.625,0.635384,-0.309166,1.92091
619,1,-6,-7,-1,-7,-1,0,0,0.28418,0.508301,0.696289,1.9375,0.125,-0.625,0.635384,-0.309166,1.92091
619,-14,5,-8,-6,0,-2,-2,-2,0.28418,0.508301,0.696289,1.9375,0.125,-0.625,0.635384,-0.309166,1.92091
621,2,-3,4,1,-1,-2,0,0,0.27832,0.512207,0.70166,1.9375,1,-0.375,0.635863,-0.30889,1.92112
621,3,-2,-19,-3,-2,-3,-3,0,0.27832,0.512207,0.70166,1.9375,1,-0.375,0.635863,-0.30889,1.92112
642,2,2,6,6,2,4,2,0,0.27832,0.512207,0.70166,1.9375,1,-0.375,0.635863,-0.30889,1.92112
642,6,-1,-15,-3,0,1,-1,0,0.27832,0.512207,0.70166,1.9375,1,-0.375,0.635863,-0.30889,1.92112
643,-7,-3,2,-1,-1,1,1,6,0.271973,0.510254,0.699707,2.0625,0.4375,-0.625,0.636493,-0.308469,1.92111
643,-3,-2,-2,0,0,1,0,2,0.271973,0.510254,0.699707,2.0625,0.4375,-0.625,0.636493,-0.308469,1.92111
656,-7,11,9,-3,-4,-1,1,-8,0.271973,0.510254,0.699707,2.0625,0.4375,-0.625,0.636493,-0.308469,1.92111
656,16,-11,-2,1,-4,-1,-2,1,0.271973,0.510254,0.699707,2.0625,0.4375,-0.625,0.636493,-0.308469,1.92111
663,-14,3,1,0,0,0,1,-1,0.278809,0.509766,0.698242,0.4375,0.5,-1.0625,0.636517,-0.308243,1.92094
663,31,24,24,-1,-6,0,0,5,0.278809,0.509766,0.698242,0.4375,0.5,-1.0625,0.636517,-0.308243,1.92094
679,-38,-13,-54,-6,3,-1,0,3,0.278809,0.509766,0.698242,0.4375,0.5,-1.0625,0.636517,-0.308243,1.92094
679,-7,-4,11,-1,0,0,-4,-1,0.278809,0.509766,0.698242,0.4375,0.5,-1.0625,0.636517,-0.308243,1.92094
681,6,-12,-2,-4,-1,-1,-1,-4,0.28418,0.503418,0.685547,2,0.875,-1.3125,0.637215,-0.308052,1.92073
681,3,8,10,-4,-2,-4,-1,3,0.28418,0.503418,0.685547,2,0.875,-1.3125,0.637215,-0.308052,1.92073
702,9,2,-3,-1,-4,-4,-4,-1,0.28418,0.503418,0.685547,2,0.875,-1.3125,0.637215,-0.308052,1.92073
702,-6,-5,-10,3,-2,-1,-1,-3,0.28418,0.503418,0.685547,2,0.875,-1.3125,0.637215,-0.308052,1.92073
703,-3,-2,3,3,-1,0,1,-1,0.278809,0.518555,0.689941,2.625,1.75,-1.3125,0.638259,-0.307337,1.92067
703,-1,0,8,0,-1,0,-1,-2,0.278809,0.518555,0.689941,2.625,1.75,-1.3125,0.638259,-0.307337,1.92067
716,8,1,-11,-3,2,0,-2,3,0.278809,0.518555,0.689941,2.625,1.75,-1.3125,0.638259,-0.307337,1.92067
716,-13,-7,3,2,1,0,-1,-4,0.278809,0.518555,0.689941,2.625,1.75,-1.3125,0.638259,-0.307337,1.92067
723,-1,9,9,-4,-3,-1,-3,-2,0.275391,0.518555,0.692383,1.0625,2.625,-1.0625,0.638737,-0.306418,1.92092
723,1,-11,-28,-1,0,1,-2,-6,0.275391,0.518555,0.692383,1.0625,2.625,-1.0625,0.638737,-0.306418,1.92092
739,22,-4,0,2,2,0,-1,3,0.275391,0.518555,0.692383,1.0625,2.625,-1.0625,0.638737,-0.306418,1.92092
739,-25,10,5,1,-2,-2,0,3,0.275391,0.518555,0.692383,1.0625,2.625,-1.0625,0.638737,-0.306418,1.92092
740,-10,-8,-3,-2,3,0,-2,-6,0.263184,0.515137,0.702637,2.375,2.6875,-0.1875,0.639292,-0.305352,1.92148
740,-5,0,-7,-2,-4,0,-2,-2,0.263184,0.515137,0.702637,2.375,2.6875,-0.1875,0.639292,-0.305352,1.92148
762,4,1,4,-1,-2,0,-2,-5,0.263184,0.515137,0.702637,2.375,2.6875,-0.1875,0.639292,-0.305352,1.92148
762,19,11,6,-2,-1,1,0,4,0.263184,0.515137,0.702637,2.375,2.6875,-0.1875,0.639292,-0.305352,1.92148
763,-17,-5,-9,-2,-1,-1,-2,0,0.255859,0.526367,0.710938,2.8125,1.4375,-0.375,0.640053,-0.304431,1.92182
763,-2,-13,-2,-2,-2,-2,-1,1,0.255859,0.526367,0.710938,2.8125,1.4375,-0.375,0.640053,-0.304431,1.92182
776,-2,2,13,0,-2,0,-1,-1,0.255859,0.526367,0.710938,2.8125,1.4375,-0.375,0.640053,-0.304431,1.92182
776,3,1,7,0,-1,-3,1,-1,0.255859,0.526367,0.710938,2.8125,1.4375,-0.375,0.640053,-0.304431,1.92182
783,3,4,-28,-4,-2,-1,-1,-3,0.269043,0.513184,0.703125,0.6875,0.875,0.125,0.639956,-0.304329,1.92183
783,-8,-5,-2,-2,0,-3,-1,-2,0.269043,0.513184,0.703125,0.6875,0.875,0.125,0.639956,-0.304329,1.92183
799,-2,-4,9,-1,-5,-2,-2,-1,0.269043,0.513184,0.703125,0.6875,0.875,0.125,0.639956,-0.304329,1.92183
799,-3,-8,-15,-1,3,-2,-3,-5,0.269043,0.513184,0.703125,0.6875,0.875,0.125,0.639956,-0.304329,1.92183
801,7,-17,2,-2,2,-2,-2,0,0.276855,0.502441,0.687012,1.4375,1.375,-0.375,0.640346,-0.304156,1.92219
801,-29,7,2,3,0,0,0,-2,0.276855,0.502441,0.687012,1.4375,1.375,-0.375,0.640346,-0.304156,1.92219
821,-2,6,15,-3,-3,-1,-3,3,0.276855,0.502441,0.687012,1.4375,1.375,-0.375,0.640346,-0.304156,1.92219
821,11,6,-7,0,-2,-1,-2,-10,0.276855,0.502441,0.687012,1.4375,1.375,-0.375,0.640346,-0.304156,1.92219
823,-3,-4,3,2,-2,-1,-1,-5,0.282227,0.51416,0.697266,3.3125,2.5625,-0.8125,0.641222,-0.303445,1.92241
823,13,-8,-4,0,-1,-2,-2,2,0.282227,0.51416,0.697266,3.3125,2.5625,-0.8125,0.641222,-0.303445,1.92241
835,-13,-8,1,-3,2,-2,0,-4,0.282227,0.51416,0.697266,3.3125,2.5625,-0.8125,0.641222,-0.303445,1.92241
835,18,7,-6,0,-1,1,-2,5,0.282227,0.51416,0.697266,3.3125,2.5625,-0.8125,0.641222,-0.303445,1.92241
844,5,-5,-1,1,-1,0,1,0,0.268555,0.521973,0.706055,3.375,2.9375,-0.625,0.642188,-0.302457,1.92302
844,12,6,7,0,1,-1,-2,2,0.268555,0.521973,0.706055,3.375,2.9375,-0.625,0.642188,-0.302457,1.92302
858,-10,-18,-4,-1,-1,0,-1,1,0.268555,0.521973,0.706055,3.375,2.9375,-0.625,0.642188,-0.302457,1.92302
858,2,6,15,1,-2,0,0,-3,0.268555,0.521973,0.706055,3.375,2.9375,-0.625,0.642188,-0.302457,1.92302
867,3,19,-10,-1,-9,-2,-2,-4,0.249512,0.539062,0.710938,3.125,1.4375,-0.3125,0.64324,-0.301271,1.92311
867,23,9,21,-1,1,-2,0,2,0.249512,0.539062,0.710938,3.125,1.4375,-0.3125,0.64324,-0.301271,1.92311
882,-37,-17,-18,-1,1,-1,1,-3,0.249512,0.539062,0.710938,3.125,1.4375,-0.3125,0.64324,-0.301271,1.92311
882,-3,-10,-13,-5,-5,-2,-1,0,0.249512,0.539062,0.710938,3.125,1.4375,-0.3125,0.64324,-0.301271,1.92311
883,3,3,6,0,-2,-2,-2,0,0.263184,0.535645,0.691406,0.875,-0.4375,-0.625,0.643349,-0.301207,1.92314
883,-15,-7,-2,0,-2,0,0,-2,0.263184,0.535645,0.691406,0.875,-0.4375,-0.625,0.643349,-0.301207,1.92314
895,27,24,9,0,0,-2,1,4,0.263184,0.535645,0.691406,0.875,-0.4375,-0.625,0.643349,-0.301207,1.92314
895,-4,2,-2,-1,2,-2,-3,-2,0.263184,0.535645,0.691406,0.875,-0.4375,-0.625,0.643349,-0.301207,1.92314
904,-9,-4,5,-3,0,-1,-1,1,0.274902,0.520508,0.686523,0.4375,-0.5,0.8125,0.643415,-0.301331,1.92317
904,2,11,-9,-1,-1,-1,-2,-1,0.274902,0.520508,0.686523,0.4375,-0.5,0.8125,0.643415,-0.301331,1.92317
919,-8,-14,-1,3,1,3,0,-2,0.274902,0.520508,0.686523,0.4375,-0.5,0.8125,0.643415,-0.301331,1.92317
919,7,10,-2,-1,-5,-3,0,1,0.274902,0.520508,0.686523,0.4375,-0.5,0.8125,0.643415,-0.301331,1.92317
921,4,-3,-3,-3,-3,-2,-3,-1,0.26416,0.52832,0.677734,1.1875,0.375,0.1875,0.644209,-0.301138,1.9232
921,-8,-2,-9,-2,-2,-3,-2,-2,0.26416,0.52832,0.677734,1.1875,0.375,0.1875,0.644209,-0.301138,1.9232
941,7,9,11,3,0,-1,-1,0,0.26416,0.52832,0.677734,1.1875,0.375,0.1875,0.644209,-0.301138,1.9232
941,-7,-4,-12,0,-2,-1,0,1,0.26416,0.52832,0.677734,1.1875,0.375,0.1875,0.644209,-0.301138,1.9232
943,-3,-11,-9,-1,-3,1,-1,-10,0.26416,0.521973,0.696289,0.6875,0.5625,0.5625,0.644209,-0.301138,1.9232
943,14,-1,-7,-2,3,1,2,-3,0.26416,0.521973,0.696289,0.6875,0.5625,0.5625,0.644209,-0.301138,1.9232
955,-12,1,19,-3,2,-3,-1,-1,0.26416,0.521973,0.696289,0.6875,0.5625,0.5625,0.644209,-0.301138,1.9232
955,-4,-3,-29,-4,-2,1,1,-3,0.26416,0.521973,0.696289,0.6875,0.5625,0.5625,0.644209,-0.301138,1.9232
964,-2,-5,-4,1,-3,0,1,3,0.262695,0.514648,0.702637,-0.25,-0.375,0,0.644112,-0.301036,1.9232
964,1,-2,-9,-3,-3,0,-2,1,0.262695,0.514648,0.702637,-0.25,-0.375,0,0.644112,-0.301036,1.9232
978,11,-10,-1,2,-3,-1,0,2,0.262695,0.514648,0.702637,-0.25,-0.375,0,0.644112,-0.301036,1.9232
978,5,6,0,2,2,-2,-1,3,0.262695,0.514648,0.702637,-0.25,-0.375,0,0.644112,-0.301036,1.9232
981,1,0,4,-1,2,0,-2,2,0.276367,0.522949,0.685059,0.625,-2,-0.25,0.644721,-0.3018,1.9226
981,-9,-1,-2,-3,-4,-2,-4,-3,0.276367,0.522949,0.685059,0.625,-2,-0.25,0.644721,-0.3018,1.9226
1002,2,7,1,-2,-1,-1,1,0,0.276367,0.522949,0.685059,0.625,-2,-0.25,0.644721,-0.3018,1.9226
1002,-9,-1,11,0,1,-2,-1,-2,0.276367,0.522949,0.685059,0.625,-2,-0.25,0.644721,-0.3018,1.9226
1003,2,-6,-9,0,-1,-1,-1,0,0.275879,0.527344,0.687012,-0.8125,-0.8125,0,0.644721,-0.3018,1.9226
1003,0,8,7,-1,-2,0,-2,2,0.275879,0.527344,0.687012,-0.8125,-0.8125,0,0.644721,-0.3018,1.9226
1015,1,-21,-6,-1,-3,1,-3,-3,0.275879,0.527344,0.687012,-0.8125,-0.8125,0,0.644721,-0.3018,1.9226
1015,-2,-1,11,-1,2,-1,-2,1,0.275879,0.527344,0.687012,-0.8125,-0.8125,0,0.644721,-0.3018,1.9226
1024,16,8,-7,-4,1,-3,-1,0,0.272949,0.51416,0.693359,-2.375,0.5625,0.3125,0.64377,-0.301866,1.92293
1024,-2,-5,2,3,0,0,-1,-4,0.272949,0.51416,0.693359,-2.375,0.5625,0.3125,0.64377,-0.301866,1.92293
1039,4,4,1,0,-3,0,0,-2,0.272949,0.51416,0.693359,-2.375,0.5625,0.3125,0.64377,-0.301866,1.92293
1039,-6,-9,-6,0,1,-1,1,1,0.272949,0.51416,0.693359,-2.375,0.5625,0.3125,0.64377,-0.301866,1.92293
1040,-10,-3,22,1,-2,-3,-2,7,0.26709,0.503418,0.694824,-1,0.875,0.1875,0.643565,-0.301828,1.92291
1040,17,4,-20,-5,0,1,1,2,0.26709,0.503418,0.694824,-1,0.875,0.1875,0.643565,-0.301828,1.92291
1061,-31,-13,-4,-1,2,-2,-2,-6,0.26709,0.503418,0.694824,-1,0.875,0.1875,0.643565,-0.301828,1.92291
1061,15,7,8,0,-6,0,-1,1,0.26709,0.503418,0.694824,-1,0.875,0.1875,0.643565,-0.301828,1.92291
1063,-5,12,3,-3,-1,-2,-1,2,0.26416,0.512207,0.705078,0.875,0.75,-0.375,0.643565,-0.301828,1.92291
1063,-5,-5,10,2,-1,0,0,-4,0.26416,0.512207,0.705078,0.875,0.75,-0.375,0.643565,-0.301828,1.92291
1075,3,-11,-14,-2,0,0,-1,-1,0.26416,0.512207,0.705078,0.875,0.75,-0.375,0.643565,-0.301828,1.92291
1075,8,-4,-1,-1,2,-1,-1,-2,0.26416,0.512207,0.705078,0.875,0.75,-0.375,0.643565,-0.301828,1.92291
1084,-8,-2,1,5,6,1,2,-1,0.263184,0.520508,0.703613,1.875,-0.3125,-0.75,0.644101,-0.301412,1.92268
1084,-14,0,-1,-2,-3,-3,-1,6,0.263184,0.520508,0.703613,1.875,-0.3125,-0.75,0.644101,-0.301412,1.92268
1106,26,-14,-1,-4,0,-3,-1,-2,0.263184,0.520508,0.703613,1.875,-0.3125,-0.75,0.644101,-0.301412,1.92268
1106,-1,48,16,0,-6,-2,-1,-3,0.263184,0.520508,0.703613,1.875,-0.3125,-0.75,0.644101,-0.301412,1.92268
1108,6,-24,-28,1,-2,0,-2,-2,0.267578,0.532227,0.698242,0.3125,-0.375,-0.375,0.644101,-0.301412,1.92268
1108,-7,-6,17,1,-1,0,1,-2,0.267578,0.532227,0.698242,0.3125,-0.375,-0.375,0.644101,-0.301412,1.92268
1121,0,3,2,2,-1,0,0,2,0.267578,0.532227,0.698242,0.3125,-0.375,-0.375,0.644101,-0.301412,1.92268
1121,-2,-16,-13,-4,-3,1,-1,1,0.267578,0.532227,0.698242,0.3125,-0.375,-0.375,0.644101,-0.301412,1.92268
1127,-15,5,12,-1,1,-1,-2,-9,0.275391,0.526855,0.683594,0.1875,-0.0625,-0.3125,0.644198,-0.301513,1.92268
1127,-10,-9,-5,0,-1,-2,1,-2,0.275391,0.526855,0.683594,0.1875,-0.0625,-0.3125,0.644198,-0.301513,1.92268
1144,13,15,-10,-2,-3,-1,-2,0,0.275391,0.526855,0.683594,0.1875,-0.0625,-0.3125,0.644198,-0.301513,1.92268
1144,-8,-17,-3,0,-1,1,1,-5,0.275391,0.526855,0.683594,0.1875,-0.0625,-0.3125,0.644198,-0.301513,1.92268
1146,4,9,-6,0,2,0,0,2,0.265137,0.519531,0.694336,-0.4375,0.5625,-0.1875,0.644198,-0.301513,1.92268
1146,14,4,-1,1,-1,-1,-4,-2,0.265137,0.519531,0.694336,-0.4375,0.5625,-0.1875,0.644198,-0.301513,1.92268
1166,-41,-14,5,-1,0,0,-2,-4,0.265137,0.519531,0.694336,-0.4375,0.5625,-0.1875,0.644198,-0.301513,1.92268
1166,14,31,-10,-6,-2,-3,-4,-5,0.265137,0.519531,0.694336,-0.4375,0.5625,-0.1875,0.644198,-0.301513,1.92268
1168,7,-5,-2,-3,-3,-2,0,4,0.268555,0.512207,0.694824,-0.875,0.5,-0.375,0.644198,-0.301513,1.92268
1168,2,-3,2,-1,2,-2,0,0,0.268555,0.512207,0.694824,-0.875,0.5,-0.375,0.644198,-0.301513,1.92268
1181,6,8,7,-1,-3,-1,0,0,0.268555,0.512207,0.694824,-0.875,0.5,-0.375,0.644198,-0.301513,1.92268
1181,-9,-32,-6,0,2,1,-1,0,0.268555,0.512207,0.694824,-0.875,0.5,-0.375,0.644198,-0.301513,1.92268
1188,-2,-7,-1,1,1,-1,-1,-3,0.270508,0.516602,0.69873,-0.375,0.375,0.25,0.644101,-0.301412,1.92268
1188,-5,19,-2,-7,-4,-1,-2,-1,0.270508,0.516602,0.69873,-0.375,0.375,0.25,0.644101,-0.301412,1.92268
1204,5,-3,-8,-2,-2,-4,0,-2,0.270508,0.516602,0.69873,-0.375,0.375,0.25,0.644101,-0.301412,1.92268
1204,-11,-16,26,0,1,-1,-2,-3,0.270508,0.516602,0.69873,-0.375,0.375,0.25,0.644101,-0.301412,1.92268
1205,11,11,-25,2,1,0,0,1,0.26709,0.52832,0.696289,-0.8125,-0.375,-0.1875,0.644101,-0.301412,1.92268
1205,-9,-32,0,1,3,0,-1,-1,0.26709,0.52832,0.696289,-0.8125,-0.375,-0.1875,0.644101,-0.301412,1.92268
1227,4,12,8,2,1,1,0,0,0.26709,0.52832,0.696289,-0.8125,-0.375,-0.1875,0.644101,-0.301412,1.92268
1227,-7,4,3,-1,0,-1,-1,0,0.26709,0.52832,0.696289,-0.8125,-0.375,-0.1875,0.644101,-0.301412,1.92268
1228,-17,7,10,0,-2,-1,-4,-3,0.270996,0.515625,0.695801,-1.625,-0.3125,0.75,0.643499,-0.301704,1.92289
1228,-8,-2,-7,4,1,1,2,-1,0.270996,0.515625,0.695801,-1.625,-0.3125,0.75,0.643499,-0.301704,1.92289
1241,21,2,-11,-6,-3,-1,-2,-4,0.270996,0.515625,0.695801,-1.625,-0.3125,0.75,0.643499,-0.301704,1.92289
1241,-19,-22,-1,3,3,1,2,0,0.270996,0.515625,0.695801,-1.625,-0.3125,0.75,0.643499,-0.301704,1.92289
1248,-8,15,-7,-5,0,-1,-3,-5,0.267578,0.519531,0.692871,1,-0.0625,0.125,0.643752,-0.301723,1.92301
1248,15,-24,-6,-6,-7,-3,-4,-2,0.267578,0.519531,0.692871,1,-0.0625,0.125,0.643752,-0.301723,1.92301
1264,-11,19,5,-2,-3,-2,-1,-2,0.267578,0.519531,0.692871,1,-0.0625,0.125,0.643752,-0.301723,1.92301
1264,5,-5,-2,-2,-3,-2,1,0,0.267578,0.519531,0.692871,1,-0.0625,0.125,0.643752,-0.301723,1.92301
1266,-22,-14,7,-2,-2,0,2,3,0.257812,0.51416,0.700195,0.625,0.1875,-0.0625,0.643686,-0.301599,1.92298
1266,5,4,0,0,-1,-2,1,-3,0.257812,0.51416,0.700195,0.625,0.1875,-0.0625,0.643686,-0.301599,1.92298
1287,3,3,-8,5,1,0,1,0,0.257812,0.51416,0.700195,0.625,0.1875,-0.0625,0.643686,-0.301599,1.92298
1287,5,-3,-1,0,-2,-3,0,1,0.257812,0.51416,0.700195,0.625,0.1875,-0.0625,0.643686,-0.301599,1.92298
1288,0,1,-13,-2,-2,-1,0,-3,0.258789,0.518555,0.693848,0.5,-0.5,0.5625,0.643686,-0.301599,1.92298
1288,-2,15,19,-2,-3,-4,-1,0,0.258789,0.518555,0.693848,0.5,-0.5,0.5625,0.643686,-0.301599,1.92298
1300,-3,-12,-6,2,1,-1,-1,2,0.258789,0.518555,0.693848,0.5,-0.5,0.5625,0.643686,-0.301599,1.92298
1300,-1,-11,-12,-2,1,1,-2,0,0.258789,0.518555,0.693848,0.5,-0.5,0.5625,0.643686,-0.301599,1.92298
1309,10,-1,22,-1,-3,-2,-3,-3,0.266113,0.529785,0.686035,0.0625,-1.6875,-0.125,0.644162,-0.30201,1.92257
1309,5,19,-3,0,-6,-2,-2,4,0.266113,0.529785,0.686035,0.0625,-1.6875,-0.125,0.644162,-0.30201,1.92257
1324,3,17,-3,-3,2,-1,-3,-2,0.266113,0.529785,0.686035,0.0625,-1.6875,-0.125,0.644162,-0.30201,1.92257
1324,1,-3,-3,0,-1,-1,1,1,0.266113,0.529785,0.686035,0.0625,-1.6875,-0.125,0.644162,-0.30201,1.92257
1326,5,-11,-2,2,0,0,-1,-2,0.276855,0.518066,0.688965,-0.9375,-1,-0.0625,0.644162,-0.30201,1.92257
1326,-3,-14,1,-2,0,1,-1,0,0.276855,0.518066,0.688965,-0.9375,-1,-0.0625,0.644162,-0.30201,1.92257
1354,-12,12,-10,-2,-3,-1,2,0,0.276855,0.518066,0.688965,-0.9375,-1,-0.0625,0.644162,-0.30201,1.92257
1354,7,-9,-7,-3,-3,0,-2,0,0.276855,0.518066,0.688965,-0.9375,-1,-0.0625,0.644162,-0.30201,1.92257
1355,8,6,9,2,0,1,-2,0,0.274902,0.507812,0.6875,-0.0625,-0.5,0.1875,0.644054,-0.302073,1.92254
1355,-12,-5,-10,-2,2,0,0,-1,0.274902,0.507812,0.6875,-0.0625,-0.5,0.1875,0.644054,-0.302073,1.92254
1360,-4,-3,22,3,-6,0,0,3,0.274902,0.507812,0.6875,-0.0625,-0.5,0.1875,0.644054,-0.302073,1.92254
1360,-38,13,-9,1,-1,-2,0,-6,0.274902,0.507812,0.6875,-0.0625,-0.5,0.1875,0.644054,-0.302073,1.92254
1369,2,-6,-5,-4,-1,-3,0,0,0.265137,0.515625,0.697754,0.1875,-0.125,0.1875,0.644054,-0.302073,1.92254
1369,11,-1,-1,0,0,-1,-2,0,0.265137,0.515625,0.697754,0.1875,-0.125,0.1875,0.644054,-0.302073,1.92254
1384,-1,-14,-12,-3,3,-1,0,-4,0.265137,0.515625,0.697754,0.1875,-0.125,0.1875,0.644054,-0.302073,1.92254
1384,10,2,-1,-6,-6,0,1,1,0.265137,0.515625,0.697754,0.1875,-0.125,0.1875,0.644054,-0.302073,1.92254
1385,-6,-9,3,-3,0,1,0,-1,0.268066,0.519531,0.698242,0.3125,-0.3125,0,0.643957,-0.301972,1.92255
1385,-2,-3,0,4,1,3,-1,-1,0.268066,0.519531,0.698242,0.3125,-0.3125,0,0.643957,-0.301972,1.92255
1407,-6,5,3,0,0,1,-1,0,0.268066,0.519531,0.698242,0.3125,-0.3125,0,0.643957,-0.301972,1.92255
1407,33,8,4,-4,-4,0,-2,4,0.268066,0.519531,0.698242,0.3125,-0.3125,0,0.643957,-0.301972,1.92255
1408,4,-2,-15,-4,-5,-1,-2,0,0.265625,0.524414,0.695801,0,-0.625,-0.1875,0.644065,-0.301908,1.92257
1408,-12,-39,-3,0,1,-1,-1,-4,0.265625,0.524414,0.695801,0,-0.625,-0.1875,0.644065,-0.301908,1.92257
1420,2,25,-1,-3,0,-2,-2,-6,0.265625,0.524414,0.695801,0,-0.625,-0.1875,0.644065,-0.301908,1.92257
1420,14,25,5,2,-3,-4,-3,1,0.265625,0.524414,0.695801,0,-0.625,-0.1875,0.644065,-0.301908,1.92257
1429,-23,-12,-5,-2,-2,-3,0,-4,0.272461,0.51416,0.691895,0.6875,-0.1875,-0.25,0.643957,-0.301972,1.92255
1429,-5,1,11,1,-1,-1,-2,-1,0.272461,0.51416,0.691895,0.6875,-0.1875,-0.25,0.643957,-0.301972,1.92255
1445,-3,-17,-11,2,0,0,1,2,0.272461,0.51416,0.691895,0.6875,-0.1875,-0.25,0.643957,-0.301972,1.92255
1445,-11,-6,-4,-1,-2,-1,-2,-3,0.272461,0.51416,0.691895,0.6875,-0.1875,-0.25,0.643957,-0.301972,1.92255
1446,19,5,4,-3,-4,-2,-2,9,0.267578,0.524902,0.693848,1.6875,-0.25,-0.3125,0.644722,-0.301905,1.92236
1446,-8,-8,6,-1,0,1,-1,-7,0.267578,0.524902,0.693848,1.6875,-0.25,-0.3125,0.644722,-0.301905,1.92236
1466,-6,1,-6,2,3,-3,-2,-2,0.267578,0.524902,0.693848,1.6875,-0.25,-0.3125,0.644722,-0.301905,1.92236
1466,35,10,-1,-7,-1,0,2,7,0.267578,0.524902,0.693848,1.6875,-0.25,-0.3125,0.644722,-0.301905,1.92236
1469,1,1,20,7,5,1,2,-1,0.265625,0.521973,0.696777,0.3125,0.0625,-0.25,0.644722,-0.301905,1.92236
1469,15,11,-30,-7,-1,-1,0,3,0.265625,0.521973,0.696777,0.3125,0.0625,-0.25,0.644722,-0.301905,1.92236
1480,-3,-6,2,-2,-2,-1,0,-1,0.265625,0.521973,0.696777,0.3125,0.0625,-0.25,0.644722,-0.301905,1.92236
1480,-14,-9,8,3,1,0,0,-3,0.265625,0.521973,0.696777,0.3125,0.0625,-0.25,0.644722,-0.301905,1.92236
1489,7,19,0,-5,-6,-2,0,-3,0.265137,0.518066,0.697266,0.875,-0.75,-0.5,0.644673,-0.301819,1.92251
1489,-2,5,0,3,0,1,1,-1,0.265137,0.518066,0.697266,0.875,-0.75,-0.5,0.644673,-0.301819,1.92251
1505,38,-8,5,-4,-3,1,-1,0,0.265137,0.518066,0.697266,0.875,-0.75,-0.5,0.644673,-0.301819,1.92251
1505,-25,-23,-15,-1,2,-3,-2,-3,0.265137,0.518066,0.697266,0.875,-0.75,-0.5,0.644673,-0.301819,1.92251
1506,8,32,18,0,-1,-2,-2,-9,0.272949,0.514648,0.693359,0.5625,-1,-0.4375,0.644643,-0.301841,1.92254
1506,-3,18,3,-2,-2,-3,-2,-1,0.272949,0.514648,0.693359,0.5625,-1,-0.4375,0.644643,-0.301841,1.92254
1527,2,-3,-4,1,-1,0,-1,2,0.272949,0.514648,0.693359,0.5625,-1,-0.4375,0.644643,-0.301841,1.92254
1527,12,-13,-13,0,-2,-1,-3,-2,0.272949,0.514648,0.693359,0.5625,-1,-0.4375,0.644643,-0.301841,1.92254
1528,-4,-11,6,3,0,2,-1,-1,0.274902,0.524902,0.691895,1.6875,-0.625,-0.5,0.645396,-0.302046,1.92208
1528,3,0,-9,-1,-1,-3,0,1,0.274902,0.524902,0.691895,1.6875,-0.625,-0.5,0.645396,-0.302046,1.92208
1540,-6,-1,-4,-2,-4,-1,-2,-2,0.274902,0.524902,0.691895,1.6875,-0.625,-0.5,0.645396,-0.302046,1.92208
1540,-11,-4,12,-3,2,-2,-1,-2,0.274902,0.524902,0.691895,1.6875,-0.625,-0.5,0.645396,-0.302046,1.92208
1549,-3,6,-17,5,-1,0,0,1,0.274414,0.536621,0.6875,0.4375,-0.75,-0.5,0.645505,-0.301982,1.92211
1549,-2,-3,0,-1,0,0,-1,-1,0.274414,0.536621,0.6875,0.4375,-0.75,-0.5,0.645505,-0.301982,1.92211
1564,-7,-15,25,-2,0,-1,0,-1,0.274414,0.536621,0.6875,0.4375,-0.75,-0.5,0.645505,-0.301982,1.92211
1564,-6,6,-18,-1,0,-1,-2,-5,0.274414,0.536621,0.6875,0.4375,-0.75,-0.5,0.645505,-0.301982,1.92211
1565,12,-6,-2,-6,0,-1,0,4,0.258301,0.523438,0.700195,-1.0625,-1.1875,-0.375,0.645156,-0.301966,1.92176
1565,7,5,10,0,-4,0,-1,2,0.258301,0.523438,0.700195,-1.0625,-1.1875,-0.375,0.645156,-0.301966,1.92176
1587,3,-3,-5,0,-3,-2,-1,0,0.258301,0.523438,0.700195,-1.0625,-1.1875,-0.375,0.645156,-0.301966,1.92176
1587,-9,5,1,3,0,0,-1,-4,0.258301,0.523438,0.700195,-1.0625,-1.1875,-0.375,0.645156,-0.301966,1.92176
1588,2,-5,-7,-2,0,-1,-1,-1,0.262207,0.510742,0.70459,-1.9375,-1.0625,0.8125,0.644067,-0.302224,1.92185
1588,-10,-24,0,0,1,-2,-3,-1,0.262207,0.510742,0.70459,-1.9375,-1.0625,0.8125,0.644067,-0.302224,1.92185
1601,-9,11,2,0,-2,-2,0,2,0.262207,0.510742,0.70459,-1.9375,-1.0625,0.8125,0.644067,-0.302224,1.92185
1601,3,-2,-2,-1,-2,1,-2,-5,0.262207,0.510742,0.70459,-1.9375,-1.0625,0.8125,0.644067,-0.302224,1.92185
1617,-4,11,-10,-1,2,-2,-2,0,0.268555,0.510254,0.685547,-0.1875,-1.0625,0.375,0.643953,-0.302656,1.92192
1617,4,4,-1,-3,2,0,1,-1,0.268555,0.510254,0.685547,-0.1875,-1.0625,0.375,0.643953,-0.302656,1.92192
1624,-8,-8,-10,1,-2,-1,-3,0,0.268555,0.510254,0.685547,-0.1875,-1.0625,0.375,0.643953,-0.302656,1.92192
1624,-11,-12,9,-2,-3,2,-1,0,0.268555,0.510254,0.685547,-0.1875,-1.0625,0.375,0.643953,-0.302656,1.92192
1626,-2,7,-15,0,-3,-2,-1,-1,0.267578,0.515625,0.693359,0.5,-0.625,0.0625,0.643953,-0.302656,1.92192
1626,9,3,-2,-4,-1,1,0,-5,0.267578,0.515625,0.693359,0.5,-0.625,0.0625,0.643953,-0.302656,1.92192
1646,-24,-5,3,-2,-3,-1,-2,-1,0.267578,0.515625,0.693359,0.5,-0.625,0.0625,0.643953,-0.302656,1.92192
1646,2,6,4,0,0,-2,2,0,0.267578,0.515625,0.693359,0.5,-0.625,0.0625,0.643953,-0.302656,1.92192
1647,-13,-12,12,2,-2,-2,-3,-5,0.273926,0.516113,0.692871,1.375,-0.625,-0.375,0.644393,-0.302781,1.92165
1647,18,-1,-2,-3,-3,-1,1,5,0.273926,0.516113,0.692871,1.375,-0.625,-0.375,0.644393,-0.302781,1.92165
1660,-3,7,1,0,2,-2,-2,-5,0.273926,0.516113,0.692871,1.375,-0.625,-0.375,0.644393,-0.302781,1.92165
1660,5,6,-1,2,0,1,-1,0,0.273926,0.516113,0.692871,1.375,-0.625,-0.375,0.644393,-0.302781,1.92165
1675,-7,5,-4,-6,0,-2,0,2,0.279785,0.516602,0.692871,-0.125,0.1875,-0.4375,0.64449,-0.302883,1.92164
1675,-11,-2,6,5,-2,-1,-1,-1,0.279785,0.516602,0.692871,-0.125,0.1875,-0.4375,0.64449,-0.302883,1.92164
1684,2,3,-4,-4,2,-1,-1,1,0.279785,0.516602,0.692871,-0.125,0.1875,-0.4375,0.64449,-0.302883,1.92164
1684,-1,-9,0,-2,-3,-2,2,1,0.279785,0.516602,0.692871,-0.125,0.1875,-0.4375,0.64449,-0.302883,1.92164
1686,1,-9,-10,0,1,2,-2,-6,0.272461,0.527344,0.698242,1,0.3125,-0.0625,0.644784,-0.302714,1.92176
1686,28,18,5,-2,-2,0,-2,5,0.272461,0.527344,0.698242,1,0.3125,-0.0625,0.644784,-0.302714,1.92176
1706,-50,-11,-13,-3,-1,-1,0,-7,0.272461,0.527344,0.698242,1,0.3125,-0.0625,0.644784,-0.302714,1.92176
1706,13,-4,-17,0,-1,-4,-1,1,0.272461,0.527344,0.698242,1,0.3125,-0.0625,0.644784,-0.302714,1.92176
1708,-7,-7,16,-4,-4,-2,1,-1,0.267578,0.523926,0.691406,-0.8125,0.25,0.1875,0.644784,-0.302714,1.92176
1708,-5,1,-7,-1,-1,0,0,0,0.267578,0.523926,0.691406,-0.8125,0.25,0.1875,0.644784,-0.302714,1.92176
1720,9,11,-5,-1,-2,0,1,0,0.267578,0.523926,0.691406,-0.8125,0.25,0.1875,0.644784,-0.302714,1.92176
1720,-17,-18,4,-3,0,-2,-2,-5,0.267578,0.523926,0.691406,-0.8125,0.25,0.1875,0.644784,-0.302714,1.92176
1729,1,6,13,-1,-1,-1,0,1,0.270508,0.52002,0.693848,-0.6875,-0.0625,0,0.644784,-0.302714,1.92176
1729,-11,-7,-6,-4,-2,-2,0,-3,0.270508,0.52002,0.693848,-0.6875,-0.0625,0,0.644784,-0.302714,1.92176
1745,11,11,-7,9,1,-3,-1,1,0.270508,0.52002,0.693848,-0.6875,-0.0625,0,0.644784,-0.302714,1.92176
1745,-6,-4,-12,-7,-3,-2,0,-1,0.270508,0.52002,0.693848,-0.6875,-0.0625,0,0.644784,-0.302714,1.92176
1746,6,-26,-26,-4,1,0,-1,0,0.265625,0.528809,0.69043,-0.125,-0.3125,-0.1875,0.644784,-0.302714,1.92176
1746,-14,7,6,1,0,0,-2,-2,0.265625,0.528809,0.69043,-0.125,-0.3125,-0.1875,0.644784,-0.302714,1.92176
1767,25,-8,-13,-4,-3,1,1,0,0.265625,0.528809,0.69043,-0.125,-0.3125,-0.1875,0.644784,-0.302714,1.92176
1767,-6,10,2,0,-6,-2,2,4,0.265625,0.528809,0.69043,-0.125,-0.3125,-0.1875,0.644784,-0.302714,1.92176
1769,20,-15,2,3,1,0,0,6,0.272461,0.519043,0.688965,-1.4375,-0.1875,-0.375,0.644423,-0.302758,1.92162
1769,-14,22,6,-2,1,-3,-3,1,0.272461,0.519043,0.688965,-1.4375,-0.1875,-0.375,0.644423,-0.302758,1.92162
1789,25,12,4,0,-1,1,0,0,0.272461,0.519043,0.688965,-1.4375,-0.1875,-0.375,0.644423,-0.302758,1.92162
1789,-32,-19,-6,-4,-1,-3,-2,-7,0.272461,0.519043,0.688965,-1.4375,-0.1875,-0.375,0.644423,-0.302758,1.92162
1791,0,1,5,7,1,0,-3,-3,0.274902,0.506348,0.699707,-1.1875,1,-0.1875,0.643574,-0.302558,1.92184
1791,-13,-11,-6,0,-1,0,-1,-2,0.274902,0.506348,0.699707,-1.1875,1,-0.1875,0.643574,-0.302558,1.92184
1804,5,15,8,1,1,1,0,2,0.274902,0.506348,0.699707,-1.1875,1,-0.1875,0.643574,-0.302558,1.92184
1804,18,16,18,3,1,-1,0,0,0.274902,0.506348,0.699707,-1.1875,1,-0.1875,0.643574,-0.302558,1.92184
1805,-2,0,-45,-7,-6,-3,-2,2,0.276855,0.510254,0.693848,-0.0625,1.3125,-0.375,0.643291,-0.30235,1.92224
1805,-40,-4,8,0,-1,-1,-2,-5,0.276855,0.510254,0.693848,-0.0625,1.3125,-0.375,0.643291,-0.30235,1.92224
1827,-1,-23,-15,-1,-2,0,0,-1,0.276855,0.510254,0.693848,-0.0625,1.3125,-0.375,0.643291,-0.30235,1.92224
1827,3,-1,24,1,0,0,0,0,0.276855,0.510254,0.693848,-0.0625,1.3125,-0.375,0.643291,-0.30235,1.92224
1828,1,9,30,-3,-3,-3,0,-1,0.268555,0.512207,0.694824,0.1875,1.6875,-1.125,0.643194,-0.301606,1.92229
1828,5,-3,-57,13,-1,1,2,0,0.268555,0.512207,0.694824,0.1875,1.6875,-1.125,0.643194,-0.301606,1.92229
1849,-5,-23,17,-12,-4,-1,-2,-1,0.268555,0.512207,0.694824,0.1875,1.6875,-1.125,0.643194,-0.301606,1.92229
1849,4,10,-5,-2,-3,-1,-2,1,0.268555,0.512207,0.694824,0.1875,1.6875,-1.125,0.643194,-0.301606,1.92229
1851,2,2,22,-2,-2,-1,-2,-4,0.267578,0.528809,0.693359,1.1875,0.8125,-1.875,0.643892,-0.300878,1.92189
1851,-4,7,15,-6,-2,-2,-3,0,0.267578,0.528809,0.693359,1.1875,0.8125,-1.875,0.643892,-0.300878,1.92189
1864,-4,6,-1,2,0,-2,-1,0,0.267578,0.528809,0.693359,1.1875,0.8125,-1.875,0.643892,-0.300878,1.92189
1864,18,-3,-17,1,0,0,-2,0,0.267578,0.528809,0.693359,1.1875,0.8125,-1.875,0.643892,-0.300878,1.92189
1865,-18,-8,-5,-3,1,-2,2,0,0.266113,0.531738,0.70166,-1.125,1.375,-1.0625,0.643718,-0.300174,1.92188
1865,6,-2,4,3,-2,-1,1,-2,0.266113,0.531738,0.70166,-1.125,1.375,-1.0625,0.643718,-0.300174,1.92188
1886,25,15,13,2,-6,3,-1,-3,0.266113,0.531738,0.70166,-1.125,1.375,-1.0625,0.643718,-0.300174,1.92188
1886,-8,-24,-25,-3,8,-1,-1,5,0.266113,0.531738,0.70166,-1.125,1.375,-1.0625,0.643718,-0.300174,1.92188
1894,-10,-5,-22,-2,2,-2,2,-5,0.268066,0.517578,0.692383,-2,1.25,-0.75,0.642894,-0.299748,1.92194
1894,1,-10,43,4,-2,-1,-1,-1,0.268066,0.517578,0.692383,-2,1.25,-0.75,0.642894,-0.299748,1.92194
1909,-1,17,17,-5,-4,-1,-1,-3,0.268066,0.517578,0.692383,-2,1.25,-0.75,0.642894,-0.299748,1.92194
1909,13,8,-35,-5,-4,-1,0,2,0.268066,0.517578,0.692383,-2,1.25,-0.75,0.642894,-0.299748,1.92194
1910,-10,-25,-6,0,0,0,-2,2,0.273926,0.504395,0.685547,0,1.6875,-0.9375,0.642648,-0.299255,1.92197
1910,2,-6,-7,-7,0,-2,-2,-7,0.273926,0.504395,0.685547,0,1.6875,-0.9375,0.642648,-0.299255,1.92197
1924,-4,0,14,2,0,-3,-2,1,0.273926,0.504395,0.685547,0,1.6875,-0.9375,0.642648,-0.299255,1.92197
1924,-3,8,17,2,-2,-1,-1,-1,0.273926,0.504395,0.685547,0,1.6875,-0.9375,0.642648,-0.299255,1.92197
1930,15,-1,-21,-4,-5,-1,-3,-2,0.270996,0.501465,0.701172,1.8125,2.875,-1.8125,0.642877,-0.298215,1.92235
1930,-2,4,15,-2,3,0,-2,-1,0.270996,0.501465,0.701172,1.8125,2.875,-1.8125,0.642877,-0.298215,1.92235
1954,-18,-11,-20,1,0,-1,2,1,0.270996,0.501465,0.701172,1.8125,2.875,-1.8125,0.642877,-0.298215,1.92235
1954,10,-4,-1,1,-1,-3,-1,-2,0.270996,0.501465,0.701172,1.8125,2.875,-1.8125,0.642877,-0.298215,1.92235
1956,10,26,13,-1,-5,-1,-1,-1,0.262207,0.504395,0.693848,2.75,3.8125,-1.125,0.643245,-0.296949,1.92293
1956,0,-31,-15,-5,-1,-2,-2,-2,0.262207,0.504395,0.693848,2.75,3.8125,-1.125,0.643245,-0.296949,1.92293
1969,-6,-5,-2,-1,4,-1,-4,-1,0.262207,0.504395,0.693848,2.75,3.8125,-1.125,0.643245,-0.296949,1.92293
1969,0,1,-9,1,-1,0,-1,-2,0.262207,0.504395,0.693848,2.75,3.8125,-1.125,0.643245,-0.296949,1.92293
1971,-1,-8,5,1,-1,1,1,-2,0.253418,0.511719,0.709473,3.25,4.4375,-1.1875,0.64379,-0.295101,1.92363
1971,11,2,-1,-2,0,-3,0,8,0.253418,0.511719,0.709473,3.25,4.4375,-1.1875,0.64379,-0.295101,1.92363
1984,-25,-2,-14,-2,-3,-1,-3,-7,0.253418,0.511719,0.709473,3.25,4.4375,-1.1875,0.64379,-0.295101,1.92363
1984,13,-2,19,1,-3,-1,-1,-3,0.253418,0.511719,0.709473,3.25,4.4375,-1.1875,0.64379,-0.295101,1.92363
1990,12,9,-10,-8,-5,-1,-4,-1,0.249023,0.531738,0.703613,4.75,3,-1.625,0.645496,-0.293536,1.92391
1990,-40,-11,-8,-1,2,-1,-2,-3,0.249023,0.531738,0.703613,4.75,3,-1.625,0.645496,-0.293536,1.92391
2006,12,-1,5,-4,3,-1,0,3,0.249023,0.531738,0.703613,4.75,3,-1.625,0.645496,-0.293536,1.92391
2006,-3,12,-11,-1,-2,-2,-3,1,0.249023,0.531738,0.703613,4.75,3,-1.625,0.645496,-0.293536,1.92391
2008,-24,-11,12,4,0,2,0,-9,0.25293,0.537109,0.695312,3.75,2.0625,-1.0625,0.646943,-0.292392,1.92389
2008,14,-4,-14,-2,-3,0,0,1,0.25293,0.537109,0.695312,3.75,2.0625,-1.0625,0.646943,-0.292392,1.92389
2029,5,6,4,1,2,-1,0,-1,0.25293,0.537109,0.695312,3.75,2.0625,-1.0625,0.646943,-0.292392,1.92389
2029,-13,6,5,-6,-6,-3,0,-2,0.25293,0.537109,0.695312,3.75,2.0625,-1.0625,0.646943,-0.292392,1.92389
2030,-6,-8,-15,1,2,-4,-2,2,0.261719,0.527344,0.69043,1.1875,1.3125,-0.1875,0.647564,-0.292033,1.92411
2030,11,2,-1,1,-1,0,-1,1,0.261719,0.527344,0.69043,1.1875,1.3125,-0.1875,0.647564,-0.292033,1.92411
2044,-4,-8,10,0,-1,-2,-2,-13,0.261719,0.527344,0.69043,1.1875,1.3125,-0.1875,0.647564,-0.292033,1.92411
2044,-4,-1,-8,-1,1,1,0,0,0.261719,0.527344,0.69043,1.1875,1.3125,-0.1875,0.647564,-0.292033,1.92411
2050,-6,1,6,-1,-3,-2,0,-1,0.266602,0.516113,0.686523,2.1875,1.5,0.5,0.647994,-0.291905,1.92477
2050,7,6,8,-1,0,2,-1,1,0.266602,0.516113,0.686523,2.1875,1.5,0.5,0.647994,-0.291905,1.92477
2066,-8,13,-31,-1,-3,-1,-2,3,0.266602,0.516113,0.686523,2.1875,1.5,0.5,0.647994,-0.291905,1.92477
2066,7,-25,22,-2,2,0,1,-5,0.266602,0.516113,0.686523,2.1875,1.5,0.5,0.647994,-0.291905,1.92477
2067,3,-1,-14,-1,-3,-5,-1,-3,0.262695,0.51709,0.701172,3.5625,2.5,0.875,0.648733,-0.291444,1.9256
2067,5,-4,9,-1,5,-1,-1,-4,0.262695,0.51709,0.701172,3.5625,2.5,0.875,0.648733,-0.291444,1.9256
2089,11,6,9,-2,-4,-1,-1,1,0.262695,0.51709,0.701172,3.5625,2.5,0.875,0.648733,-0.291444,1.9256
2089,-12,12,-3,3,1,1,1,1,0.262695,0.51709,0.701172,3.5625,2.5,0.875,0.648733,-0.291444,1.9256
2090,-7,-6,-4,-2,-2,1,-1,-5,0.251953,0.531738,0.699707,4.5625,2.3125,0.0625,0.650214,-0.290608,1.92622
2090,20,11,3,10,3,1,1,8,0.251953,0.531738,0.699707,4.5625,2.3125,0.0625,0.650214,-0.290608,1.92622
2103,5,-17,-2,-4,1,-2,0,0,0.251953,0.531738,0.699707,4.5625,2.3125,0.0625,0.650214,-0.290608,1.92622
2103,0,3,7,1,0,-2,-1,0,0.251953,0.531738,0.699707,4.5625,2.3125,0.0625,0.650214,-0.290608,1.92622
2110,-3,-4,-3,-3,0,1,1,2,0.249512,0.537109,0.69873,4.8125,0.8125,0.1875,0.651867,-0.290043,1.92643
2110,-9,9,10,-6,-7,-3,-1,-1,0.249512,0.537109,0.69873,4.8125,0.8125,0.1875,0.651867,-0.290043,1.92643
2126,-10,-4,-8,1,2,0,-3,1,0.249512,0.537109,0.69873,4.8125,0.8125,0.1875,0.651867,-0.290043,1.92643
2126,13,-9,-7,-2,1,2,-1,1,0.249512,0.537109,0.69873,4.8125,0.8125,0.1875,0.651867,-0.290043,1.92643
2128,-26,10,16,0,-3,-1,-1,-1,0.263672,0.517578,0.689941,3.5625,1.5,0.625,0.652799,-0.289893,1.927
2128,-6,4,18,-4,-3,-1,-1,-4,0.263672,0.517578,0.689941,3.5625,1.5,0.625,0.652799,-0.289893,1.927
2149,-9,-17,-33,2,0,-5,-1,1,0.263672,0.517578,0.689941,3.5625,1.5,0.625,0.652799,-0.289893,1.927
2149,-1,9,2,-6,-1,0,-2,-2,0.263672,0.517578,0.689941,3.5625,1.5,0.625,0.652799,-0.289893,1.927
2151,15,4,19,5,3,1,0,6,0.256836,0.518066,0.691406,4.9375,2.3125,0.3125,0.654101,-0.289335,1.92764
2151,0,-2,-9,-5,-3,-5,-4,-7,0.256836,0.518066,0.691406,4.9375,2.3125,0.3125,0.654101,-0.289335,1.92764
2163,2,3,-4,-5,-5,2,-2,-3,0.256836,0.518066,0.691406,4.9375,2.3125,0.3125,0.654101,-0.289335,1.92764
2163,-6,-7,-9,5,3,2,0,-1,0.256836,0.518066,0.691406,4.9375,2.3125,0.3125,0.654101,-0.289335,1.92764
2170,5,2,3,-2,0,0,0,4,0.261719,0.532715,0.691406,6.6875,2.5,-0.5625,0.656368,-0.288581,1.92803
2170,5,1,-6,-3,-1,0,0,-1,0.261719,0.532715,0.691406,6.6875,2.5,-0.5625,0.656368,-0.288581,1.92803
2186,-22,16,1,-1,-5,0,1,-3,0.261719,0.532715,0.691406,6.6875,2.5,-0.5625,0.656368,-0.288581,1.92803
2186,15,-19,-21,0,-7,-1,-3,-1,0.261719,0.532715,0.691406,6.6875,2.5,-0.5625,0.656368,-0.288581,1.92803
2188,1,-3,8,3,2,-1,-1,0,0.267578,0.520508,0.688477,4.625,3.5625,-0.6875,0.657541,-0.287777,1.92862
2188,-22,-9,-3,-4,-4,1,0,-5,0.267578,0.520508,0.688477,4.625,3.5625,-0.6875,0.657541,-0.287777,1.92862
2209,2,-1,-24,3,3,1,0,-7,0.267578,0.520508,0.688477,4.625,3.5625,-0.6875,0.657541,-0.287777,1.92862
2209,-10,11,20,-4,-2,-1,2,1,0.267578,0.520508,0.688477,4.625,3.5625,-0.6875,0.657541,-0.287777,1.92862
2211,-5,-12,-4,-3,-2,-2,-2,-1,0.249512,0.523438,0.689941,6.875,4.125,-0.8125,0.659572,-0.286328,1.92954
2211,7,7,-6,8,3,0,1,-2,0.249512,0.523438,0.689941,6.875,4.125,-0.8125,0.659572,-0.286328,1.92954
2232,17,-1,15,-3,-1,0,-1,7,0.249512,0.523438,0.689941,6.875,4.125,-0.8125,0.659572,-0.286328,1.92954
2232,-16,-4,2,-1,-1,-2,0,-7,0.249512,0.523438,0.689941,6.875,4.125,-0.8125,0.659572,-0.286328,1.92954
2233,9,-1,-11,-4,-6,1,-1,1,0.248047,0.554688,0.689941,6.75,3,-1.375,0.662095,-0.284862,1.92976
2233,11,-13,-2,-2,7,-2,0,13,0.248047,0.554688,0.689941,6.75,3,-1.375,0.662095,-0.284862,1.92976
2246,-5,-8,3,0,2,0,1,1,0.248047,0.554688,0.689941,6.75,3,-1.375,0.662095,-0.284862,1.92976
2246,2,22,-6,-1,-1,-1,-2,0,0.248047,0.554688,0.689941,6.75,3,-1.375,0.662095,-0.284862,1.92976
2254,13,-2,0,1,-4,-1,0,-3,0.250488,0.547852,0.683594,3.875,2.9375,-0.6875,0.663622,-0.283751,1.93005
2254,-32,-12,17,-3,-5,0,-2,-7,0.250488,0.547852,0.683594,3.875,2.9375,-0.6875,0.663622,-0.283751,1.93005
2269,5,-2,-14,-3,-5,-3,-3,0,0.250488,0.547852,0.683594,3.875,2.9375,-0.6875,0.663622,-0.283751,1.93005
2269,7,-3,11,-1,1,0,1,1,0.250488,0.547852,0.683594,3.875,2.9375,-0.6875,0.663622,-0.283751,1.93005
2271,-9,11,-10,-1,-1,-1,-2,-1,0.252441,0.546875,0.683105,4.875,2.9375,-0.75,0.665421,-0.282804,1.93039
2271,3,-4,-19,1,-2,0,-1,-3,0.252441,0.546875,0.683105,4.875,2.9375,-0.75,0.665421,-0.282804,1.93039
2282,4,-14,13,1,0,-1,-2,-2,0.252441,0.546875,0.683105,4.875,2.9375,-0.75,0.665421,-0.282804,1.93039
2282,-14,0,-7,-2,-5,-2,0,-4,0.252441,0.546875,0.683105,4.875,2.9375,-0.75,0.665421,-0.282804,1.93039
2292,7,7,12,-2,0,0,1,0,0.245117,0.552246,0.682617,4.5,2.6875,-0.9375,0.667264,-0.28167,1.93074
2292,-3,1,-4,-2,-2,-1,-1,-2,0.245117,0.552246,0.682617,4.5,2.6875,-0.9375,0.667264,-0.28167,1.93074
2306,22,9,-14,-5,-5,-1,1,2,0.245117,0.552246,0.682617,4.5,2.6875,-0.9375,0.667264,-0.28167,1.93074
2306,5,-26,6,1,3,-1,-3,1,0.245117,0.552246,0.682617,4.5,2.6875,-0.9375,0.667264,-0.28167,1.93074
2307,-6,25,5,9,-1,-2,0,0,0.237793,0.54834,0.693359,2.5,1.9375,-1.4375,0.668011,-0.28035,1.93074
2307,19,-2,-7,0,-2,-1,0,0,0.237793,0.54834,0.693359,2.5,1.9375,-1.4375,0.668011,-0.28035,1.93074
2329,-40,-8,8,0,0,1,-1,-1,0.237793,0.54834,0.693359,2.5,1.9375,-1.4375,0.668011,-0.28035,1.93074
2329,3,8,-5,-4,-5,1,-1,-5,0.237793,0.54834,0.693359,2.5,1.9375,-1.4375,0.668011,-0.28035,1.93074
2330,11,-14,6,-1,4,0,-1,-1,0.240723,0.555176,0.687988,1.375,0.125,-1.625,0.668898,-0.279625,1.93022
2330,-5,11,-16,0,-3,0,0,5,0.240723,0.555176,0.687988,1.375,0.125,-1.625,0.668898,-0.279625,1.93022
2343,1,-1,23,-2,-3,-3,-1,-2,0.240723,0.555176,0.687988,1.375,0.125,-1.625,0.668898,-0.279625,1.93022
2343,3,-8,-10,-1,0,-1,0,2,0.240723,0.555176,0.687988,1.375,0.125,-1.625,0.668898,-0.279625,1.93022
2351,-6,6,12,-3,0,-3,-2,-2,0.260742,0.541504,0.678711,-0.75,-0.375,-1.1875,0.668814,-0.279765,1.92991
2351,-14,-8,-15,-3,-1,-3,0,-8,0.260742,0.541504,0.678711,-0.75,-0.375,-1.1875,0.668814,-0.279765,1.92991
2367,20,-2,2,-1,-2,1,-1,-1,0.260742,0.541504,0.678711,-0.75,-0.375,-1.1875,0.668814,-0.279765,1.92991
2367,-13,-13,1,3,7,0,1,1,0.260742,0.541504,0.678711,-0.75,-0.375,-1.1875,0.668814,-0.279765,1.92991
2368,9,-2,-9,2,3,1,-1,-2,0.263184,0.538574,0.679199,-1.6875,0.875,-1.625,0.668502,-0.279555,1.92955
2368,19,20,6,-1,-1,-2,-2,4,0.263184,0.538574,0.679199,-1.6875,0.875,-1.625,0.668502,-0.279555,1.92955
2389,-20,-10,-14,-3,-2,-3,0,-3,0.263184,0.538574,0.679199,-1.6875,0.875,-1.625,0.668502,-0.279555,1.92955
2389,0,6,8,-2,-4,-2,-1,-3,0.263184,0.538574,0.679199,-1.6875,0.875,-1.625,0.668502,-0.279555,1.92955
2390,-11,2,-1,2,-1,0,-2,0,0.24707,0.553711,0.686035,0.0625,1.25,-2.25,0.668726,-0.278627,1.92911
2390,13,-8,3,-1,2,0,1,0,0.24707,0.553711,0.686035,0.0625,1.25,-2.25,0.668726,-0.278627,1.92911
2403,-21,-1,3,-2,-1,-2,-2,-3,0.24707,0.553711,0.686035,0.0625,1.25,-2.25,0.668726,-0.278627,1.92911
2403,3,11,5,-1,-4,0,-2,2,0.24707,0.553711,0.686035,0.0625,1.25,-2.25,0.668726,-0.278627,1.92911
2412,4,-16,-19,-1,-1,0,-4,-5,0.233398,0.554688,0.687988,-2.375,0.5625,-2.1875,0.668267,-0.277487,1.92859
2412,-20,-8,4,-1,-1,0,2,-1,0.233398,0.554688,0.687988,-2.375,0.5625,-2.1875,0.668267,-0.277487,1.92859
2427,29,9,-3,3,4,1,0,2,0.233398,0.554688,0.687988,-2.375,0.5625,-2.1875,0.668267,-0.277487,1.92859
2427,-11,8,8,0,-2,-1,1,-1,0.233398,0.554688,0.687988,-2.375,0.5625,-2.1875,0.668267,-0.277487,1.92859
2428,-6,-12,2,-1,-4,-1,3,2,0.229004,0.541504,0.686035,-4.5,-0.0625,-1.5,0.666876,-0.276825,1.92816
2428,-13,-2,4,-2,-2,1,-1,-2,0.229004,0.541504,0.686035,-4.5,-0.0625,-1.5,0.666876,-0.276825,1.92816
2448,7,1,-17,0,-2,-2,1,-6,0.229004,0.541504,0.686035,-4.5,-0.0625,-1.5,0.666876,-0.276825,1.92816
2448,6,14,-9,-3,-1,-2,-2,-4,0.229004,0.541504,0.686035,-4.5,-0.0625,-1.5,0.666876,-0.276825,1.92816
2450,19,-40,8,-1,-1,-1,-2,0,0.244141,0.526367,0.682617,-3,0.125,-1.6875,0.665756,-0.276328,1.92778
2450,9,15,4,-5,0,-2,-4,-1,0.244141,0.526367,0.682617,-3,0.125,-1.6875,0.665756,-0.276328,1.92778
2463,0,-6,-2,5,2,0,0,3,0.244141,0.526367,0.682617,-3,0.125,-1.6875,0.665756,-0.276328,1.92778
2463,-3,0,3,2,2,-2,-2,-2,0.244141,0.526367,0.682617,-3,0.125,-1.6875,0.665756,-0.276328,1.92778
2471,-3,10,3,-5,-1,-2,-2,0,0.256348,0.524414,0.677246,-1.875,0.5625,-2.125,0.665064,-0.276018,1.92734
2471,-1,-3,5,-1,-2,0,-1,-1,0.256348,0.524414,0.677246,-1.875,0.5625,-2.125,0.665064,-0.276018,1.92734
2487,-6,8,5,-9,-4,-2,-3,-10,0.256348,0.524414,0.677246,-1.875,0.5625,-2.125,0.665064,-0.276018,1.92734
2487,12,-4,-13,0,1,1,-2,-2,0.256348,0.524414,0.677246,-1.875,0.5625,-2.125,0.665064,-0.276018,1.92734
2488,-27,-3,-6,-3,-1,0,2,0,0.258301,0.537109,0.680664,-1.625,1.9375,-3.0625,0.664738,-0.275131,1.92687
2488,13,0,6,0,-3,-3,-1,-1,0.258301,0.537109,0.680664,-1.625,1.9375,-3.0625,0.664738,-0.275131,1.92687
2510,-1,-2,-17,0,0,0,1,2,0.258301,0.537109,0.680664,-1.625,1.9375,-3.0625,0.664738,-0.275131,1.92687
2510,-9,-15,-14,-1,-2,-2,-1,-4,0.258301,0.537109,0.680664,-1.625,1.9375,-3.0625,0.664738,-0.275131,1.92687
2511,-2,11,-7,-2,0,-2,-2,5,0.250488,0.529785,0.691406,-2.375,3.25,-3.375,0.6638,-0.273752,1.92673
2511,15,0,2,2,-1,-2,-1,-3,0.250488,0.529785,0.691406,-2.375,3.25,-3.375,0.6638,-0.273752,1.92673
2532,-2,-5,14,2,2,1,2,-2,0.250488,0.529785,0.691406,-2.375,3.25,-3.375,0.6638,-0.273752,1.92673
2532,-2,2,0,-4,-6,1,-1,-2,0.250488,0.529785,0.691406,-2.375,3.25,-3.375,0.6638,-0.273752,1.92673
2533,-7,-21,-7,2,5,0,-2,7,0.234863,0.541016,0.705078,-2.625,2.625,-4.0625,0.662873,-0.271775,1.9262
2533,37,13,-3,0,-5,0,-2,-1,0.234863,0.541016,0.705078,-2.625,2.625,-4.0625,0.662873,-0.271775,1.9262
2546,3,14,1,-3,-1,-2,-3,1,0.234863,0.541016,0.705078,-2.625,2.625,-4.0625,0.662873,-0.271775,1.9262
2546,2,-37,-13,-3,-1,-2,-1,4,0.234863,0.541016,0.705078,-2.625,2.625,-4.0625,0.662873,-0.271775,1.9262
2547,-3,12,2,3,1,-2,0,-5,0.229492,0.551758,0.694824,-3.9375,1.125,-4.25,0.661943,-0.270205,1.92532
2547,-18,2,-6,-1,0,1,0,-3,0.229492,0.551758,0.694824,-3.9375,1.125,-4.25,0.661943,-0.270205,1.92532
2569,-3,-7,1,-3,-2,-2,-3,1,0.229492,0.551758,0.694824,-3.9375,1.125,-4.25,0.661943,-0.270205,1.92532
2569,1,12,-3,-6,-3,-4,-1,0,0.229492,0.551758,0.694824,-3.9375,1.125,-4.25,0.661943,-0.270205,1.92532
2571,4,6,19,2,-6,-2,-1,-1,0.241211,0.547363,0.691406,-3.1875,0.1875,-3.75,0.661192,-0.269279,1.92423
2571,-12,-16,-25,1,1,-1,0,-2,0.241211,0.547363,0.691406,-3.1875,0.1875,-3.75,0.661192,-0.269279,1.92423
2583,7,-6,-11,0,-4,1,-1,0,0.241211,0.547363,0.691406,-3.1875,0.1875,-3.75,0.661192,-0.269279,1.92423
2583,-3,-6,-9,-2,-1,0,0,1,0.241211,0.547363,0.691406,-3.1875,0.1875,-3.75,0.661192,-0.269279,1.92423
2592,20,15,2,-7,-1,-2,-1,-1,0.239746,0.540039,0.688965,-3.5,-0.125,-2.6875,0.660299,-0.268702,1.92347
2592,-50,-4,2,0,1,-1,-3,-7,0.239746,0.540039,0.688965,-3.5,-0.125,-2.6875,0.660299,-0.268702,1.92347
2606,-4,-14,7,-1,-3,-1,-1,3,0.239746,0.540039,0.688965,-3.5,-0.125,-2.6875,0.660299,-0.268702,1.92347
2606,-6,5,-6,0,0,-2,-1,-6,0.239746,0.540039,0.688965,-3.5,-0.125,-2.6875,0.660299,-0.268702,1.92347
2607,7,6,4,4,3,-2,-2,-3,0.239746,0.53418,0.698242,-3.9375,0.4375,-2.5,0.659127,-0.268025,1.92286
2607,10,5,6,0,-2,1,2,7,0.239746,0.53418,0.698242,-3.9375,0.4375,-2.5,0.659127,-0.268025,1.92286
2630,-11,-3,-3,-2,-6,-2,-2,1,0.239746,0.53418,0.698242,-3.9375,0.4375,-2.5,0.659127,-0.268025,1.92286
2630,8,-1,7,1,1,-1,0,0,0.239746,0.53418,0.698242,-3.9375,0.4375,-2.5,0.659127,-0.268025,1.92286
2631,-12,28,4,-7,-3,-2,-2,-3,0.227051,0.540527,0.70752,-2.1875,-0.125,-2.3125,0.658438,-0.267183,1.92224
2631,-7,-51,-20,0,0,-1,-2,-3,0.227051,0.540527,0.70752,-2.1875,-0.125,-2.3125,0.658438,-0.267183,1.92224
2643,7,-3,1,-3,5,-2,0,0,0.227051,0.540527,0.70752,-2.1875,-0.125,-2.3125,0.658438,-0.267183,1.92224
2643,-5,7,6,0,-3,-3,0,-1,0.227051,0.540527,0.70752,-2.1875,-0.125,-2.3125,0.658438,-0.267183,1.92224
2658,3,-3,-10,-3,-1,-1,1,-2,0.227539,0.543945,0.710449,-1.875,-1.5,-0.8125,0.657715,-0.267006,1.9216
2658,19,18,27,1,-2,-1,-2,-1,0.227539,0.543945,0.710449,-1.875,-1.5,-0.8125,0.657715,-0.267006,1.9216
2667,-6,-10,-22,-2,2,-1,-4,-3,0.227539,0.543945,0.710449,-1.875,-1.5,-0.8125,0.657715,-0.267006,1.9216
2667,-22,1,8,1,0,-1,-2,0,0.227539,0.543945,0.710449,-1.875,-1.5,-0.8125,0.657715,-0.267006,1.9216
2668,16,-8,-6,0,0,1,-1,-1,0.242188,0.536133,0.703125,-2.875,-2.3125,0.1875,0.65676,-0.267582,1.9213
2668,2,10,9,-4,-11,-2,1,-2,0.242188,0.536133,0.703125,-2.875,-2.3125,0.1875,0.65676,-0.267582,1.9213
2689,5,-1,8,5,4,1,1,-1,0.242188,0.536133,0.703125,-2.875,-2.3125,0.1875,0.65676,-0.267582,1.9213
2689,-6,4,-3,0,5,-1,-1,-3,0.242188,0.536133,0.703125,-2.875,-2.3125,0.1875,0.65676,-0.267582,1.9213
2691,-8,-10,-3,-3,-1,-1,-1,-6,0.240234,0.521973,0.699707,-1.875,-2.5,1.1875,0.655866,-0.268619,1.92108
2691,-6,-4,-6,-6,0,-3,-2,0,0.240234,0.521973,0.699707,-1.875,-2.5,1.1875,0.655866,-0.268619,1.92108
2712,4,7,8,-3,-5,0,0,3,0.240234,0.521973,0.699707,-1.875,-2.5,1.1875,0.655866,-0.268619,1.92108
2712,-1,-13,3,0,-3,-3,-5,-5,0.240234,0.521973,0.699707,-1.875,-2.5,1.1875,0.655866,-0.268619,1.92108
2713,-7,6,1,4,-1,-2,-3,-8,0.24707,0.519043,0.69043,-0.5,-1.875,1.5,0.655435,-0.269611,1.92126
2713,2,1,-6,-3,0,-2,-2,-3,0.24707,0.519043,0.69043,-0.5,-1.875,1.5,0.655435,-0.269611,1.92126
2725,0,9,6,-2,0,-2,1,4,0.24707,0.519043,0.69043,-0.5,-1.875,1.5,0.655435,-0.269611,1.92126
2725,18,23,5,-2,-2,-2,0,1,0.24707,0.519043,0.69043,-0.5,-1.875,1.5,0.655435,-0.269611,1.92126
2741,-53,-63,-29,-2,-2,1,0,-2,0.240234,0.523926,0.696289,0.9375,-1.375,1.6875,0.65542,-0.270312,1.9214
2741,3,9,4,2,1,-1,0,1,0.240234,0.523926,0.696289,0.9375,-1.375,1.6875,0.65542,-0.270312,1.9214
2749,2,2,0,-1,-1,-1,2,-4,0.240234,0.523926,0.696289,0.9375,-1.375,1.6875,0.65542,-0.270312,1.9214
2749,1,3,9,-2,-1,0,0,3,0.240234,0.523926,0.696289,0.9375,-1.375,1.6875,0.65542,-0.270312,1.9214
2751,8,13,16,-2,-3,0,-2,1,0.240234,0.540039,0.692383,0.5625,-1.25,1.25,0.655807,-0.270886,1.92146
2751,-13,-5,-38,-2,-3,0,1,0,0.240234,0.540039,0.692383,0.5625,-1.25,1.25,0.655807,-0.270886,1.92146
2771,-8,-3,7,-1,1,-1,0,2,0.240234,0.540039,0.692383,0.5625,-1.25,1.25,0.655807,-0.270886,1.92146
2771,-1,-14,-3,2,-2,-1,1,-3,0.240234,0.540039,0.692383,0.5625,-1.25,1.25,0.655807,-0.270886,1.92146
2773,-5,7,7,3,-3,-2,-2,-2,0.240723,0.524902,0.688477,-0.4375,-1.0625,1.0625,0.655571,-0.271438,1.92169
2773,18,1,-3,0,0,-4,-2,1,0.240723,0.524902,0.688477,-0.4375,-1.0625,1.0625,0.655571,-0.271438,1.92169
2787,9,11,2,-2,-2,-2,-3,3,0.240723,0.524902,0.688477,-0.4375,-1.0625,1.0625,0.655571,-0.271438,1.92169
2787,-10,-3,0,-4,-1,-1,-3,-4,0.240723,0.524902,0.688477,-0.4375,-1.0625,1.0625,0.655571,-0.271438,1.92169
2788,4,-10,-9,-5,-1,2,3,3,0.244629,0.533691,0.69043,1.5625,-1.0625,0.625,0.656157,-0.271849,1.92165
2788,0,7,12,2,4,1,-1,-5,0.244629,0.533691,0.69043,1.5625,-1.0625,0.625,0.656157,-0.271849,1.92165
2809,-23,-9,-9,-1,-3,0,-1,-4,0.244629,0.533691,0.69043,1.5625,-1.0625,0.625,0.656157,-0.271849,1.92165
2809,25,1,2,0,0,-3,1,5,0.244629,0.533691,0.69043,1.5625,-1.0625,0.625,0.656157,-0.271849,1.92165
2810,-4,5,0,-1,3,-1,-2,-5,0.241699,0.536133,0.691895,2.4375,-1.1875,0.8125,0.657056,-0.272234,1.92166
2810,4,23,1,-2,-5,1,0,1,0.241699,0.536133,0.691895,2.4375,-1.1875,0.8125,0.657056,-0.272234,1.92166
2832,3,-24,10,-3,2,-1,-2,-4,0.241699,0.536133,0.691895,2.4375,-1.1875,0.8125,0.657056,-0.272234,1.92166
2832,-7,2,-11,0,-2,-1,-2,-3,0.241699,0.536133,0.691895,2.4375,-1.1875,0.8125,0.657056,-0.272234,1.92166
2833,5,2,-1,-3,-2,-2,0,2,0.239258,0.547852,0.693359,0.3125,-1.5625,0.75,0.657464,-0.272687,1.92132
2833,-8,3,4,1,-1,-1,-2,11,0.239258,0.547852,0.693359,0.3125,-1.5625,0.75,0.657464,-0.272687,1.92132
2847,1,8,4,3,-3,-4,-3,-15,0.239258,0.547852,0.693359,0.3125,-1.5625,0.75,0.657464,-0.272687,1.92132
2847,-7,-5,-14,-5,-3,-1,2,2,0.239258,0.547852,0.693359,0.3125,-1.5625,0.75,0.657464,-0.272687,1.92132
2848,6,7,2,4,0,-1,0,0,0.246094,0.538086,0.685547,-1.5,-1.8125,1.125,0.657116,-0.273407,1.92127
2848,-3,-25,-5,-3,2,0,0,-6,0.246094,0.538086,0.685547,-1.5,-1.8125,1.125,0.657116,-0.273407,1.92127
2869,20,10,-11,-3,-1,1,-1,3,0.246094,0.538086,0.685547,-1.5,-1.8125,1.125,0.657116,-0.273407,1.92127
2869,-48,-15,-6,-6,-1,-3,-1,-4,0.246094,0.538086,0.685547,-1.5,-1.8125,1.125,0.657116,-0.273407,1.92127
2871,1,-1,4,-2,-2,-2,-2,-3,0.246582,0.530762,0.692383,-1.1875,-1.5,1.125,0.656738,-0.274151,1.92126
2871,8,3,7,3,0,0,-1,-5,0.246582,0.530762,0.692383,-1.1875,-1.5,1.125,0.656738,-0.274151,1.92126
2891,-4,-5,-4,0,-2,-2,1,2,0.246582,0.530762,0.692383,-1.1875,-1.5,1.125,0.656738,-0.274151,1.92126
2891,9,5,1,2,-2,-1,-2,-3,0.246582,0.530762,0.692383,-1.1875,-1.5,1.125,0.656738,-0.274151,1.92126
2893,-16,0,1,-5,-1,-3,1,0,0.245605,0.526367,0.693848,-0.75,-1.5,1.5,0.656255,-0.274854,1.92145
2893,1,0,-1,-1,-1,-2,1,6,0.245605,0.526367,0.693848,-0.75,-1.5,1.5,0.656255,-0.274854,1.92145
2905,8,7,-6,1,3,-2,-2,-2,0.245605,0.526367,0.693848,-0.75,-1.5,1.5,0.656255,-0.274854,1.92145
2905,4,-16,-1,-2,-2,-1,-2,0,0.245605,0.526367,0.693848,-0.75,-1.5,1.5,0.656255,-0.274854,1.92145
2913,-3,3,-2,2,-1,0,-2,1,0.246094,0.521973,0.700195,-0.625,-1.1875,1.25,0.655677,-0.275457,1.92165
2913,-4,-5,-5,-4,-1,0,0,-5,0.246094,0.521973,0.700195,-0.625,-1.1875,1.25,0.655677,-0.275457,1.92165
2929,7,1,1,0,-2,0,0,0,0.246094,0.521973,0.700195,-0.625,-1.1875,1.25,0.655677,-0.275457,1.92165
2929,-4,0,-8,1,-3,1,0,-2,0.246094,0.521973,0.700195,-0.625,-1.1875,1.25,0.655677,-0.275457,1.92165
2930,5,-5,-8,1,-1,0,-3,-5,0.242676,0.520508,0.699707,1.25,-1.0625,1.8125,0.655666,-0.276055,1.92204
2930,5,3,6,-2,0,-2,0,7,0.242676,0.520508,0.699707,1.25,-1.0625,1.8125,0.655666,-0.276055,1.92204
2951,-41,-6,-10,-3,-2,-1,1,-1,0.242676,0.520508,0.699707,1.25,-1.0625,1.8125,0.655666,-0.276055,1.92204
2951,5,4,6,-1,-1,-2,-1,-1,0.242676,0.520508,0.699707,1.25,-1.0625,1.8125,0.655666,-0.276055,1.92204
2958,6,2,-8,1,-1,1,1,-2,0.249512,0.53418,0.696777,1.625,-1.125,1.5,0.656134,-0.27659,1.92217
2958,-7,-2,-9,-2,-2,-1,-2,-5,0.249512,0.53418,0.696777,1.625,-1.125,1.5,0.656134,-0.27659,1.92217
2966,-11,2,18,-2,-4,-1,-1,2,0.249512,0.53418,0.696777,1.625,-1.125,1.5,0.656134,-0.27659,1.92217
2966,37,5,-4,3,2,1,1,1,0.249512,0.53418,0.696777,1.625,-1.125,1.5,0.656134,-0.27659,1.92217
2973,-3,-4,2,-2,-3,0,0,2,0.24707,0.538574,0.691895,1.8125,-1.125,1.25,0.656807,-0.277163,1.92232
2973,-7,-1,6,2,2,-1,-2,-7,0.24707,0.538574,0.691895,1.8125,-1.125,1.25,0.656807,-0.277163,1.92232
2989,2,-6,-7,1,-1,-1,-2,2,0.24707,0.538574,0.691895,1.8125,-1.125,1.25,0.656807,-0.277163,1.92232
2989,-9,12,8,-2,-3,-1,2,0,0.24707,0.538574,0.691895,1.8125,-1.125,1.25,0.656807,-0.277163,1.92232
2990,9,23,0,1,3,0,-1,1,0.251465,0.530273,0.693848,1.1875,-0.9375,1,0.657195,-0.277738,1.92239
2990,-1,-51,-3,-3,-2,-2,-2,-2,0.251465,0.530273,0.693848,1.1875,-0.9375,1,0.657195,-0.277738,1.92239
3012,-17,16,-3,-4,0,-2,-2,-8,0.251465,0.530273,0.693848,1.1875,-0.9375,1,0.657195,-0.277738,1.92239
3012,-13,-10,13,-1,1,0,-2,-4,0.251465,0.530273,0.693848,1.1875,-0.9375,1,0.657195,-0.277738,1.92239
3017,15,2,-12,-3,-2,-3,-2,4,0.251953,0.530273,0.691895,0.9375,-0.5625,0.9375,0.657195,-0.277738,1.92239
3017,0,-1,1,-2,-2,1,0,-4,0.251953,0.530273,0.691895,0.9375,-0.5625,0.9375,0.657195,-0.277738,1.92239
3026,4,-1,-9,1,-1,0,-2,-4,0.251953,0.530273,0.691895,0.9375,-0.5625,0.9375,0.657195,-0.277738,1.92239
3026,-14,-4,-2,0,1,1,-2,0,0.251953,0.530273,0.691895,0.9375,-0.5625,0.9375,0.657195,-0.277738,1.92239
3033,13,-1,12,-1,-3,0,0,0,0.245117,0.528809,0.700195,0.8125,-0.5,1.1875,0.657132,-0.278047,1.92279
3033,-11,1,-16,1,-3,-2,-3,3,0.245117,0.528809,0.700195,0.8125,-0.5,1.1875,0.657132,-0.278047,1.92279
3049,12,-8,-2,0,-2,-1,0,0,0.245117,0.528809,0.700195,0.8125,-0.5,1.1875,0.657132,-0.278047,1.92279
3049,-6,0,-4,2,-1,-1,-1,-5,0.245117,0.528809,0.700195,0.8125,-0.5,1.1875,0.657132,-0.278047,1.92279
3051,-2,1,-1,-4,3,-1,0,2,0.250977,0.538086,0.692383,0.1875,-1.1875,1.0625,0.657346,-0.278561,1.92279
3051,-3,34,8,0,-3,0,1,-1,0.250977,0.538086,0.692383,0.1875,-1.1875,1.0625,0.657346,-0.278561,1.92279
3072,0,-39,-9,-2,-2,-3,-4,-10,0.250977,0.538086,0.692383,0.1875,-1.1875,1.0625,0.657346,-0.278561,1.92279
3072,5,-6,0,-1,-3,-4,-2,1,0.250977,0.538086,0.692383,0.1875,-1.1875,1.0625,0.657346,-0.278561,1.92279
3073,23,6,6,3,-2,-2,-1,0,0.253418,0.526367,0.686035,-0.3125,-1.25,0.9375,0.657077,-0.279242,1.92281
3073,-11,19,-15,-5,1,0,2,-1,0.253418,0.526367,0.686035,-0.3125,-1.25,0.9375,0.657077,-0.279242,1.92281
3086,3,-4,7,-2,-2,-2,-1,5,0.253418,0.526367,0.686035,-0.3125,-1.25,0.9375,0.657077,-0.279242,1.92281
3086,-14,-8,-10,-2,-1,-1,-1,-1,0.253418,0.526367,0.686035,-0.3125,-1.25,0.9375,0.657077,-0.279242,1.92281
3092,4,-11,2,0,0,-1,-1,-1,0.249512,0.523926,0.692383,1,-0.5625,0.375,0.65721,-0.279491,1.92286
3092,-3,7,15,2,-1,1,-2,-1,0.249512,0.523926,0.692383,1,-0.5625,0.375,0.65721,-0.279491,1.92286
3109,9,-1,-8,0,-2,1,1,4,0.249512,0.523926,0.692383,1,-0.5625,0.375,0.65721,-0.279491,1.92286
3109,0,3,-3,1,0,-2,-2,5,0.249512,0.523926,0.692383,1,-0.5625,0.375,0.65721,-0.279491,1.92286
3111,-5,5,3,-3,-5,-2,0,2,0.248535,0.529297,0.695312,2.625,0,0.125,0.658072,-0.279423,1.92293
3111,-4,0,1,0,4,-1,-2,-6,0.248535,0.529297,0.695312,2.625,0,0.125,0.658072,-0.279423,1.92293
3132,9,-19,-2,-2,-1,0,1,5,0.248535,0.529297,0.695312,2.625,0,0.125,0.658072,-0.279423,1.92293
3132,-3,-2,-12,-3,-1,-1,0,-2,0.248535,0.529297,0.695312,2.625,0,0.125,0.658072,-0.279423,1.92293
3133,-9,-1,-3,-4,1,-1,-1,-1,0.246094,0.536621,0.692383,1.25,0.1875,0.5,0.658454,-0.279418,1.92325
3133,-1,-9,-1,-3,-5,-2,-3,-4,0.246094,0.536621,0.692383,1.25,0.1875,0.5,0.658454,-0.279418,1.92325
3150,3,10,4,1,-2,-2,0,3,0.246094,0.536621,0.692383,1.25,0.1875,0.5,0.658454,-0.279418,1.92325
3150,22,10,-3,2,3,0,-1,-3,0.246094,0.536621,0.692383,1.25,0.1875,0.5,0.658454,-0.279418,1.92325
3154,-33,-9,10,2,1,-1,-2,0,0.248535,0.535156,0.702637,2.25,-0.375,0.25,0.659003,-0.279377,1.92327
3154,2,-15,-13,-4,0,-1,1,1,0.248535,0.535156,0.702637,2.25,-0.375,0.25,0.659003,-0.279377,1.92327
3169,-4,9,3,1,1,0,-3,-8,0.248535,0.535156,0.702637,2.25,-0.375,0.25,0.659003,-0.279377,1.92327
3169,22,7,0,-1,-3,0,-1,-2,0.248535,0.535156,0.702637,2.25,-0.375,0.25,0.659003,-0.279377,1.92327
3170,-18,8,-5,-4,-3,0,-2,-6,0.25293,0.53418,0.678711,1.75,-0.75,-0.125,0.659836,-0.279742,1.92301
3170,16,-27,0,4,-2,-2,-1,2,0.25293,0.53418,0.678711,1.75,-0.75,-0.125,0.659836,-0.279742,1.92301
3194,-7,-1,-1,-2,0,0,0,0,0.25293,0.53418,0.678711,1.75,-0.75,-0.125,0.659836,-0.279742,1.92301
3194,0,-3,6,-2,-2,0,2,-2,0.25293,0.53418,0.678711,1.75,-0.75,-0.125,0.659836,-0.279742,1.92301
3194,0,11,5,1,3,-1,-2,-8,0.247559,0.54248,0.689453,1.0625,-0.5625,-0.1875,0.660395,-0.27964,1.92283
3194,-15,10,-16,-1,1,-1,1,1,0.247559,0.54248,0.689453,1.0625,-0.5625,-0.1875,0.660395,-0.27964,1.92283
3206,33,-7,-6,2,-1,0,-1,-3,0.247559,0.54248,0.689453,1.0625,-0.5625,-0.1875,0.660395,-0.27964,1.92283
3206,-26,-6,6,-4,-4,-2,-3,1,0.247559,0.54248,0.689453,1.0625,-0.5625,-0.1875,0.660395,-0.27964,1.92283
3214,18,6,-6,-3,-3,0,0,2,0.246582,0.543945,0.690918,-0.125,0.0625,0.3125,0.660395,-0.27964,1.92283
3214,5,10,17,2,-3,1,-1,-1,0.246582,0.543945,0.690918,-0.125,0.0625,0.3125,0.660395,-0.27964,1.92283
3229,-6,5,3,0,3,-1,-1,-4,0.246582,0.543945,0.690918,-0.125,0.0625,0.3125,0.660395,-0.27964,1.92283
3229,-1,-6,14,1,2,1,1,3,0.246582,0.543945,0.690918,-0.125,0.0625,0.3125,0.660395,-0.27964,1.92283
3231,-9,-13,-18,0,-1,-3,-2,-3,0.241211,0.530273,0.694824,-0.8125,0.0625,1.0625,0.659918,-0.279599,1.92332
3231,-7,13,-1,-5,0,-5,-2,-1,0.241211,0.530273,0.694824,-0.8125,0.0625,1.0625,0.659918,-0.279599,1.92332
3251,9,-30,2,1,3,-1,-1,-3,0.241211,0.530273,0.694824,-0.8125,0.0625,1.0625,0.659918,-0.279599,1.92332
3251,0,6,-7,-1,-6,-1,-2,2,0.241211,0.530273,0.694824,-0.8125,0.0625,1.0625,0.659918,-0.279599,1.92332
3253,0,-4,-13,-3,-3,-1,-1,-1,0.241699,0.533203,0.689941,-0.0625,-0.875,1.0625,0.659767,-0.27985,1.92329
3253,-14,-9,0,2,1,0,0,-1,0.241699,0.533203,0.689941,-0.0625,-0.875,1.0625,0.659767,-0.27985,1.92329
3265,-18,12,-5,-4,-5,1,-1,2,0.241699,0.533203,0.689941,-0.0625,-0.875,1.0625,0.659767,-0.27985,1.92329
3265,-11,-13,10,-1,5,-4,0,1,0.241699,0.533203,0.689941,-0.0625,-0.875,1.0625,0.659767,-0.27985,1.92329
3274,18,8,-7,4,-3,-3,-2,0,0.24707,0.520996,0.692383,-0.1875,-0.8125,0.875,0.659785,-0.279887,1.92345
3274,15,2,2,0,-1,-1,0,0,0.24707,0.520996,0.692383,-0.1875,-0.8125,0.875,0.659785,-0.279887,1.92345
3287,-33,-4,-5,-2,-2,-1,1,-1,0.24707,0.520996,0.692383,-0.1875,-0.8125,0.875,0.659785,-0.279887,1.92345
3287,8,4,-7,-2,-4,-1,-3,-2,0.24707,0.520996,0.692383,-0.1875,-0.8125,0.875,0.659785,-0.279887,1.92345
3296,-8,-19,2,-2,-2,0,1,-2,0.257324,0.52002,0.693359,0.875,-0.5,0.375,0.659676,-0.279951,1.92342
3296,10,16,6,0,0,1,-2,-4,0.257324,0.52002,0.693359,0.875,-0.5,0.375,0.659676,-0.279951,1.92342
3312,7,15,-6,2,-2,0,0,4,0.257324,0.52002,0.693359,0.875,-0.5,0.375,0.659676,-0.279951,1.92342
3312,-14,7,-3,1,0,2,-1,-5,0.257324,0.52002,0.693359,0.875,-0.5,0.375,0.659676,-0.279951,1.92342
3313,29,-37,0,-1,-2,0,-1,2,0.262207,0.529785,0.687012,2.375,0.0625,0.125,0.660279,-0.280199,1.92342
3313,-8,-4,4,-3,-2,-1,1,2,0.262207,0.529785,0.687012,2.375,0.0625,0.125,0.660279,-0.280199,1.92342
3334,6,8,-4,-1,0,-3,1,-5,0.262207,0.529785,0.687012,2.375,0.0625,0.125,0.660279,-0.280199,1.92342
3334,-7,-1,-14,-2,-1,0,-2,-4,0.262207,0.529785,0.687012,2.375,0.0625,0.125,0.660279,-0.280199,1.92342
3335,-15,11,12,2,1,0,-1,-1,0.259277,0.537109,0.691406,1.6875,0.4375,0.375,0.660932,-0.280356,1.9238
3335,-11,-12,-4,-2,-2,0,-1,-2,0.259277,0.537109,0.691406,1.6875,0.4375,0.375,0.660932,-0.280356,1.9238
3349,12,14,13,-3,-5,-3,-2,1,0.259277,0.537109,0.691406,1.6875,0.4375,0.375,0.660932,-0.280356,1.9238
3349,-19,-4,-15,2,9,-3,-2,-1,0.259277,0.537109,0.691406,1.6875,0.4375,0.375,0.660932,-0.280356,1.9238
3350,-21,-1,5,-1,-3,1,0,-3,0.248535,0.538086,0.696777,1,0.375,0.3125,0.6612,-0.280214,1.92396
3350,3,-9,-4,1,0,1,-3,-8,0.248535,0.538086,0.696777,1,0.375,0.3125,0.6612,-0.280214,1.92396
3371,-10,13,0,-3,-2,-1,1,0,0.248535,0.538086,0.696777,1,0.375,0.3125,0.6612,-0.280214,1.92396
3371,10,5,3,-1,-6,0,0,-5,0.248535,0.538086,0.696777,1,0.375,0.3125,0.6612,-0.280214,1.92396
3373,0,-30,-11,-4,-2,-4,-2,3,0.245117,0.540527,0.688965,0.9375,-0.3125,0.25,0.661105,-0.280113,1.92397
3373,-7,2,-26,-2,4,0,-1,0,0.245117,0.540527,0.688965,0.9375,-0.3125,0.25,0.661105,-0.280113,1.92397
3385,-1,-2,-12,1,0,-2,-1,-1,0.245117,0.540527,0.688965,0.9375,-0.3125,0.25,0.661105,-0.280113,1.92397
3385,8,13,5,-5,-5,-2,-1,-2,0.245117,0.540527,0.688965,0.9375,-0.3125,0.25,0.661105,-0.280113,1.92397
3394,-7,14,15,0,0,0,-1,-4,0.255371,0.533203,0.685547,-0.9375,-0.3125,0.6875,0.6612,-0.280214,1.92396
3394,0,-1,3,0,-3,-1,-3,-3,0.255371,0.533203,0.685547,-0.9375,-0.3125,0.6875,0.6612,-0.280214,1.92396
3409,-1,-9,-9,-1,-1,-2,-1,1,0.255371,0.533203,0.685547,-0.9375,-0.3125,0.6875,0.6612,-0.280214,1.92396
3409,9,-13,0,-2,-3,-2,1,5,0.255371,0.533203,0.685547,-0.9375,-0.3125,0.6875,0.6612,-0.280214,1.92396
3411,-4,21,6,2,-3,-2,-3,-1,0.254395,0.526855,0.690918,-0.4375,0.25,0.4375,0.661091,-0.280278,1.92393
3411,-6,-21,4,2,2,0,-2,0,0.254395,0.526855,0.690918,-0.4375,0.25,0.4375,0.661091,-0.280278,1.92393
3432,-14,-3,-6,-1,-2,1,0,-1,0.254395,0.526855,0.690918,-0.4375,0.25,0.4375,0.661091,-0.280278,1.92393
3432,0,18,-3,1,0,1,-1,-1,0.254395,0.526855,0.690918,-0.4375,0.25,0.4375,0.661091,-0.280278,1.92393
3433,-2,-41,-8,-6,-1,1,0,3,0.24707,0.536133,0.697754,0.875,0.5,0.0625,0.660996,-0.280177,1.92394
3433,4,8,-9,-2,-2,-4,-3,2,0.24707,0.536133,0.697754,0.875,0.5,0.0625,0.660996,-0.280177,1.92394
3446,-2,-5,3,-3,1,-1,-4,-2,0.24707,0.536133,0.697754,0.875,0.5,0.0625,0.660996,-0.280177,1.92394
3446,29,7,10,-1,-4,-2,-2,3,0.24707,0.536133,0.697754,0.875,0.5,0.0625,0.660996,-0.280177,1.92394
3454,-15,-1,-10,0,0,-1,0,-7,0.246582,0.53418,0.689941,0.875,-0.375,-0.1875,0.660996,-0.280177,1.92394
3454,-7,6,4,0,-2,-2,1,5,0.246582,0.53418,0.689941,0.875,-0.375,-0.1875,0.660996,-0.280177,1.92394
3469,0,-1,0,3,-1,-1,0,-4,0.246582,0.53418,0.689941,0.875,-0.375,-0.1875,0.660996,-0.280177,1.92394
3469,5,-7,0,-2,0,-1,0,-4,0.246582,0.53418,0.689941,0.875,-0.375,-0.1875,0.660996,-0.280177,1.92394
3471,5,12,0,-1,-1,-2,-2,-1,0.248047,0.531738,0.692871,-0.1875,-0.4375,-0.375,0.660996,-0.280177,1.92394
3471,-8,-10,3,3,-3,0,0,1,0.248047,0.531738,0.692871,-0.1875,-0.4375,-0.375,0.660996,-0.280177,1.92394
3491,3,-1,-13,-3,-2,-2,-2,1,0.248047,0.531738,0.692871,-0.1875,-0.4375,-0.375,0.660996,-0.280177,1.92394
3491,-4,-10,-8,1,-2,0,0,-1,0.248047,0.531738,0.692871,-0.1875,-0.4375,-0.375,0.660996,-0.280177,1.92394
3493,-5,1,1,-1,3,-1,-3,0,0.248047,0.541992,0.689453,0.375,-0.8125,-0.1875,0.660996,-0.280177,1.92394
3493,0,6,11,-2,-2,2,-1,-2,0.248047,0.541992,0.689453,0.375,-0.8125,-0.1875,0.660996,-0.280177,1.92394
3505,0,11,2,2,-1,0,-2,-7,0.248047,0.541992,0.689453,0.375,-0.8125,-0.1875,0.660996,-0.280177,1.92394
3505,-2,-2,-5,-2,-3,-3,-2,-3,0.248047,0.541992,0.689453,0.375,-0.8125,-0.1875,0.660996,-0.280177,1.92394
3514,3,-8,0,-2,-3,0,0,2,0.258789,0.541504,0.687012,-0.5625,-0.875,0.5625,0.660996,-0.280177,1.92394
3514,1,7,0,-2,2,-2,0,-3,0.258789,0.541504,0.687012,-0.5625,-0.875,0.5625,0.660996,-0.280177,1.92394
3529,3,0,-8,0,-2,0,0,3,0.258789,0.541504,0.687012,-0.5625,-0.875,0.5625,0.660996,-0.280177,1.92394
3529,10,2,4,-2,2,-1,1,5,0.258789,0.541504,0.687012,-0.5625,-0.875,0.5625,0.660996,-0.280177,1.92394
3531,16,16,-4,0,-1,-1,0,6,0.262207,0.525391,0.691406,-1.125,-0.25,0.625,0.66035,-0.280655,1.92412
3531,-2,-14,2,1,0,1,-1,-4,0.262207,0.525391,0.691406,-1.125,-0.25,0.625,0.66035,-0.280655,1.92412
3551,4,12,5,0,-2,-2,0,1,0.262207,0.525391,0.691406,-1.125,-0.25,0.625,0.66035,-0.280655,1.92412
3551,-6,-15,3,-1,0,0,-1,6,0.262207,0.525391,0.691406,-1.125,-0.25,0.625,0.66035,-0.280655,1.92412
3557,-3,0,-9,0,-4,2,0,-1,0.250977,0.523438,0.696777,0.9375,0,0.1875,0.66035,-0.280655,1.92412
3557,20,-1,-4,1,4,0,-1,1,0.250977,0.523438,0.696777,0.9375,0,0.1875,0.66035,-0.280655,1.92412
3565,-14,6,6,-1,-1,-1,-1,-2,0.250977,0.523438,0.696777,0.9375,0,0.1875,0.66035,-0.280655,1.92412
3565,-11,-38,-9,1,0,-1,-1,0,0.250977,0.523438,0.696777,0.9375,0,0.1875,0.66035,-0.280655,1.92412
3574,0,13,11,0,0,-1,-2,-1,0.251465,0.527832,0.698242,1.3125,-0.625,0.1875,0.660417,-0.280779,1.92414
3574,7,-1,4,-3,-6,-3,-3,0,0.251465,0.527832,0.698242,1.3125,-0.625,0.1875,0.660417,-0.280779,1.92414
3589,5,-3,9,-3,-1,-1,1,-2,0.251465,0.527832,0.698242,1.3125,-0.625,0.1875,0.660417,-0.280779,1.92414
3589,-7,6,-10,-1,0,1,1,-5,0.251465,0.527832,0.698242,1.3125,-0.625,0.1875,0.660417,-0.280779,1.92414
3591,-2,7,-1,1,1,-1,-1,-2,0.249512,0.52832,0.692871,1.25,-0.1875,-0.25,0.66073,-0.280754,1.9242
3591,-9,-19,-12,-1,-2,1,-1,3,0.249512,0.52832,0.692871,1.25,-0.1875,-0.25,0.66073,-0.280754,1.9242
3612,-5,-5,-4,-1,3,1,0,0,0.249512,0.52832,0.692871,1.25,-0.1875,-0.25,0.66073,-0.280754,1.9242
3612,21,10,-6,-2,-7,0,-2,3,0.249512,0.52832,0.692871,1.25,-0.1875,-0.25,0.66073,-0.280754,1.9242
3613,-9,-17,10,1,4,-1,0,-6,0.258301,0.530273,0.675293,2.3125,0.375,-0.9375,0.661699,-0.280727,1.92406
3613,32,22,17,-1,-4,-6,-4,2,0.258301,0.530273,0.675293,2.3125,0.375,-0.9375,0.661699,-0.280727,1.92406
3634,-15,6,-16,0,0,-2,-2,-1,0.258301,0.530273,0.675293,2.3125,0.375,-0.9375,0.661699,-0.280727,1.92406
3634,1,-10,-17,-3,-1,-2,1,0,0.258301,0.530273,0.675293,2.3125,0.375,-0.9375,0.661699,-0.280727,1.92406
3636,-6,-16,-9,-4,-3,-2,-2,-1,0.257812,0.536621,0.681641,1.625,1.5,-1.6875,0.662435,-0.280148,1.92374
3636,7,9,7,-3,-1,-2,-1,-3,0.257812,0.536621,0.681641,1.625,1.5,-1.6875,0.662435,-0.280148,1.92374
3649,-2,-11,0,-3,-3,-1,0,4,0.257812,0.536621,0.681641,1.625,1.5,-1.6875,0.662435,-0.280148,1.92374
3649,0,16,6,3,1,-2,-2,-6,0.257812,0.536621,0.681641,1.625,1.5,-1.6875,0.662435,-0.280148,1.92374
3650,0,16,-1,0,0,0,-3,-2,0.250977,0.54834,0.68457,0.9375,2.125,-1.375,0.663031,-0.279278,1.92382
3650,-32,-2,-2,-1,-1,-1,0,-4,0.250977,0.54834,0.68457,0.9375,2.125,-1.375,0.663031,-0.279278,1.92382
3671,6,-10,3,-1,-3,-3,-1,2,0.250977,0.54834,0.68457,0.9375,2.125,-1.375,0.663031,-0.279278,1.92382
3671,-14,-10,-2,-2,0,1,-1,-7,0.250977,0.54834,0.68457,0.9375,2.125,-1.375,0.663031,-0.279278,1.92382
3674,-2,-21,1,4,2,0,1,-2,0.230957,0.549805,0.697266,-0.125,1.8125,-0.625,0.662979,-0.278044,1.92402
3674,-7,59,6,3,-4,2,1,-1,0.230957,0.549805,0.697266,-0.125,1.8125,-0.625,0.662979,-0.278044,1.92402
3694,-9,-89,-14,-6,0,-4,-4,-4,0.230957,0.549805,0.697266,-0.125,1.8125,-0.625,0.662979,-0.278044,1.92402
3694,16,20,2,-3,0,-2,-1,-1,0.230957,0.549805,0.697266,-0.125,1.8125,-0.625,0.662979,-0.278044,1.92402
3695,-16,-3,9,1,0,-3,-2,-3,0.229004,0.547363,0.700195,-2.125,1.0625,0.3125,0.662312,-0.277264,1.92435
3695,0,-10,-32,0,-1,0,2,-5,0.229004,0.547363,0.700195,-2.125,1.0625,0.3125,0.662312,-0.277264,1.92435
3709,18,11,-4,4,-3,0,0,11,0.229004,0.547363,0.700195,-2.125,1.0625,0.3125,0.662312,-0.277264,1.92435
3709,-25,-8,4,-2,-1,0,1,-5,0.229004,0.547363,0.700195,-2.125,1.0625,0.3125,0.662312,-0.277264,1.92435
3711,5,34,-3,-7,-5,-3,0,-5,0.238281,0.546387,0.695312,-1.125,-0.875,0.875,0.661908,-0.27739,1.92443
3711,-12,-36,-2,-5,-3,-1,-1,2,0.238281,0.546387,0.695312,-1.125,-0.875,0.875,0.661908,-0.27739,1.92443
3732,7,9,14,0,1,0,0,-3,0.238281,0.546387,0.695312,-1.125,-0.875,0.875,0.661908,-0.27739,1.92443
3732,-5,-17,-9,1,1,1,1,5,0.238281,0.546387,0.695312,-1.125,-0.875,0.875,0.661908,-0.27739,1.92443
3733,4,9,-12,-1,-1,2,0,2,0.253418,0.537109,0.700684,-1,-1.625,1.625,0.661411,-0.278257,1.92458
3733,-5,-9,20,-4,-2,-2,-2,1,0.253418,0.537109,0.700684,-1,-1.625,1.625,0.661411,-0.278257,1.92458
3755,-7,6,-9,-2,2,1,-2,-5,0.253418,0.537109,0.700684,-1,-1.625,1.625,0.661411,-0.278257,1.92458
3755,6,7,22,3,1,0,0,-1,0.253418,0.537109,0.700684,-1,-1.625,1.625,0.661411,-0.278257,1.92458
3756,5,23,-9,-2,1,-2,0,0,0.254883,0.524902,0.697266,-1.625,-1.9375,2.1875,0.66048,-0.279275,1.92485
3756,0,-46,-7,-2,-3,-1,1,1,0.254883,0.524902,0.697266,-1.625,-1.9375,2.1875,0.66048,-0.279275,1.92485
3769,-3,0,2,0,-4,-2,-1,0,0.254883,0.524902,0.697266,-1.625,-1.9375,2.1875,0.66048,-0.279275,1.92485
3769,-2,51,1,-4,-4,-4,-5,-11,0.254883,0.524902,0.697266,-1.625,-1.9375,2.1875,0.66048,-0.279275,1.92485
3771,2,-24,-1,0,1,-1,0,7,0.258789,0.526855,0.69043,-0.0625,-1.8125,1.375,0.660264,-0.280244,1.92485
3771,-10,33,5,1,2,0,-1,1,0.258789,0.526855,0.69043,-0.0625,-1.8125,1.375,0.660264,-0.280244,1.92485
3791,-1,-34,-1,-1,-1,1,-2,-5,0.258789,0.526855,0.69043,-0.0625,-1.8125,1.375,0.660264,-0.280244,1.92485
3791,-1,-14,-7,0,2,-2,-2,-1,0.258789,0.526855,0.69043,-0.0625,-1.8125,1.375,0.660264,-0.280244,1.92485
3793,5,-3,-4,-3,-9,-2,-1,2,0.256348,0.515625,0.694824,0.375,-0.8125,1.9375,0.659839,-0.28103,1.92552
3793,0,-7,-6,2,3,0,-2,-2,0.256348,0.515625,0.694824,0.375,-0.8125,1.9375,0.659839,-0.28103,1.92552
3815,-8,29,6,-2,-1,-2,-2,-3,0.256348,0.515625,0.694824,0.375,-0.8125,1.9375,0.659839,-0.28103,1.92552
3815,-6,5,-3,-3,-3,-3,-2,-3,0.256348,0.515625,0.694824,0.375,-0.8125,1.9375,0.659839,-0.28103,1.92552
3816,9,0,7,0,1,-2,-1,4,0.265137,0.533203,0.679199,2.5625,-0.625,0.5,0.660794,-0.281706,1.92552
3816,-3,-27,0,-8,-9,-3,-2,0,0.265137,0.533203,0.679199,2.5625,-0.625,0.5,0.660794,-0.281706,1.92552
3829,2,18,-17,4,2,0,1,0,0.265137,0.533203,0.679199,2.5625,-0.625,0.5,0.660794,-0.281706,1.92552
3829,24,-1,12,0,-1,0,0,6,0.265137,0.533203,0.679199,2.5625,-0.625,0.5,0.660794,-0.281706,1.92552
3835,-39,8,0,-2,-3,-2,-2,-11,0.25293,0.530762,0.688965,1.625,0.125,0.875,0.661195,-0.281814,1.92574
3835,-3,-19,-4,0,1,0,-1,-3,0.25293,0.530762,0.688965,1.625,0.125,0.875,0.661195,-0.281814,1.92574
3852,1,2,2,-4,-3,-1,-2,-2,0.25293,0.530762,0.688965,1.625,0.125,0.875,0.661195,-0.281814,1.92574
3852,20,-33,-6,-1,-1,0,1,3,0.25293,0.530762,0.688965,1.625,0.125,0.875,0.661195,-0.281814,1.92574
3854,1,18,1,4,1,1,1,-1,0.258301,0.543945,0.678711,0.75,0.1875,0.0625,0.66129,-0.281915,1.92573
3854,11,33,7,1,0,-4,-1,-1,0.258301,0.543945,0.678711,0.75,0.1875,0.0625,0.66129,-0.281915,1.92573
3874,-1,0,-7,-2,-2,-2,-1,-3,0.258301,0.543945,0.678711,0.75,0.1875,0.0625,0.66129,-0.281915,1.92573
3874,-17,-2,0,-1,3,0,-3,-10,0.258301,0.543945,0.678711,0.75,0.1875,0.0625,0.66129,-0.281915,1.92573
3876,19,-5,6,-1,-5,-1,1,2,0.249023,0.533691,0.693359,-1.375,0.4375,0.3125,0.660648,-0.281751,1.92597
3876,-18,-35,-16,-2,0,-2,-2,-7,0.249023,0.533691,0.693359,-1.375,0.4375,0.3125,0.660648,-0.281751,1.92597
3888,5,32,4,1,-2,-1,0,4,0.249023,0.533691,0.693359,-1.375,0.4375,0.3125,0.660648,-0.281751,1.92597
3888,-10,-1,-4,1,1,-1,-1,-2,0.249023,0.533691,0.693359,-1.375,0.4375,0.3125,0.660648,-0.281751,1.92597
3897,21,-1,5,-1,1,0,-1,5,0.248535,0.537598,0.693359,-1.9375,-0.6875,0.125,0.659989,-0.281855,1.92593
3897,-14,7,-4,2,1,0,0,-1,0.248535,0.537598,0.693359,-1.9375,-0.6875,0.125,0.659989,-0.281855,1.92593
3912,5,38,9,2,2,-2,-1,0,0.248535,0.537598,0.693359,-1.9375,-0.6875,0.125,0.659989,-0.281855,1.92593
3912,-20,-39,-5,-4,-8,-2,-4,-3,0.248535,0.537598,0.693359,-1.9375,-0.6875,0.125,0.659989,-0.281855,1.92593
3917,8,22,1,0,2,-1,-2,-3,0.251953,0.540527,0.694824,-0.875,-1.5625,-0.0625,0.659864,-0.282186,1.92561
3917,16,15,0,-1,-3,0,1,7,0.251953,0.540527,0.694824,-0.875,-1.5625,-0.0625,0.659864,-0.282186,1.92561
3934,-2,-18,-11,-3,4,0,-1,-3,0.251953,0.540527,0.694824,-0.875,-1.5625,-0.0625,0.659864,-0.282186,1.92561
3934,-18,-2,7,-1,-1,-1,-1,3,0.251953,0.540527,0.694824,-0.875,-1.5625,-0.0625,0.659864,-0.282186,1.92561
3936,2,8,-2,-4,0,-2,-2,-4,0.255859,0.539551,0.68457,-1.375,-2.375,0.5,0.659698,-0.283009,1.92518
3936,-8,-56,-14,-8,-9,-3,-3,-4,0.255859,0.539551,0.68457,-1.375,-2.375,0.5,0.659698,-0.283009,1.92518
3948,4,-4,6,1,-2,1,0,-3,0.255859,0.539551,0.68457,-1.375,-2.375,0.5,0.659698,-0.283009,1.92518
3948,13,38,-1,5,2,-1,2,4,0.255859,0.539551,0.68457,-1.375,-2.375,0.5,0.659698,-0.283009,1.92518
3955,-1,-40,-7,1,1,1,-1,2,0.262207,0.525391,0.682617,-1.9375,-1.5,0.875,0.658928,-0.283818,1.92505
3955,-8,5,6,-2,-2,-3,-1,3,0.262207,0.525391,0.682617,-1.9375,-1.5,0.875,0.658928,-0.283818,1.92505
3971,-8,4,-5,-2,-2,-1,-3,-8,0.262207,0.525391,0.682617,-1.9375,-1.5,0.875,0.658928,-0.283818,1.92505
3971,-1,3,-5,-1,-4,-2,-1,0,0.262207,0.525391,0.682617,-1.9375,-1.5,0.875,0.658928,-0.283818,1.92505
3973,-6,-15,-1,1,0,0,-1,1,0.261719,0.539062,0.695312,-0.8125,-0.875,1,0.658643,-0.284358,1.92514
3973,4,24,-2,0,3,2,3,7,0.261719,0.539062,0.695312,-0.8125,-0.875,1,0.658643,-0.284358,1.92514
3994,12,-15,-1,0,1,-1,-1,0,0.261719,0.539062,0.695312,-0.8125,-0.875,1,0.658643,-0.284358,1.92514
3994,-29,-1,-2,-3,-4,-1,-1,-1,0.261719,0.539062,0.695312,-0.8125,-0.875,1,0.658643,-0.284358,1.92514
3996,-18,0,2,1,1,-3,-4,-8,0.244629,0.538086,0.694824,-2.8125,-0.4375,2.1875,0.657549,-0.284771,1.92579
3996,2,13,-1,3,3,2,0,-6,0.244629,0.538086,0.694824,-2.8125,-0.4375,2.1875,0.657549,-0.284771,1.92579
4009,-12,33,6,-2,-2,-1,-2,-5,0.244629,0.538086,0.694824,-2.8125,-0.4375,2.1875,0.657549,-0.284771,1.92579
4009,13,-9,0,1,0,0,2,2,0.244629,0.538086,0.694824,-2.8125,-0.4375,2.1875,0.657549,-0.284771,1.92579
4015,-10,-48,-7,-5,-8,-3,-2,-2,0.249512,0.530762,0.700684,-4.4375,-1.1875,2.375,0.65572,-0.285298,1.9263
4015,-6,21,6,0,3,-1,-4,-9,0.249512,0.530762,0.700684,-4.4375,-1.1875,2.375,0.65572,-0.285298,1.9263
4033,2,12,1,-2,-1,-2,0,0,0.249512,0.530762,0.700684,-4.4375,-1.1875,2.375,0.65572,-0.285298,1.9263
4033,8,6,1,0,0,3,-3,0,0.249512,0.530762,0.700684,-4.4375,-1.1875,2.375,0.65572,-0.285298,1.9263
4038,-3,0,-2,-1,1,0,-2,0,0.256348,0.510254,0.690918,-3.4375,-1.6875,1.9375,0.654036,-0.286318,1.92654
4038,12,-2,-6,0,1,0,-2,-1,0.256348,0.510254,0.690918,-3.4375,-1.6875,1.9375,0.654036,-0.286318,1.92654
4054,3,13,-2,1,2,-1,-1,5,0.256348,0.510254,0.690918,-3.4375,-1.6875,1.9375,0.654036,-0.286318,1.92654
4054,14,-35,-4,-4,-6,-3,1,-7,0.256348,0.510254,0.690918,-3.4375,-1.6875,1.9375,0.654036,-0.286318,1.92654
4055,-17,0,0,0,-2,-1,-3,-2,0.259277,0.508301,0.692871,-1.25,-1.1875,2.1875,0.653138,-0.287208,1.92704
4055,-1,-4,2,2,-1,0,0,-7,0.259277,0.508301,0.692871,-1.25,-1.1875,2.1875,0.653138,-0.287208,1.92704
4068,12,-15,-2,0,-2,-2,1,8,0.259277,0.508301,0.692871,-1.25,-1.1875,2.1875,0.653138,-0.287208,1.92704
4068,-1,8,-5,-1,2,2,1,2,0.259277,0.508301,0.692871,-1.25,-1.1875,2.1875,0.653138,-0.287208,1.92704
4075,21,14,-1,-2,-1,0,0,1,0.262695,0.518555,0.687988,1.5,-0.9375,2.0625,0.653353,-0.288158,1.92747
4075,-34,10,0,-3,-2,-1,-1,-6,0.262695,0.518555,0.687988,1.5,-0.9375,2.0625,0.653353,-0.288158,1.92747
4091,1,-46,-8,-2,1,0,0,-1,0.262695,0.518555,0.687988,1.5,-0.9375,2.0625,0.653353,-0.288158,1.92747
4091,-11,34,2,3,1,-2,-5,-11,0.262695,0.518555,0.687988,1.5,-0.9375,2.0625,0.653353,-0.288158,1.92747
4093,27,28,-1,-3,1,0,0,4,0.26709,0.535156,0.692383,1.625,-0.1875,1.4375,0.653919,-0.288692,1.92784
4093,1,14,-1,0,-1,2,-2,0,0.26709,0.535156,0.692383,1.625,-0.1875,1.4375,0.653919,-0.288692,1.92784
4114,-11,-28,1,-2,-5,-1,-2,-3,0.26709,0.535156,0.692383,1.625,-0.1875,1.4375,0.653919,-0.288692,1.92784
4114,-1,-14,3,0,1,-1,0,5,0.26709,0.535156,0.692383,1.625,-0.1875,1.4375,0.653919,-0.288692,1.92784
4115,-2,-21,-1,3,2,1,0,-1,0.257324,0.538086,0.693848,0.0625,-0.375,1.3125,0.653944,-0.288901,1.92811
4115,13,37,6,0,-1,0,-2,1,0.257324,0.538086,0.693848,0.0625,-0.375,1.3125,0.653944,-0.288901,1.92811
4127,-13,-33,-10,-2,-7,-3,-2,-5,0.257324,0.538086,0.693848,0.0625,-0.375,1.3125,0.653944,-0.288901,1.92811
4127,3,-20,1,-1,-1,-4,-1,-3,0.257324,0.538086,0.693848,0.0625,-0.375,1.3125,0.653944,-0.288901,1.92811
4136,-8,5,3,-2,-4,1,0,-1,0.26416,0.545898,0.691406,-0.3125,-1.25,1.1875,0.654145,-0.289581,1.92807
4136,5,-21,-3,1,1,0,-2,3,0.26416,0.545898,0.691406,-0.3125,-1.25,1.1875,0.654145,-0.289581,1.92807
4151,9,28,0,0,-1,5,2,-4,0.26416,0.545898,0.691406,-0.3125,-1.25,1.1875,0.654145,-0.289581,1.92807
4151,9,-9,1,0,2,-1,-2,-6,0.26416,0.545898,0.691406,-0.3125,-1.25,1.1875,0.654145,-0.289581,1.92807
4158,3,-14,1,-2,-1,-2,-3,-2,0.263184,0.530273,0.6875,-2.25,-0.6875,1.875,0.653349,-0.290205,1.92847
4158,-2,-11,0,-1,-4,-3,-2,-2,0.263184,0.530273,0.6875,-2.25,-0.6875,1.875,0.653349,-0.290205,1.92847
4174,2,13,3,-1,-2,-3,-1,-1,0.263184,0.530273,0.6875,-2.25,-0.6875,1.875,0.653349,-0.290205,1.92847
4174,4,4,-4,0,-1,-1,0,-1,0.263184,0.530273,0.6875,-2.25,-0.6875,1.875,0.653349,-0.290205,1.92847
4175,-6,0,-4,-3,-1,-2,-2,3,0.263672,0.525391,0.694336,-2.625,-0.6875,1.75,0.652318,-0.290846,1.92891
4175,5,-7,0,0,2,0,0,5,0.263672,0.525391,0.694336,-2.625,-0.6875,1.75,0.652318,-0.290846,1.92891
4197,-3,8,-3,-2,0,-4,-4,-3,0.263672,0.525391,0.694336,-2.625,-0.6875,1.75,0.652318,-0.290846,1.92891
4197,-7,-29,-2,-3,-2,-1,1,3,0.263672,0.525391,0.694336,-2.625,-0.6875,1.75,0.652318,-0.290846,1.92891
4198,6,1,-2,-1,1,-3,-4,-3,0.264648,0.51709,0.680176,-2.125,0,1.0625,0.651361,-0.291244,1.92929
4198,-4,-9,-6,-2,-4,0,-1,1,0.264648,0.51709,0.680176,-2.125,0,1.0625,0.651361,-0.291244,1.92929
4212,-8,18,-2,2,0,2,1,2,0.264648,0.51709,0.680176,-2.125,0,1.0625,0.651361,-0.291244,1.92929
4212,9,21,3,-4,-1,-1,-2,0,0.264648,0.51709,0.680176,-2.125,0,1.0625,0.651361,-0.291244,1.92929
4213,-5,6,1,0,0,1,-1,-3,0.258301,0.519531,0.687988,-2,0.25,0.4375,0.650596,-0.291307,1.92946
4213,15,8,7,1,-1,-2,1,-1,0.258301,0.519531,0.687988,-2,0.25,0.4375,0.650596,-0.291307,1.92946
4235,7,-37,-1,1,0,1,0,0,0.258301,0.519531,0.687988,-2,0.25,0.4375,0.650596,-0.291307,1.92946
4235,-19,8,-8,-5,-3,-3,-3,0,0.258301,0.519531,0.687988,-2,0.25,0.4375,0.650596,-0.291307,1.92946
4236,0,7,0,1,-2,2,-1,0,0.256348,0.528809,0.69873,0,-0.375,0.375,0.650501,-0.291205,1.92947
4236,2,8,-6,0,-2,0,-1,-1,0.256348,0.528809,0.69873,0,-0.375,0.375,0.650501,-0.291205,1.92947
4248,0,12,14,-4,-4,-3,-1,0,0.256348,0.528809,0.69873,0,-0.375,0.375,0.650501,-0.291205,1.92947
4248,-2,-46,-5,0,1,1,0,2,0.256348,0.528809,0.69873,0,-0.375,0.375,0.650501,-0.291205,1.92947
4257,-21,-12,-5,-7,-3,-3,-3,1,0.257324,0.525879,0.69873,-0.6875,-0.875,1.125,0.65015,-0.29162,1.92955
4257,-2,-6,-6,-2,1,-3,-3,-3,0.257324,0.525879,0.69873,-0.6875,-0.875,1.125,0.65015,-0.29162,1.92955
4272,4,-16,-8,-4,-3,-3,-2,-1,0.257324,0.525879,0.69873,-0.6875,-0.875,1.125,0.65015,-0.29162,1.92955
4272,14,26,2,2,-4,-3,-1,-1,0.257324,0.525879,0.69873,-0.6875,-0.875,1.125,0.65015,-0.29162,1.92955
4272,-8,3,3,3,7,0,1,-2,0.266113,0.52832,0.699219,-0.9375,-0.5,1.0625,0.649692,-0.291994,1.92983
4272,4,-28,2,-1,1,7,-1,-2,0.266113,0.52832,0.699219,-0.9375,-0.5,1.0625,0.649692,-0.291994,1.92983
4294,-3,23,1,-2,-7,-8,0,-1,0.266113,0.52832,0.699219,-0.9375,-0.5,1.0625,0.649692,-0.291994,1.92983
4294,-7,11,-2,-1,-4,-1,0,0,0.266113,0.52832,0.699219,-0.9375,-0.5,1.0625,0.649692,-0.291994,1.92983
4296,6,-8,-2,0,0,-1,1,-3,0.266113,0.53125,0.695801,-0.5,-1.0625,1.375,0.649611,-0.292572,1.92996
4296,0,15,-5,-2,3,-3,0,1,0.266113,0.53125,0.695801,-0.5,-1.0625,1.375,0.649611,-0.292572,1.92996
4308,-5,59,3,0,3,-10,-3,-2,0.266113,0.53125,0.695801,-0.5,-1.0625,1.375,0.649611,-0.292572,1.92996
4308,-10,-25,-7,-2,2,12,-2,-1,0.266113,0.53125,0.695801,-0.5,-1.0625,1.375,0.649611,-0.292572,1.92996
4323,1,-5,0,-2,-2,1,0,-2,0.280762,0.508789,0.674805,-1.75,-0.125,1.5,0.648777,-0.293586,1.93049
4323,4,10,-2,-2,0,-7,1,-1,0.280762,0.508789,0.674805,-1.75,-0.125,1.5,0.648777,-0.293586,1.93049
4332,-5,1,1,1,2,-4,0,-6,0.280762,0.508789,0.674805,-1.75,-0.125,1.5,0.648777,-0.293586,1.93049
4332,4,-7,1,4,9,14,0,5,0.280762,0.508789,0.674805,-1.75,-0.125,1.5,0.648777,-0.293586,1.93049
4334,-11,-20,-7,2,-4,-25,-2,0,0.296387,0.525391,0.674805,-3.9375,1,-1.6875,0.647834,-0.293796,1.93012
4334,-4,17,-2,-4,-26,19,-3,-4,0.296387,0.525391,0.674805,-3.9375,1,-1.6875,0.647834,-0.293796,1.93012
4362,16,-15,-4,4,2,12,2,5,0.296387,0.525391,0.674805,-3.9375,1,-1.6875,0.647834,-0.293796,1.93012
4362,-4,39,1,-7,-13,-9,-3,-10,0.296387,0.525391,0.674805,-3.9375,1,-1.6875,0.647834,-0.293796,1.93012
4363,-34,-14,4,3,11,6,-1,-4,0.288574,0.515137,0.67334,-5.375,3.5625,-3.375,0.646184,-0.292872,1.92989
4363,15,3,3,-1,2,-33,-2,1,0.288574,0.515137,0.67334,-5.375,3.5625,-3.375,0.646184,-0.292872,1.92989
4368,-23,-3,-4,-1,-1,13,-3,-2,0.288574,0.515137,0.67334,-5.375,3.5625,-3.375,0.646184,-0.292872,1.92989
4368,-1,-23,-2,2,36,10,0,1,0.288574,0.515137,0.67334,-5.375,3.5625,-3.375,0.646184,-0.292872,1.92989
4377,11,5,-3,-5,-46,7,1,1,0.259766,0.515137,0.694336,-4.25,5.1875,-5.125,0.644677,-0.290377,1.92963
4377,-4,-52,-6,1,7,-5,0,-1,0.259766,0.515137,0.694336,-4.25,5.1875,-5.125,0.644677,-0.290377,1.92963
4392,-1,18,3,-5,-10,4,-3,-2,0.259766,0.515137,0.694336,-4.25,5.1875,-5.125,0.644677,-0.290377,1.92963
4392,1,21,4,-1,0,-10,0,-3,0.259766,0.515137,0.694336,-4.25,5.1875,-5.125,0.644677,-0.290377,1.92963
4393,8,20,9,0,14,-4,-2,2,0.242676,0.537598,0.728516,0.5625,4.5,-2.9375,0.644589,-0.287841,1.92977
4393,-8,-16,6,-2,3,13,1,-4,0.242676,0.537598,0.728516,0.5625,4.5,-2.9375,0.644589,-0.287841,1.92977
4414,8,-16,-2,0,-8,-17,3,6,0.242676,0.537598,0.728516,0.5625,4.5,-2.9375,0.644589,-0.287841,1.92977
4414,-3,-15,2,-2,-6,10,0,1,0.242676,0.537598,0.728516,0.5625,4.5,-2.9375,0.644589,-0.287841,1.92977
4416,13,28,-4,-1,1,2,-1,2,0.228027,0.532227,0.72998,0.5,2.0625,-1.4375,0.644424,-0.286189,1.92993
4416,1,59,4,-4,2,13,-1,-4,0.228027,0.532227,0.72998,0.5,2.0625,-1.4375,0.644424,-0.286189,1.92993
4427,-7,-47,-19,-1,9,-2,-1,-4,0.228027,0.532227,0.72998,0.5,2.0625,-1.4375,0.644424,-0.286189,1.92993
4427,1,6,-4,-2,-13,-19,-2,-1,0.228027,0.532227,0.72998,0.5,2.0625,-1.4375,0.644424,-0.286189,1.92993
4437,-5,-16,-2,3,1,4,-1,-3,0.223145,0.50293,0.725098,-0.4375,0.9375,0.8125,0.644187,-0.285899,1.93008
4437,2,-5,-1,0,2,-2,-1,3,0.223145,0.50293,0.725098,-0.4375,0.9375,0.8125,0.644187,-0.285899,1.93008
4452,0,7,1,0,5,-4,1,1,0.223145,0.50293,0.725098,-0.4375,0.9375,0.8125,0.644187,-0.285899,1.93008
4452,-7,29,5,-5,8,-13,-3,-2,0.223145,0.50293,0.725098,-0.4375,0.9375,0.8125,0.644187,-0.285899,1.93008
4454,1,-19,-12,-1,-8,17,-2,0,0.230957,0.492676,0.727051,4.6875,-1.25,3.3125,0.644606,-0.286368,1.93114
4454,20,16,-5,1,-2,7,-2,-4,0.230957,0.492676,0.727051,4.6875,-1.25,3.3125,0.644606,-0.286368,1.93114
4474,-3,-8,-3,-2,-6,-5,-4,-1,0.230957,0.492676,0.727051,4.6875,-1.25,3.3125,0.644606,-0.286368,1.93114
4474,1,-1,4,4,11,9,0,0,0.230957,0.492676,0.727051,4.6875,-1.25,3.3125,0.644606,-0.286368,1.93114
4476,-5,37,9,-3,12,-21,-3,-4,0.23291,0.503906,0.717773,8.5,-1,5.4375,0.646434,-0.287164,1.9327
4476,0,-48,0,1,-10,-7,-1,0,0.23291,0.503906,0.717773,8.5,-1,5.4375,0.646434,-0.287164,1.9327
4488,1,-27,-4,1,-12,8,-1,-5,0.23291,0.503906,0.717773,8.5,-1,5.4375,0.646434,-0.287164,1.9327
4488,2,13,-4,-2,-4,-2,0,-1,0.23291,0.503906,0.717773,8.5,-1,5.4375,0.646434,-0.287164,1.9327
4497,3,-9,2,-1,7,-3,-1,-2,0.249023,0.522461,0.709473,11.25,-2.75,6.25,0.649666,-0.288914,1.93393
4497,-8,-17,-2,0,-8,-3,0,2,0.249023,0.522461,0.709473,11.25,-2.75,6.25,0.649666,-0.288914,1.93393
4511,8,20,0,0,14,7,3,1,0.249023,0.522461,0.709473,11.25,-2.75,6.25,0.649666,-0.288914,1.93393
4511,-14,-43,-6,-3,-17,5,0,-3,0.249023,0.522461,0.709473,11.25,-2.75,6.25,0.649666,-0.288914,1.93393
4513,9,42,4,-1,8,-39,0,-2,0.26416,0.546387,0.68457,10.625,-3.8125,5.625,0.653544,-0.291247,1.93456
4513,-16,-44,-7,-3,-2,28,-2,-1,0.26416,0.546387,0.68457,10.625,-3.8125,5.625,0.653544,-0.291247,1.93456
4534,-2,-1,7,-2,9,-11,0,1,0.26416,0.546387,0.68457,10.625,-3.8125,5.625,0.653544,-0.291247,1.93456
4534,11,2,-1,0,-13,19,0,1,0.26416,0.546387,0.68457,10.625,-3.8125,5.625,0.653544,-0.291247,1.93456
4536,0,-17,-4,2,-2,7,-1,1,0.270508,0.544434,0.67627,6.1875,-4.0625,5.625,0.655986,-0.293709,1.93516
4536,0,28,3,1,4,-27,1,2,0.270508,0.544434,0.67627,6.1875,-4.0625,5.625,0.655986,-0.293709,1.93516
4548,-4,-6,-1,-3,-2,10,-3,-4,0.270508,0.544434,0.67627,6.1875,-4.0625,5.625,0.655986,-0.293709,1.93516
4548,6,12,-2,0,-2,-2,-4,2,0.270508,0.544434,0.67627,6.1875,-4.0625,5.625,0.655986,-0.293709,1.93516
4557,-6,16,-1,-2,-1,7,-2,-3,0.281738,0.553711,0.668457,3,-3.6875,3.8125,0.65776,-0.296005,1.93524
4557,4,2,1,-1,-3,5,3,2,0.281738,0.553711,0.668457,3,-3.6875,3.8125,0.65776,-0.296005,1.93524
4571,17,-5,-5,2,14,-15,-6,-7,0.281738,0.553711,0.668457,3,-3.6875,3.8125,0.65776,-0.296005,1.93524
4571,-9,25,-5,-3,-18,-10,2,-1,0.281738,0.553711,0.668457,3,-3.6875,3.8125,0.65776,-0.296005,1.93524
4573,-12,-69,-6,0,4,6,-2,1,0.294434,0.547363,0.65332,-2.25,-3.25,2.9375,0.657849,-0.298237,1.93521
4573,5,25,2,1,-14,-10,-1,-6,0.294434,0.547363,0.65332,-2.25,-3.25,2.9375,0.657849,-0.298237,1.93521
4594,19,4,-6,-9,-6,6,-1,3,0.294434,0.547363,0.65332,-2.25,-3.25,2.9375,0.657849,-0.298237,1.93521
4594,6,-20,-6,0,-1,0,0,2,0.294434,0.547363,0.65332,-2.25,-3.25,2.9375,0.657849,-0.298237,1.93521
4595,1,11,7,-1,-2,-4,1,-2,0.296875,0.523438,0.664062,-4.375,-1.25,1.6875,0.656481,-0.29981,1.93527
4595,-6,-5,2,-2,6,4,-1,6,0.296875,0.523438,0.664062,-4.375,-1.25,1.6875,0.656481,-0.29981,1.93527
4617,-7,25,-4,2,-5,2,0,-1,0.296875,0.523438,0.664062,-4.375,-1.25,1.6875,0.656481,-0.29981,1.93527
4617,1,3,9,1,-1,-9,-2,-3,0.296875,0.523438,0.664062,-4.375,-1.25,1.6875,0.656481,-0.29981,1.93527
4618,-10,-13,-7,-4,-5,4,5,7,0.273438,0.526855,0.67627,-1.8125,-0.75,1.5,0.655917,-0.300449,1.93566
4618,-6,0,0,2,12,-15,-9,-19,0.273438,0.526855,0.67627,-1.8125,-0.75,1.5,0.655917,-0.300449,1.93566
4632,-46,1,1,-2,-7,-16,1,-4,0.273438,0.526855,0.67627,-1.8125,-0.75,1.5,0.655917,-0.300449,1.93566
4632,1,-46,-7,-1,0,23,-8,1,0.273438,0.526855,0.67627,-1.8125,-0.75,1.5,0.655917,-0.300449,1.93566
4633,14,4,0,0,-10,10,-1,1,0.272461,0.527832,0.691895,-6.8125,-1.1875,0.9375,0.65346,-0.301089,1.93567
4633,-4,4,-4,-3,-2,0,0,2,0.272461,0.527832,0.691895,-6.8125,-1.1875,0.9375,0.65346,-0.301089,1.93567
4654,9,-12,-3,-1,0,-18,-1,0,0.272461,0.527832,0.691895,-6.8125,-1.1875,0.9375,0.65346,-0.301089,1.93567
4654,4,-9,4,2,8,-6,7,-3,0.272461,0.527832,0.691895,-6.8125,-1.1875,0.9375,0.65346,-0.301089,1.93567
4655,1,-3,2,0,-4,1,-2,3,0.272949,0.54248,0.694336,-3.25,-2.1875,0.8125,0.652731,-0.301812,1.93532
4655,-10,28,1,-6,0,-5,-4,0,0.272949,0.54248,0.694336,-3.25,-2.1875,0.8125,0.652731,-0.301812,1.93532
4675,2,1,6,6,1,3,-1,-2,0.26709,0.504395,0.703125,-4.3125,-2,0.25,0.650602,-0.30237,1.93518
4675,-1,1,-3,-2,-1,-12,-2,-2,0.26709,0.504395,0.703125,-4.3125,-2,0.25,0.650602,-0.30237,1.93518
4676,7,-17,-4,-1,-3,7,0,-4,0.26709,0.504395,0.703125,-4.3125,-2,0.25,0.650602,-0.30237,1.93518
4676,-1,-2,-8,-1,1,-5,0,1,0.26709,0.504395,0.703125,-4.3125,-2,0.25,0.650602,-0.30237,1.93518
4691,1,-8,-4,-1,-1,13,-2,0,0.276367,0.478027,0.702148,-3.5,-1.9375,0.3125,0.648467,-0.303264,1.93511
4691,0,13,-2,1,7,-15,-1,-2,0.276367,0.478027,0.702148,-3.5,-1.9375,0.3125,0.648467,-0.303264,1.93511
4692,-2,-19,-1,1,-12,-3,-2,-3,0.276367,0.478027,0.702148,-3.5,-1.9375,0.3125,0.648467,-0.303264,1.93511
4692,6,3,2,1,0,1,0,3,0.276367,0.478027,0.702148,-3.5,-1.9375,0.3125,0.648467,-0.303264,1.93511
4714,-5,2,-2,-5,-7,3,3,2,0.280273,0.484375,0.692383,2.25,-1.3125,-0.0625,0.648494,-0.303884,1.93503
4714,-9,-14,-4,-2,1,-1,-1,-2,0.280273,0.484375,0.692383,2.25,-1.3125,-0.0625,0.648494,-0.303884,1.93503
4714,-1,24,3,-2,17,3,-2,0,0.280273,0.484375,0.692383,2.25,-1.3125,-0.0625,0.648494,-0.303884,1.93503
4714,-3,-4,-1,-1,-12,-4,0,1,0.280273,0.484375,0.692383,2.25,-1.3125,-0.0625,0.648494,-0.303884,1.93503
4735,14,-8,-4,-2,-7,4,-3,-2,0.272461,0.489746,0.707031,5.9375,0.5625,-1.125,0.649654,-0.303655,1.93521
4735,-13,-7,5,0,1,-7,0,-2,0.272461,0.489746,0.707031,5.9375,0.5625,-1.125,0.649654,-0.303655,1.93521
4736,0,9,-11,-4,-3,-16,-4,-6,0.272461,0.489746,0.707031,5.9375,0.5625,-1.125,0.649654,-0.303655,1.93521
4736,-10,8,-3,-3,-1,14,-2,-2,0.272461,0.489746,0.707031,5.9375,0.5625,-1.125,0.649654,-0.303655,1.93521
4751,-4,-8,-3,2,3,-27,-3,-4,0.260254,0.492188,0.717773,7.6875,2.75,0.8125,0.650971,-0.302727,1.93636
4751,7,23,2,1,-10,27,0,1,0.260254,0.492188,0.717773,7.6875,2.75,0.8125,0.650971,-0.302727,1.93636
4752,-1,7,4,1,6,17,1,-1,0.260254,0.492188,0.717773,7.6875,2.75,0.8125,0.650971,-0.302727,1.93636
4752,-1,-30,-4,-1,-4,-10,-2,-2,0.260254,0.492188,0.717773,7.6875,2.75,0.8125,0.650971,-0.302727,1.93636
4773,-1,22,-1,1,2,1,-1,0,0.255859,0.53418,0.692871,12.1875,2.6875,1.8125,0.654984,-0.302025,1.93756
4773,-2,-2,-1,0,2,-15,0,1,0.255859,0.53418,0.692871,12.1875,2.6875,1.8125,0.654984,-0.302025,1.93756
4774,3,-33,5,1,-2,-2,0,0,0.255859,0.53418,0.692871,12.1875,2.6875,1.8125,0.654984,-0.302025,1.93756
4774,-3,14,-2,-1,2,-2,-2,-2,0.255859,0.53418,0.692871,12.1875,2.6875,1.8125,0.654984,-0.302025,1.93756
4796,-6,-11,-8,-2,5,5,0,-1,0.265625,0.573242,0.70166,14.5625,1.5,1.125,0.660477,-0.301465,1.93801
4796,6,16,1,-4,-4,-8,-5,1,0.265625,0.573242,0.70166,14.5625,1.5,1.125,0.660477,-0.301465,1.93801
4796,3,-5,-6,1,7,2,1,-2,0.265625,0.573242,0.70166,14.5625,1.5,1.125,0.660477,-0.301465,1.93801
4796,-4,18,0,5,7,-7,-5,-2,0.265625,0.573242,0.70166,14.5625,1.5,1.125,0.660477,-0.301465,1.93801
4811,5,-1,5,-7,-17,1,-2,1,0.283691,0.624023,0.647461,0.1875,-1.5625,-1.125,0.663032,-0.301751,1.93667
4811,-5,-17,5,3,-6,-19,-2,-1,0.283691,0.624023,0.647461,0.1875,-1.5625,-1.125,0.663032,-0.301751,1.93667
4812,6,12,-5,-3,-5,14,-5,3,0.283691,0.624023,0.647461,0.1875,-1.5625,-1.125,0.663032,-0.301751,1.93667
4812,0,-8,10,-2,6,27,4,-1,0.283691,0.624023,0.647461,0.1875,-1.5625,-1.125,0.663032,-0.301751,1.93667
4833,-8,-5,-6,-2,0,8,9,4,0.28418,0.575684,0.646484,-9.9375,-0.6875,-1.375,0.661289,-0.302009,1.93572
4833,43,25,-7,-4,-3,-23,0,-4,0.28418,0.575684,0.646484,-9.9375,-0.6875,-1.375,0.661289,-0.302009,1.93572
4834,19,-38,-1,1,-4,10,-1,1,0.28418,0.575684,0.646484,-9.9375,-0.6875,-1.375,0.661289,-0.302009,1.93572
4834,-34,54,10,1,-2,-16,-14,-12,0.28418,0.575684,0.646484,-9.9375,-0.6875,-1.375,0.661289,-0.302009,1.93572
4856,6,-53,-7,-3,-2,18,30,15,0.310547,0.591309,0.660156,-19.4375,-0.75,-5.125,0.656672,-0.30189,1.93352
4856,-55,-29,-5,-2,1,-19,-38,-18,0.310547,0.591309,0.660156,-19.4375,-0.75,-5.125,0.656672,-0.30189,1.93352
4857,50,52,-5,-6,-8,-9,6,15,0.310547,0.591309,0.660156,-19.4375,-0.75,-5.125,0.656672,-0.30189,1.93352
4857,22,-31,-7,2,-4,-5,25,13,0.310547,0.591309,0.660156,-19.4375,-0.75,-5.125,0.656672,-0.30189,1.93352
4870,-28,11,3,2,2,3,18,4,0.25293,0.436523,0.782227,-8.0625,8.875,2.1875,0.649758,-0.299435,1.93705
4870,15,23,-1,-3,6,11,-4,2,0.25293,0.436523,0.782227,-8.0625,8.875,2.1875,0.649758,-0.299435,1.93705
4879,-25,-10,1,3,-1,-17,-1,-29,0.25293,0.436523,0.782227,-8.0625,8.875,2.1875,0.649758,-0.299435,1.93705
4879,-20,-3,-13,-5,-10,-6,-14,-5,0.25293,0.436523,0.782227,-8.0625,8.875,2.1875,0.649758,-0.299435,1.93705
4893,16,38,11,-3,-1,-8,0,7,0.245117,0.293457,0.76123,4.9375,8.375,13.625,0.644067,-0.300084,1.94461
4893,-8,-7,4,4,3,11,13,4,0.245117,0.293457,0.76123,4.9375,8.375,13.625,0.644067,-0.300084,1.94461
4894,-14,4,6,4,24,-56,-12,-2,0.245117,0.293457,0.76123,4.9375,8.375,13.625,0.644067,-0.300084,1.94461
4894,6,-14,-3,-5,-29,73,19,3,0.245117,0.293457,0.76123,4.9375,8.375,13.625,0.644067,-0.300084,1.94461
4915,4,-46,-19,0,-4,-7,-11,-19,0.187012,0.51123,0.641602,19.625,1.625,4.25,0.650927,-0.298935,1.94622
4915,0,51,9,-2,-5,1,-1,1,0.187012,0.51123,0.641602,19.625,1.625,4.25,0.650927,-0.298935,1.94622
4917,-3,9,9,0,2,-4,1,-3,0.187012,0.51123,0.641602,19.625,1.625,4.25,0.650927,-0.298935,1.94622
4917,15,-3,7,3,15,-25,-3,3,0.187012,0.51123,0.641602,19.625,1.625,4.25,0.650927,-0.298935,1.94622
4939,-3,-7,-1,1,0,18,-19,-13,0.208496,0.708496,0.650391,13.5625,-5.5625,-6.1875,0.66072,-0.297189,1.94192
4939,-9,-14,-9,-10,-32,0,3,0,0.208496,0.708496,0.650391,13.5625,-5.5625,-6.1875,0.66072,-0.297189,1.94192
4939,-1,12,5,10,39,-15,1,11,0.208496,0.708496,0.650391,13.5625,-5.5625,-6.1875,0.66072,-0.297189,1.94192
4939,4,-14,0,2,5,-12,-6,-2,0.208496,0.708496,0.650391,13.5625,-5.5625,-6.1875,0.66072,-0.297189,1.94192
4953,-3,-39,-3,1,-4,3,-16,-5,0.239746,0.63623,0.685059,-9.9375,-3.6875,0.75,0.659596,-0.297298,1.94069
4953,25,35,-6,-2,1,-9,17,8,0.239746,0.63623,0.685059,-9.9375,-3.6875,0.75,0.659596,-0.297298,1.94069
4968,-23,-1,2,-5,-22,18,-1,-8,0.239746,0.63623,0.685059,-9.9375,-3.6875,0.75,0.659596,-0.297298,1.94069
4968,-1,-36,-7,-1,3,-5,-8,0,0.239746,0.63623,0.685059,-9.9375,-3.6875,0.75,0.659596,-0.297298,1.94069
4976,20,35,-4,-4,4,-9,-3,3,0.285156,0.525879,0.662109,-12.8125,-7.125,4.0625,0.655554,-0.300817,1.94021
4976,-3,16,19,3,3,3,-4,1,0.285156,0.525879,0.662109,-12.8125,-7.125,4.0625,0.655554,-0.300817,1.94021
4977,-16,-8,-5,-2,0,15,9,-5,0.285156,0.525879,0.662109,-12.8125,-7.125,4.0625,0.655554,-0.300817,1.94021
4977,3,7,-6,-4,-15,-14,-14,-5,0.285156,0.525879,0.662109,-12.8125,-7.125,4.0625,0.655554,-0.300817,1.94021
4999,-13,4,0,-3,-4,-8,-1,0,0.303711,0.517578,0.676758,-2.5625,-7.875,2.875,0.654849,-0.304333,1.93931
4999,5,-32,-4,4,17,-9,-1,5,0.303711,0.517578,0.676758,-2.5625,-7.875,2.875,0.654849,-0.304333,1.93931
5000,8,18,5,5,-20,11,-3,4,0.303711,0.517578,0.676758,-2.5625,-7.875,2.875,0.654849,-0.304333,1.93931
5000,-2,-11,-4,0,8,7,8,-1,0.303711,0.517578,0.676758,-2.5625,-7.875,2.875,0.654849,-0.304333,1.93931
5014,0,2,4,-3,-2,-2,-3,-6,0.318359,0.540039,0.675293,0.5625,-7.625,3.125,0.655778,-0.308099,1.93838
5014,-8,-14,-3,-1,1,5,2,-2,0.318359,0.540039,0.675293,0.5625,-7.625,3.125,0.655778,-0.308099,1.93838
5014,-5,-50,-15,-7,0,3,-2,0,0.318359,0.540039,0.675293,0.5625,-7.625,3.125,0.655778,-0.308099,1.93838
5014,6,38,3,0,-1,-13,-2,-1,0.318359,0.540039,0.675293,0.5625,-7.625,3.125,0.655778,-0.308099,1.93838
5036,-3,52,7,3,-2,5,-6,-4,0.309082,0.507812,0.655273,-3.625,-5.75,3.9375,0.654669,-0.311597,1.93827
5036,-10,-13,-8,-3,-1,3,0,-3,0.309082,0.507812,0.655273,-3.625,-5.75,3.9375,0.654669,-0.311597,1.93827
5037,-11,17,0,-1,-8,-1,-2,1,0.309082,0.507812,0.655273,-3.625,-5.75,3.9375,0.654669,-0.311597,1.93827
5037,10,-23,3,1,1,-2,1,0,0.309082,0.507812,0.655273,-3.625,-5.75,3.9375,0.654669,-0.311597,1.93827
5051,-4,-14,-6,-5,2,0,-2,0,0.332031,0.462402,0.66748,-0.5625,-2.8125,3.3125,0.653339,-0.314604,1.93895
5051,-5,1,-4,-2,-2,-3,6,0,0.332031,0.462402,0.66748,-0.5625,-2.8125,3.3125,0.653339,-0.314604,1.93895
5051,-1,4,4,-2,-5,8,-2,-1,0.332031,0.462402,0.66748,-0.5625,-2.8125,3.3125,0.653339,-0.314604,1.93895
5051,4,-9,-7,-2,3,-4,-5,-6,0.332031,0.462402,0.66748,-0.5625,-2.8125,3.3125,0.653339,-0.314604,1.93895
5074,-9,-5,-1,1,3,-4,4,6,0.32666,0.5,0.646973,1.625,-1.5,1.625,0.65389,-0.316702,1.93895
5074,13,6,-12,-1,-5,1,0,6,0.32666,0.5,0.646973,1.625,-1.5,1.625,0.65389,-0.316702,1.93895
5075,-3,-98,-13,-5,-7,3,-2,1,0.32666,0.5,0.646973,1.625,-1.5,1.625,0.65389,-0.316702,1.93895
5075,39,95,6,2,6,-1,1,4,0.32666,0.5,0.646973,1.625,-1.5,1.625,0.65389,-0.316702,1.93895
5095,-45,-66,-7,-6,-8,-12,-9,-11,0.292969,0.550781,0.724121,3.5625,2,-3.6875,0.655258,-0.315335,1.93837
5095,-1,-15,3,-1,-3,10,13,0,0.292969,0.550781,0.724121,3.5625,2,-3.6875,0.655258,-0.315335,1.93837
5097,3,34,8,-2,1,5,-6,1,0.292969,0.550781,0.724121,3.5625,2,-3.6875,0.655258,-0.315335,1.93837
5097,-17,-42,-5,1,4,-3,-13,0,0.292969,0.550781,0.724121,3.5625,2,-3.6875,0.655258,-0.315335,1.93837
5111,31,30,4,0,5,-15,2,-11,0.253906,0.409668,0.749512,9.5,7.375,3.25,0.654384,-0.313501,1.94204
5111,-11,-1,1,2,-7,8,11,5,0.253906,0.409668,0.749512,9.5,7.375,3.25,0.654384,-0.313501,1.94204
5119,5,4,-5,-3,-3,-2,-4,-4,0.253906,0.409668,0.749512,9.5,7.375,3.25,0.654384,-0.313501,1.94204
5119,-10,-25,2,1,1,-2,8,0,0.253906,0.409668,0.749512,9.5,7.375,3.25,0.654384,-0.313501,1.94204
5134,4,6,0,1,-6,2,-13,2,0.284668,0.458496,0.69873,4.9375,7,1.3125,0.65396,-0.312242,1.94451
5134,-3,-13,3,2,2,-6,-14,-7,0.284668,0.458496,0.69873,4.9375,7,1.3125,0.65396,-0.312242,1.94451
5135,-3,19,-2,-3,-1,7,9,2,0.284668,0.458496,0.69873,4.9375,7,1.3125,0.65396,-0.312242,1.94451
5135,-9,-16,-4,1,0,1,0,0,0.284668,0.458496,0.69873,4.9375,7,1.3125,0.65396,-0.312242,1.94451
5156,-1,24,1,-5,-3,-5,0,0,0.210938,0.564941,0.646973,0.6875,3.9375,-2.8125,0.655569,-0.308996,1.94424
5156,-1,-12,7,-4,-6,0,-6,-7,0.210938,0.564941,0.646973,0.6875,3.9375,-2.8125,0.655569,-0.308996,1.94424
5157,-6,27,-17,0,0,-1,-2,-1,0.210938,0.564941,0.646973,0.6875,3.9375,-2.8125,0.655569,-0.308996,1.94424
5157,-11,-5,-6,-7,-17,-1,1,-5,0.210938,0.564941,0.646973,0.6875,3.9375,-2.8125,0.655569,-0.308996,1.94424
5171,19,-5,-2,5,20,-4,-1,1,0.246582,0.591797,0.664062,-1.25,1.0625,-8.375,0.657435,-0.306133,1.94154
5171,2,-23,-1,1,-1,14,1,-6,0.246582,0.591797,0.664062,-1.25,1.0625,-8.375,0.657435,-0.306133,1.94154
5179,-8,43,9,0,-2,3,-6,-4,0.246582,0.591797,0.664062,-1.25,1.0625,-8.375,0.657435,-0.306133,1.94154
5179,-7,-6,-5,-1,4,0,-1,-5,0.246582,0.591797,0.664062,-1.25,1.0625,-8.375,0.657435,-0.306133,1.94154
5194,9,-10,-8,2,-10,4,9,9,0.283203,0.607422,0.690918,-14,1.25,-8.375,0.65476,-0.303998,1.93901
5194,-17,-1,1,0,-9,-3,-6,-1,0.283203,0.607422,0.690918,-14,1.25,-8.375,0.65476,-0.303998,1.93901
5195,4,-22,-7,-1,-4,5,4,4,0.283203,0.607422,0.690918,-14,1.25,-8.375,0.65476,-0.303998,1.93901
5195,-7,37,6,-1,18,-2,4,-2,0.283203,0.607422,0.690918,-14,1.25,-8.375,0.65476,-0.303998,1.93901
5215,-13,-42,-5,-1,-13,-9,-7,-2,0.253906,0.563965,0.675293,-21.6875,1.4375,-5.4375,0.648643,-0.301876,1.93733
5215,-3,36,14,3,21,-12,0,-2,0.253906,0.563965,0.675293,-21.6875,1.4375,-5.4375,0.648643,-0.301876,1.93733
5215,-4,18,-8,-10,-15,0,-5,-4,0.253906,0.563965,0.675293,-21.6875,1.4375,-5.4375,0.648643,-0.301876,1.93733
5215,0,-44,-6,3,-17,11,1,3,0.253906,0.563965,0.675293,-21.6875,1.4375,-5.4375,0.648643,-0.301876,1.93733
5239,12,19,11,12,38,-4,26,1,0.258301,0.484375,0.716309,-12.8125,0.6875,-1.5625,0.643266,-0.301191,1.93741
5239,4,-12,2,6,-1,14,-7,4,0.258301,0.484375,0.716309,-12.8125,0.6875,-1.5625,0.643266,-0.301191,1.93741
5240,-39,-3,3,-1,37,-25,-22,3,0.258301,0.484375,0.716309,-12.8125,0.6875,-1.5625,0.643266,-0.301191,1.93741
5240,9,14,-2,-7,-42,8,-5,-5,0.258301,0.484375,0.716309,-12.8125,0.6875,-1.5625,0.643266,-0.301191,1.93741
5254,-10,-22,-15,-18,-27,-2,24,-3,0.280762,0.500488,0.727051,-1.875,-0.375,-3.125,0.641979,-0.300738,1.93674
5254,15,16,3,6,11,-4,3,0,0.280762,0.500488,0.727051,-1.875,-0.375,-3.125,0.641979,-0.300738,1.93674
5254,6,-8,11,2,9,-9,10,0,0.280762,0.500488,0.727051,-1.875,-0.375,-3.125,0.641979,-0.300738,1.93674
5254,-2,11,-12,2,17,-21,-2,2,0.280762,0.500488,0.727051,-1.875,-0.375,-3.125,0.641979,-0.300738,1.93674
5276,-5,-8,-7,-6,-10,25,-11,-2,0.250488,0.476562,0.721191,-1.5625,2.0625,2.25,0.639846,-0.300215,1.93825
5276,1,30,-1,-3,0,-3,6,1,0.250488,0.476562,0.721191,-1.5625,2.0625,2.25,0.639846,-0.300215,1.93825
5277,-3,-21,7,4,-15,12,-3,17,0.250488,0.476562,0.721191,-1.5625,2.0625,2.25,0.639846,-0.300215,1.93825
5277,-13,-11,0,-2,1,-24,-5,-14,0.250488,0.476562,0.721191,-1.5625,2.0625,2.25,0.639846,-0.300215,1.93825
5298,-6,-26,-11,-7,-16,11,-13,-12,0.235352,0.402344,0.734375,9,0.25,6.8125,0.639432,-0.301137,1.94104
5298,-13,-4,-16,-4,1,-3,0,4,0.235352,0.402344,0.734375,9,0.25,6.8125,0.639432,-0.301137,1.94104
5306,27,18,7,5,6,7,8,10,0.235352,0.402344,0.734375,9,0.25,6.8125,0.639432,-0.301137,1.94104
5306,8,2,13,8,7,19,4,12,0.235352,0.402344,0.734375,9,0.25,6.8125,0.639432,-0.301137,1.94104
5313,-6,-7,17,9,13,-14,51,-24,0.266113,0.490234,0.714844,26.25,-2,4.75,0.647268,-0.302534,1.94242
5313,42,60,-13,-8,-8,-20,-72,-13,0.266113,0.490234,0.714844,26.25,-2,4.75,0.647268,-0.302534,1.94242
5313,14,-28,0,-3,-11,-10,39,-4,0.266113,0.490234,0.714844,26.25,-2,4.75,0.647268,-0.302534,1.94242
5313,-22,-26,-11,-7,-1,-2,5,5,0.266113,0.490234,0.714844,26.25,-2,4.75,0.647268,-0.302534,1.94242
5336,-1,-3,14,1,1,3,-9,1,0.237793,0.584473,0.697754,20.875,-2.875,3.5,0.655422,-0.302919,1.94244
5336,-64,-3,-9,-4,-1,-2,17,-6,0.237793,0.584473,0.697754,20.875,-2.875,3.5,0.655422,-0.302919,1.94244
5337,32,13,5,2,-8,4,-22,-7,0.237793,0.584473,0.697754,20.875,-2.875,3.5,0.655422,-0.302919,1.94244
5337,0,-15,-4,-2,8,-4,-2,2,0.237793,0.584473,0.697754,20.875,-2.875,3.5,0.655422,-0.302919,1.94244
5359,0,-46,-9,2,0,2,-12,23,0.251465,0.544434,0.682129,3.75,-3.5,7.25,0.656736,-0.304981,1.94367
5359,-9,27,6,-5,-7,6,1,-17,0.251465,0.544434,0.682129,3.75,-3.5,7.25,0.656736,-0.304981,1.94367
5359,-27,-17,-4,-2,-4,-4,15,-21,0.251465,0.544434,0.682129,3.75,-3.5,7.25,0.656736,-0.304981,1.94367
5359,1,-16,0,-2,4,0,-6,6,0.251465,0.544434,0.682129,3.75,-3.5,7.25,0.656736,-0.304981,1.94367
5373,5,-1,-10,-2,-6,-2,8,3,0.302246,0.433105,0.637207,-0.1875,-3.875,5.5625,0.655192,-0.308582,1.94489
5373,16,9,5,9,4,7,10,12,0.302246,0.433105,0.637207,-0.1875,-3.875,5.5625,0.655192,-0.308582,1.94489
5374,11,26,-7,-2,4,-1,-1,2,0.302246,0.433105,0.637207,-0.1875,-3.875,5.5625,0.655192,-0.308582,1.94489
5374,-26,-29,-6,-4,1,-4,-13,-11,0.302246,0.433105,0.637207,-0.1875,-3.875,5.5625,0.655192,-0.308582,1.94489
5396,31,71,10,2,0,2,-12,-1,0.302734,0.429688,0.666016,9.875,-0.75,4.9375,0.656693,-0.310984,1.94666
5396,-44,-74,-5,-3,-1,-2,5,5,0.302734,0.429688,0.666016,9.875,-0.75,4.9375,0.656693,-0.310984,1.94666
5397,54,2,-14,-4,-8,-7,-7,-12,0.302734,0.429688,0.666016,9.875,-0.75,4.9375,0.656693,-0.310984,1.94666
5397,-5,10,11,0,1,-1,-10,2,0.302734,0.429688,0.666016,9.875,-0.75,4.9375,0.656693,-0.310984,1.94666
5419,3,29,-5,-2,1,-5,-27,-3,0.274902,0.632324,0.669922,9.8125,-2,-0.875,0.662437,-0.310849,1.94531
5419,23,-9,-1,2,-2,1,3,0,0.274902,0.632324,0.669922,9.8125,-2,-0.875,0.662437,-0.310849,1.94531
5419,-7,0,6,6,2,5,-5,-10,0.274902,0.632324,0.669922,9.8125,-2,-0.875,0.662437,-0.310849,1.94531
5419,-6,6,-15,-5,-5,-9,-20,-3,0.274902,0.632324,0.669922,9.8125,-2,-0.875,0.662437,-0.310849,1.94531
5434,1,-6,-7,-1,-1,-1,-4,5,0.307129,0.727539,0.637695,-3.25,-4.0625,0.9375,0.66617,-0.312181,1.94325
5434,8,-28,-8,0,-2,-1,-6,-4,0.307129,0.727539,0.637695,-3.25,-4.0625,0.9375,0.66617,-0.312181,1.94325
5434,-9,26,-7,-2,-7,1,1,1,0.307129,0.727539,0.637695,-3.25,-4.0625,0.9375,0.66617,-0.312181,1.94325
5434,21,-34,7,10,16,5,10,-5,0.307129,0.727539,0.637695,-3.25,-4.0625,0.9375,0.66617,-0.312181,1.94325
5456,-1,-24,14,-5,0,-9,-30,-5,0.306641,0.653809,0.673828,-13.75,-3.5,-0.125,0.664166,-0.313253,1.94163
5456,-39,-18,7,-1,4,-4,30,6,0.306641,0.653809,0.673828,-13.75,-3.5,-0.125,0.664166,-0.313253,1.94163
5457,-16,22,0,-9,1,-3,-11,-3,0.306641,0.653809,0.673828,-13.75,-3.5,-0.125,0.664166,-0.313253,1.94163
5457,2,13,2,-2,-6,1,12,3,0.306641,0.653809,0.673828,-13.75,-3.5,-0.125,0.664166,-0.313253,1.94163
5479,27,12,0,2,-4,2,2,5,0.287109,0.556641,0.641113,-18.6875,-4.9375,1.25,0.659201,-0.315085,1.94052
5479,13,0,-1,-1,-1,1,3,18,0.287109,0.556641,0.641113,-18.6875,-4.9375,1.25,0.659201,-0.315085,1.94052
5479,-1,-48,1,-1,-8,2,-2,-7,0.287109,0.556641,0.641113,-18.6875,-4.9375,1.25,0.659201,-0.315085,1.94052
5479,4,23,-3,-4,-3,3,0,-3,0.287109,0.556641,0.641113,-18.6875,-4.9375,1.25,0.659201,-0.315085,1.94052
5494,-16,14,0,1,-3,3,0,-3,0.347656,0.524902,0.696289,-25.5625,-4.1875,-2.875,0.650729,-0.317089,1.93876
5494,13,-3,-4,-3,-4,-4,-4,-1,0.347656,0.524902,0.696289,-25.5625,-4.1875,-2.875,0.650729,-0.317089,1.93876
5494,-15,3,2,3,-1,-1,-4,7,0.347656,0.524902,0.696289,-25.5625,-4.1875,-2.875,0.650729,-0.317089,1.93876
5494,8,-15,-4,-3,-2,0,7,-2,0.347656,0.524902,0.696289,-25.5625,-4.1875,-2.875,0.650729,-0.317089,1.93876
5516,-16,26,-2,-3,3,0,0,-2,0.291016,0.370605,0.699219,-15.25,-0.25,3.4375,0.641913,-0.318569,1.9407
5516,2,-11,2,-1,-3,-1,-1,-8,0.291016,0.370605,0.699219,-15.25,-0.25,3.4375,0.641913,-0.318569,1.9407
5516,-12,-8,-1,0,-2,-2,0,5,0.291016,0.370605,0.699219,-15.25,-0.25,3.4375,0.641913,-0.318569,1.9407
5516,4,-2,-3,-2,1,-2,6,-4,0.291016,0.370605,0.699219,-15.25,-0.25,3.4375,0.641913,-0.318569,1.9407
5539,-10,-10,0,2,-1,-2,7,-2,0.314453,0.42041,0.682129,-2.8125,1.75,-2.5,0.6392,-0.318773,1.94099
5539,17,21,2,-5,-1,3,-7,1,0.314453,0.42041,0.682129,-2.8125,1.75,-2.5,0.6392,-0.318773,1.94099
5539,-13,-31,-3,-2,-2,-8,1,0,0.314453,0.42041,0.682129,-2.8125,1.75,-2.5,0.6392,-0.318773,1.94099
5539,-10,20,-1,-5,-4,-4,-15,-4,0.314453,0.42041,0.682129,-2.8125,1.75,-2.5,0.6392,-0.318773,1.94099
5561,1,-19,-3,1,0,1,-4,-7,0.277344,0.495605,0.720703,-0.875,6.625,-5.5,0.638119,-0.315595,1.94116
5561,-2,-34,-7,-1,-8,-3,-1,2,0.277344,0.495605,0.720703,-0.875,6.625,-5.5,0.638119,-0.315595,1.94116
5562,6,14,6,3,11,2,-6,6,0.277344,0.495605,0.720703,-0.875,6.625,-5.5,0.638119,-0.315595,1.94116
5562,3,3,1,-1,-8,-3,-1,-5,0.277344,0.495605,0.720703,-0.875,6.625,-5.5,0.638119,-0.315595,1.94116
5575,-12,6,-3,-4,-1,0,12,7,0.237305,0.484863,0.723145,-1.8125,4.9375,-4.875,0.636582,-0.312154,1.94105
5575,34,-31,-2,4,6,6,14,10,0.237305,0.484863,0.723145,-1.8125,4.9375,-4.875,0.636582,-0.312154,1.94105
5583,3,52,6,1,-1,0,-4,-1,0.237305,0.484863,0.723145,-1.8125,4.9375,-4.875,0.636582,-0.312154,1.94105
5583,-6,-19,6,-5,2,3,-1,-4,0.237305,0.484863,0.723145,-1.8125,4.9375,-4.875,0.636582,-0.312154,1.94105
5599,-13,-13,-5,0,-2,-4,-14,-3,0.255859,0.505859,0.740234,0.8125,2.125,-5.625,0.63647,-0.309752,1.94019
5599,-1,2,-1,-1,-2,-4,-2,-8,0.255859,0.505859,0.740234,0.8125,2.125,-5.625,0.63647,-0.309752,1.94019
5600,4,-11,-8,-1,-2,-2,4,-1,0.255859,0.505859,0.740234,0.8125,2.125,-5.625,0.63647,-0.309752,1.94019
5600,8,28,0,3,7,-7,4,8,0.255859,0.505859,0.740234,0.8125,2.125,-5.625,0.63647,-0.309752,1.94019
5613,-10,-9,-4,-1,-2,-13,12,-11,0.226074,0.494629,0.736816,-0.75,2,-1.25,0.6352,-0.307555,1.94054
5613,0,7,4,1,-16,21,2,-9,0.226074,0.494629,0.736816,-0.75,2,-1.25,0.6352,-0.307555,1.94054
5614,-10,-9,1,-3,12,1,-29,1,0.226074,0.494629,0.736816,-0.75,2,-1.25,0.6352,-0.307555,1.94054
5614,1,7,-6,-2,-20,16,-10,-1,0.226074,0.494629,0.736816,-0.75,2,-1.25,0.6352,-0.307555,1.94054
5636,1,-6,2,2,17,-24,17,6,0.259277,0.551758,0.708496,-0.875,-0.9375,-2.5,0.635803,-0.306773,1.93954
5636,-4,0,-3,-4,3,-14,-18,-32,0.259277,0.551758,0.708496,-0.875,-0.9375,-2.5,0.635803,-0.306773,1.93954
5637,2,-6,7,2,-23,12,28,21,0.259277,0.551758,0.708496,-0.875,-0.9375,-2.5,0.635803,-0.306773,1.93954
5637,-8,-4,-10,-3,1,36,12,-12,0.259277,0.551758,0.708496,-0.875,-0.9375,-2.5,0.635803,-0.306773,1.93954
5659,8,-8,-8,-2,-5,5,-16,-9,0.273438,0.546387,0.713379,4,0.8125,-0.4375,0.637481,-0.306093,1.93931
5659,-58,-52,-7,0,6,-6,-8,-6,0.273438,0.546387,0.713379,4,0.8125,-0.4375,0.637481,-0.306093,1.93931
5660,9,53,6,-2,3,-21,-8,-1,0.273438,0.546387,0.713379,4,0.8125,-0.4375,0.637481,-0.306093,1.93931
5660,8,-8,-3,1,5,-13,-5,1,0.273438,0.546387,0.713379,4,0.8125,-0.4375,0.637481,-0.306093,1.93931
5689,-8,4,-1,0,-4,11,3,9,0.262695,0.496094,0.700195,5.875,0.125,-1.9375,0.639206,-0.305534,1.93896
5689,6,16,-3,0,2,-10,-3,1,0.262695,0.496094,0.700195,5.875,0.125,-1.9375,0.639206,-0.305534,1.93896
5690,-12,-34,-9,0,1,-2,-4,-10,0.262695,0.496094,0.700195,5.875,0.125,-1.9375,0.639206,-0.305534,1.93896
5690,0,-6,2,1,-4,-10,15,6,0.262695,0.496094,0.700195,5.875,0.125,-1.9375,0.639206,-0.305534,1.93896
5696,0,21,0,-2,-3,2,-14,-9,0.26709,0.485352,0.690918,2.875,-1.25,2.5625,0.639512,-0.306482,1.93965
5696,2,-9,3,-3,-4,-6,2,8,0.26709,0.485352,0.690918,2.875,-1.25,2.5625,0.639512,-0.306482,1.93965
5697,-3,-16,-1,-1,-3,5,-3,-9,0.26709,0.485352,0.690918,2.875,-1.25,2.5625,0.639512,-0.306482,1.93965
5697,11,5,2,2,5,-2,24,6,0.26709,0.485352,0.690918,2.875,-1.25,2.5625,0.639512,-0.306482,1.93965
5718,3,31,2,3,-3,-1,-9,-7,0.272949,0.529297,0.695312,7,-2.125,0.875,0.64217,-0.307108,1.93934
5718,9,25,2,-2,10,14,1,11,0.272949,0.529297,0.695312,7,-2.125,0.875,0.64217,-0.307108,1.93934
5720,-4,-59,-7,2,17,-53,4,11,0.272949,0.529297,0.695312,7,-2.125,0.875,0.64217,-0.307108,1.93934
5720,15,31,5,-1,-36,65,10,-18,0.272949,0.529297,0.695312,7,-2.125,0.875,0.64217,-0.307108,1.93934
5733,-20,-31,-6,-5,-3,-6,-17,-4,0.279785,0.527344,0.692383,3.875,-1.4375,3.5625,0.643566,-0.308347,1.94013
5733,13,33,3,-3,-10,4,10,4,0.279785,0.527344,0.692383,3.875,-1.4375,3.5625,0.643566,-0.308347,1.94013
5733,-6,3,-2,-1,12,5,1,-7,0.279785,0.527344,0.692383,3.875,-1.4375,3.5625,0.643566,-0.308347,1.94013
5733,12,-2,-3,-3,12,-31,-5,8,0.279785,0.527344,0.692383,3.875,-1.4375,3.5625,0.643566,-0.308347,1.94013
5755,-14,5,7,5,0,4,-4,5,0.271484,0.504883,0.703613,8.0625,-0.8125,2,0.645686,-0.30887,1.94064
5755,-6,-1,-1,-2,-2,-1,-12,-7,0.271484,0.504883,0.703613,8.0625,-0.8125,2,0.645686,-0.30887,1.94064
5756,-13,-14,-5,0,-7,-4,-6,-9,0.271484,0.504883,0.703613,8.0625,-0.8125,2,0.645686,-0.30887,1.94064
5756,-26,-22,-15,-3,2,-13,-10,-1,0.271484,0.504883,0.703613,8.0625,-0.8125,2,0.645686,-0.30887,1.94064
5779,28,54,9,1,-6,7,2,1,0.295898,0.515137,0.687988,6.25,-0.5625,2.9375,0.647634,-0.310075,1.94144
5779,-4,-52,0,0,8,-4,1,4,0.295898,0.515137,0.687988,6.25,-0.5625,2.9375,0.647634,-0.310075,1.94144
5780,-5,45,-2,-2,-9,8,-6,-6,0.295898,0.515137,0.687988,6.25,-0.5625,2.9375,0.647634,-0.310075,1.94144
5780,9,30,6,-3,0,-6,-2,2,0.295898,0.515137,0.687988,6.25,-0.5625,2.9375,0.647634,-0.310075,1.94144
5793,-5,-16,-4,-7,1,-4,-5,-4,0.282715,0.535645,0.675293,1.5,-0.4375,1.125,0.648526,-0.310531,1.94165
5793,0,29,3,0,-4,-1,0,-1,0.282715,0.535645,0.675293,1.5,-0.4375,1.125,0.648526,-0.310531,1.94165
5793,5,1,-1,0,-9,11,1,-4,0.282715,0.535645,0.675293,1.5,-0.4375,1.125,0.648526,-0.310531,1.94165
5793,-5,-14,-3,1,13,-10,-7,-3,0.282715,0.535645,0.675293,1.5,-0.4375,1.125,0.648526,-0.310531,1.94165
5816,5,-9,0,1,6,-19,26,2,0.299316,0.51416,0.670898,2.375,0.375,1.9375,0.649257,-0.31147,1.94214
5816,7,25,-1,-2,-26,22,-1,6,0.299316,0.51416,0.670898,2.375,0.375,1.9375,0.649257,-0.31147,1.94214
5816,-5,-37,-6,-4,-2,17,13,2,0.299316,0.51416,0.670898,2.375,0.375,1.9375,0.649257,-0.31147,1.94214
5816,-6,-9,-3,-2,-2,-17,-7,0,0.299316,0.51416,0.670898,2.375,0.375,1.9375,0.649257,-0.31147,1.94214
5839,18,5,-3,-2,2,5,5,4,0.292969,0.537109,0.677246,2.875,0.875,-0.4375,0.65069,-0.311515,1.94212
5839,-28,-14,-5,1,6,-9,1,-6,0.292969,0.537109,0.677246,2.875,0.875,-0.4375,0.65069,-0.311515,1.94212
5839,16,7,0,-3,-3,-2,-6,-4,0.292969,0.537109,0.677246,2.875,0.875,-0.4375,0.65069,-0.311515,1.94212
5839,0,29,4,2,0,6,1,7,0.292969,0.537109,0.677246,2.875,0.875,-0.4375,0.65069,-0.311515,1.94212
5853,-3,-10,-6,-1,-2,-10,-10,-2,0.277344,0.539062,0.687012,-0.4375,0.25,-0.125,0.650799,-0.311453,1.94215
5853,-2,-11,-2,-4,-2,-6,0,-3,0.277344,0.539062,0.687012,-0.4375,0.25,-0.125,0.650799,-0.311453,1.94215
5861,10,25,8,0,3,2,-5,2,0.277344,0.539062,0.687012,-0.4375,0.25,-0.125,0.650799,-0.311453,1.94215
5861,-10,3,5,-3,3,-10,-5,-8,0.277344,0.539062,0.687012,-0.4375,0.25,-0.125,0.650799,-0.311453,1.94215
5876,5,6,0,-1,-5,9,-2,1,0.294922,0.511719,0.682617,-0.5,-0.125,-0.375,0.650786,-0.311618,1.94212
5876,11,8,3,2,4,-8,-3,0,0.294922,0.511719,0.682617,-0.5,-0.125,-0.375,0.650786,-0.311618,1.94212
5877,-13,-39,0,-5,-1,2,4,-2,0.294922,0.511719,0.682617,-0.5,-0.125,-0.375,0.650786,-0.311618,1.94212
5877,11,9,2,0,-7,-6,-4,-3,0.294922,0.511719,0.682617,-0.5,-0.125,-0.375,0.650786,-0.311618,1.94212
5899,-6,1,2,-1,-3,1,-7,-2,0.287109,0.510254,0.680176,-0.625,0.25,-1.625,0.650449,-0.311431,1.9418
5899,1,25,2,1,1,2,2,10,0.287109,0.510254,0.680176,-0.625,0.25,-1.625,0.650449,-0.311431,1.9418
5900,-2,-21,-4,1,-2,-6,5,-13,0.287109,0.510254,0.680176,-0.625,0.25,-1.625,0.650449,-0.311431,1.9418
5900,2,5,-4,2,9,-5,-12,4,0.287109,0.510254,0.680176,-0.625,0.25,-1.625,0.650449,-0.311431,1.9418
5914,-7,-13,-3,-6,-7,-3,-9,0,0.276855,0.532227,0.686523,0.3125,-0.3125,-2.1875,0.651063,-0.311016,1.94104
5914,3,-19,-3,-2,-1,-5,-27,-7,0.276855,0.532227,0.686523,0.3125,-0.3125,-2.1875,0.651063,-0.311016,1.94104
5914,-3,9,-4,0,-10,1,20,1,0.276855,0.532227,0.686523,0.3125,-0.3125,-2.1875,0.651063,-0.311016,1.94104
5914,-15,-28,-10,-2,-3,-5,5,0,0.276855,0.532227,0.686523,0.3125,-0.3125,-2.1875,0.651063,-0.311016,1.94104
5936,23,28,4,1,0,2,1,3,0.281738,0.541504,0.713379,-0.625,0.125,-2.0625,0.650999,-0.310454,1.94057
5936,14,-32,-5,1,6,-6,0,-2,0.281738,0.541504,0.713379,-0.625,0.125,-2.0625,0.650999,-0.310454,1.94057
5936,-4,28,-1,-1,-2,4,-7,0,0.281738,0.541504,0.713379,-0.625,0.125,-2.0625,0.650999,-0.310454,1.94057
5936,-6,-17,1,0,0,-1,-2,5,0.281738,0.541504,0.713379,-0.625,0.125,-2.0625,0.650999,-0.310454,1.94057
5959,5,16,-3,-1,0,3,2,-8,0.256348,0.517578,0.693848,-3.9375,-0.0625,0.125,0.649448,-0.309995,1.94057
5959,0,29,-2,-1,-5,-2,6,1,0.256348,0.517578,0.693848,-3.9375,-0.0625,0.125,0.649448,-0.309995,1.94057
5960,-12,-60,-1,-4,-1,0,-7,-14,0.256348,0.517578,0.693848,-3.9375,-0.0625,0.125,0.649448,-0.309995,1.94057
5960,3,6,-2,-1,0,0,4,3,0.256348,0.517578,0.693848,-3.9375,-0.0625,0.125,0.649448,-0.309995,1.94057
5974,-22,-14,-8,0,1,1,-4,-3,0.275391,0.505371,0.688477,-2.4375,-1.75,-0.8125,0.648382,-0.310428,1.94014
5974,8,18,0,2,2,0,5,1,0.275391,0.505371,0.688477,-2.4375,-1.75,-0.8125,0.648382,-0.310428,1.94014
5974,2,6,0,1,0,2,-2,2,0.275391,0.505371,0.688477,-2.4375,-1.75,-0.8125,0.648382,-0.310428,1.94014
5974,-10,-16,-5,-4,-2,-3,-10,-11,0.275391,0.505371,0.688477,-2.4375,-1.75,-0.8125,0.648382,-0.310428,1.94014
5997,-6,-31,1,3,-1,3,3,-1,0.294434,0.529297,0.687012,1.5,-1.625,-1.6875,0.649276,-0.310761,1.93919
5997,2,-1,-3,0,2,-2,3,-4,0.294434,0.529297,0.687012,1.5,-1.625,-1.6875,0.649276,-0.310761,1.93919
5998,4,38,2,-2,0,1,-5,3,0.294434,0.529297,0.687012,1.5,-1.625,-1.6875,0.649276,-0.310761,1.93919
5998,-53,-28,-7,-1,-3,-1,-4,-11,0.294434,0.529297,0.687012,1.5,-1.625,-1.6875,0.649276,-0.310761,1.93919
6019,20,-3,-1,-1,-5,0,0,4,0.270996,0.532227,0.692383,-1.8125,-0.6875,-1,0.648951,-0.310514,1.93866
6019,-2,-2,1,-1,1,3,5,0,0.270996,0.532227,0.692383,-1.8125,-0.6875,-1,0.648951,-0.310514,1.93866
6020,13,24,0,2,-2,-2,-6,7,0.270996,0.532227,0.692383,-1.8125,-0.6875,-1,0.648951,-0.310514,1.93866
6020,-8,6,-9,-1,-1,-3,9,-9,0.270996,0.532227,0.692383,-1.8125,-0.6875,-1,0.648951,-0.310514,1.93866
