0,1,-1,-1,0,0,-1,0,2
0,0,0,-1,-1,0,2,0,-1
1,-1,-2,-1,-3,0,0,0,0
1,-1,-2,-1,0,1,1,-16,-5
1,-2,-1,0,0,1,1,11,-2
1,1,0,-3,-1,-1,-1,4,1
3,-2,-3,-2,-3,-5,-8,-6,-3
3,-1,-1,-2,0,0,1,7,1
5,-1,-1,-1,0,-1,0,-14,-2
5,1,0,-2,1,1,2,-5,0
16,2,0,-1,0,-2,2,10,2
16,1,0,0,0,-1,-1,-5,-2
27,-2,-1,1,0,1,0,5,0
27,-3,-2,0,-1,-1,0,-1,-4
31,0,-1,-1,1,-2,0,-11,-1
31,-2,-2,-1,0,-1,-2,1,-1
46,0,-1,-1,-1,-2,-1,-3,-2
46,-2,-1,-2,0,-3,-2,0,1
62,-1,0,-1,-1,-1,0,-2,-1
62,-3,-2,-2,-2,0,0,2,-1
71,-1,0,-2,-2,0,-1,0,-1
71,0,-1,-1,0,0,-2,-2,-2
111,0,-1,-1,0,-1,-1,1,13
111,0,0,-1,-1,-1,0,-2,0
112,-2,0,-2,1,-2,0,-3,-1
112,-2,-1,0,-1,-2,-1,-3,-7
115,0,-1,0,-2,-3,0,0,-3
115,-1,-1,0,0,0,-2,-1,0
116,-1,0,0,-1,-1,-2,-3,0
116,-1,0,-2,-2,0,0,0,4
121,-6,-2,-1,-1,-1,-1,-3,-3
121,3,1,-2,-1,-2,1,1,-1
131,0,0,0,-2,-2,-1,2,-3
131,-4,-1,-2,0,-1,-2,-1,0
136,2,1,1,0,-2,-3,1,-1
136,-1,-2,-1,-1,-2,-2,-2,-4
152,4,-2,-1,0,0,-1,-1,2
152,1,0,-1,-3,-3,-2,0,2
159,-3,-2,-1,-1,1,-1,-3,-3
159,-1,-1,-1,1,0,-1,-4,0
182,-3,-2,-3,-2,-3,0,-1,-2
182,-1,-2,-2,0,-1,-1,0,-1
182,-1,-2,-2,-1,2,-1,2,-2
182,-5,-2,-1,-3,-2,-3,-1,1
197,1,-1,-1,0,1,0,0,1
197,-3,0,1,-1,1,1,-1,-4
197,0,1,-2,-2,-2,1,-1,-2
197,-2,1,-1,-1,-2,-1,0,-1
220,-2,-1,-1,-1,0,-4,-2,0
220,0,-2,-1,-2,0,-1,-1,0
221,0,-1,0,-1,-1,-3,1,0
221,1,1,-2,0,0,-2,0,0
242,1,1,-1,-3,-1,-2,-1,1
242,1,0,-1,0,0,-2,-1,2
242,-3,-2,-2,-1,-1,0,-1,-2
242,-1,-1,-1,-1,-2,-1,0,0
256,-4,-3,0,-3,-2,0,-2,-2
256,-1,-1,-1,0,1,0,-1,-2
257,2,-1,1,1,0,-1,-2,-4
257,0,-1,1,0,0,0,-2,0
279,0,-2,1,-1,1,2,2,-1
279,2,-1,5,-1,-2,-2,0,1
281,-2,-1,-2,-1,1,-1,-1,-1
281,2,-2,-2,1,-1,0,0,1
302,-2,-2,-3,0,-2,-1,-4,-1
302,-3,-1,-3,0,-2,-1,0,-2
303,-1,-2,-4,-1,-3,-1,-3,-1
303,-2,-3,0,-3,-1,-1,-1,-3
316,-2,-2,1,-1,-2,-1,0,-2
316,1,-2,-1,-2,-2,-1,-1,0
325,0,1,0,0,-2,0,1,0
325,-4,0,-2,-3,0,0,0,-1
340,1,1,-6,0,-1,1,0,1
340,-3,-6,-5,-2,-2,-1,-2,-2
342,-1,-2,0,-1,-1,-2,-1,0
342,-4,-2,-8,-2,-2,0,-2,-2
362,-2,1,19,2,-1,-1,-2,-1
362,0,4,0,2,-2,0,-4,1
364,-3,-1,-1,-1,-2,-1,-2,-1
364,-1,1,-1,0,0,-1,-1,-2
376,1,1,-7,-2,0,0,0,-1
376,-1,0,-2,-3,-1,0,0,-2
385,-1,-1,2,1,-1,-1,-1,0
385,-1,-3,-2,-1,-3,-3,-4,0
400,3,-1,-2,-1,-2,-1,0,-3
400,-8,-4,-2,-3,-3,-3,-5,-4
401,2,4,3,-2,-1,0,1,2
401,-2,-4,-8,-2,-1,0,1,1
423,-3,-3,-3,0,-2,0,-1,2
423,3,1,-2,0,1,-1,0,1
424,-3,-2,-3,-2,-1,-2,-1,-3
424,3,1,1,-1,-2,-1,-4,-2
436,-5,-3,-1,-2,0,-2,-2,-1
436,3,0,4,0,-2,-2,-4,-16
445,-1,-2,-3,-1,0,-2,0,24
445,-2,0,3,2,0,-1,0,-2
460,-3,-2,-5,0,0,-2,-3,-2
460,-3,-3,0,-1,-2,0,-4,0
462,1,0,0,-1,1,0,-1,-9
462,-2,-3,3,-1,-1,-1,0,1
482,1,2,-10,0,-3,-2,-3,0
482,2,1,11,1,0,-1,0,-2
485,-2,-3,-2,1,-1,-3,-1,-6
485,1,-2,-1,-2,0,-2,1,-19
496,-13,-5,-5,-3,-1,-4,-3,-2
496,13,1,-1,-1,1,1,1,-2
505,-4,-1,-3,-1,0,-1,-2,0
505,3,2,5,1,0,0,-1,-16
520,-1,-2,0,1,-1,0,1,-1
520,-5,-1,-4,-2,0,-1,-2,3
521,-3,-4,-3,-1,-2,0,-1,-5
521,-5,-2,-4,-2,-1,0,-2,7
543,2,-1,1,-1,0,0,1,-3
543,-4,-1,-3,-1,-2,-2,0,7
544,1,-2,-2,0,-1,-1,-6,-32
544,-4,-1,-1,-1,0,2,13,54
556,6,2,-1,-1,-2,-1,1,11
556,-5,-4,-5,-1,-2,-1,1,-5
573,-3,-1,-15,-1,-1,-2,-1,-11
573,-6,2,1,0,-2,-1,-4,-19
580,0,0,14,2,1,0,-2,-3
580,3,3,9,1,-1,2,5,-11
581,-6,0,-1,-2,-2,-2,-4,-14
581,0,-4,-3,-4,0,-4,-2,-11
602,0,0,-6,-1,0,0,-2,-1
602,-11,-3,-4,-1,-1,-1,-3,-18
605,-2,1,3,3,0,1,3,11
605,3,1,5,-2,-3,-2,-5,-4
617,-2,-4,-10,-3,-1,0,-2,-1
617,2,-4,-5,-2,-1,-2,1,11
625,-3,-3,0,-4,-4,-1,-7,-11
625,12,5,2,1,0,1,2,19
640,-1,2,0,-3,0,1,6,23
640,10,-3,-4,0,0,-3,-4,5
641,-4,-2,-1,2,-1,1,0,-4
641,-10,-8,-2,1,-2,-3,-10,-24
663,20,8,4,0,1,-2,2,-6
663,5,4,-8,-2,-1,1,2,21
664,5,1,9,0,-1,0,2,17
664,-2,7,10,4,-2,-3,-2,-4
676,-17,-13,-36,-14,-5,-2,-6,-13
676,-5,-2,21,-1,-1,-3,-2,4
685,10,-2,-8,-2,-1,1,4,18
685,-10,-4,0,4,4,2,-2,-7
700,9,4,8,5,-1,1,-2,-19
700,-6,0,-5,-3,-2,-2,-4,-24
702,0,-3,-2,-4,-3,-1,4,40
702,-1,0,-4,1,0,-1,-4,-14
722,-5,-4,4,1,-2,-4,-3,-6
722,-2,-1,-4,0,1,1,-5,21
724,1,0,7,-2,1,-3,13,10
724,-4,3,-13,-1,5,0,-8,-14
736,-1,-3,21,1,-6,-2,-1,-13
736,6,-1,-23,-10,-14,-2,2,-26
745,12,3,16,3,6,0,5,14
745,1,-6,-11,-15,-6,-2,1,2
760,-4,5,5,1,4,1,-3,-18
760,10,6,-9,0,1,-3,-1,-4
762,-14,-9,-39,0,0,-4,-11,-23
762,14,-6,11,-6,-11,0,2,-2
783,6,2,2,4,2,1,0,-4
783,9,-3,-4,-2,-3,-4,-1,17
789,-1,-1,-6,-1,0,1,-2,-19
789,0,1,0,3,2,1,2,11
796,-11,-5,-6,-2,-3,-2,0,15
796,-9,-6,-8,1,-1,-2,-7,-26
813,14,4,11,-2,-1,1,0,27
813,-5,0,-3,2,0,0,2,18
827,12,1,3,1,1,1,2,14
827,-23,-3,1,3,1,0,-4,-28
829,-12,-4,3,0,-2,1,-2,7
829,-6,-2,-3,-2,-5,-4,4,-8
842,-8,-6,-13,-2,0,-4,-4,-17
842,11,4,8,2,4,0,3,6
844,5,3,4,0,-1,0,2,-9
844,-6,-6,-2,0,-1,-3,-4,-5
857,-6,-1,-1,-1,-2,0,-1,11
857,-12,-6,2,-1,0,-2,-1,-16
873,-9,-4,2,-3,-5,-3,-3,-9
873,8,2,-2,2,1,-2,0,12
880,-13,-8,-1,-3,-3,-6,-8,-25
880,0,8,4,-1,0,1,4,21
882,-7,-1,-5,-2,-1,-1,-1,0
882,-1,-4,-4,-1,0,1,-1,1
903,6,-5,-2,0,-3,1,-1,8
903,0,-5,2,0,1,1,3,21
905,8,4,-12,1,0,0,-5,-7
905,3,12,8,-2,-4,-1,-1,-6
916,-10,-3,-2,2,-1,-1,-3,1
916,-4,-1,3,-3,0,0,-2,10
925,4,0,-3,2,-6,-3,1,-10
925,-8,-6,0,1,-1,-3,-2,-2
939,8,5,-2,-1,0,0,4,8
939,-4,-4,-7,0,2,-1,-1,-2
946,-10,-8,4,6,-4,-2,-6,-11
946,1,-1,-4,-4,-3,0,-3,-1
963,-1,3,9,-1,-2,0,-3,5
963,-9,3,10,7,-5,-4,-1,-5
964,2,-2,-6,-8,6,0,3,19
964,-12,-3,-27,6,1,0,-5,-27
976,27,22,44,25,9,1,1,-4
976,32,-3,23,-14,-6,-1,10,39
992,-4,-10,-19,-17,-26,-2,1,-1
992,-6,-2,-1,-7,-11,-5,-4,-5
1000,-12,-24,-26,2,7,4,2,-5
1000,-2,22,-6,-2,3,-2,-9,-17
1007,7,11,20,10,13,5,-1,-7
1007,10,7,11,-3,6,0,1,7
1023,-6,-9,-13,-10,-9,-2,-1,-1
1023,-6,-11,-2,5,0,-2,-1,10
1024,7,1,0,-6,-2,-3,-6,-28
1024,-4,-7,-21,2,1,-2,3,67
1036,2,3,17,0,2,1,7,14
1036,-2,-6,-12,-2,0,0,-1,-2
1045,-7,5,-5,-8,-3,-1,0,3
1045,2,-2,2,0,0,-1,-3,-21
1060,-9,-7,-8,-21,-24,-9,-10,-11
1060,15,2,-9,11,16,-2,-5,-4
1066,1,2,29,-6,-18,-3,0,-9
1066,1,-16,-12,-11,-8,-2,3,3
1081,9,-1,-12,-11,-7,2,8,21
1081,-9,1,7,2,-5,0,-8,-29
1090,1,3,-1,13,14,0,1,2
1090,-1,0,1,-4,5,0,-35,-18
1106,-18,-10,-5,1,3,-2,24,1
1106,-10,-11,-9,-4,-3,1,4,8
1106,-3,-1,-2,4,4,0,4,5
1106,-4,-6,10,-1,-3,0,0,-1
1127,-8,25,-7,-4,0,1,-20,-18
1127,2,5,5,2,2,2,3,0
1129,-4,-2,-1,-5,-5,-7,-1,-3
1129,-5,-2,-5,-16,-8,-5,6,1
1141,10,-11,-7,1,7,-1,6,14
1141,0,7,7,11,1,7,-5,-9
1150,-17,-4,-11,-1,4,-8,-7,-18
1150,6,-2,12,8,8,17,-51,-14
1165,-4,-17,11,15,9,23,-19,-5
1165,-20,-5,-13,-15,-17,-26,79,-13
1166,17,43,13,8,2,-4,20,62
1166,-11,0,-9,-3,-3,-7,0,-21
1195,12,3,-8,-16,-5,-10,-26,27
1195,-1,-5,8,3,1,14,0,-8
1197,5,-1,-37,-47,-1,-2,5,-14
1197,-2,-6,22,4,-13,-13,15,-18
1201,-18,-60,-19,3,15,12,-34,-21
1201,5,16,44,32,6,2,-54,-7
1210,40,76,37,30,4,-3,27,25
1210,20,50,-12,-12,1,7,25,30
1225,-8,-22,-1,20,-7,-10,14,-12
1225,-18,-7,38,52,17,3,-23,9
1227,-14,-56,58,59,14,7,-28,-25
1227,2,31,28,39,10,14,-59,-32
1247,6,29,-36,-27,-8,-23,86,23
1247,12,-22,-27,-34,-9,14,6,10
1250,-6,-14,-45,-51,1,0,-17,18
1250,-3,-5,-50,-47,-11,-26,-63,-8
1262,2,-36,37,47,-6,-7,25,17
1262,-23,-55,2,55,8,-1,-1,29
1270,24,-19,8,-14,3,6,-12,-30
1270,-17,-28,1,-1,-8,-3,37,1
1285,7,33,0,-19,-13,-4,-28,-20
1285,-24,-9,-52,-53,-9,2,-2,-12
1287,9,18,10,15,-1,12,-20,-3
1287,1,2,-38,-7,10,8,11,-1
1308,-15,34,14,-23,-4,3,-29,-40
1308,-32,-70,30,44,6,-8,68,2
1309,28,10,-6,-19,-9,-1,40,24
1309,14,3,20,18,2,-15,32,33
1321,-31,-26,-26,-25,-18,-18,-31,-10
1321,-6,2,-30,-38,-12,0,-76,-39
1330,19,-38,-56,-47,-11,-13,25,54
1330,-28,-42,23,11,7,30,46,-82
1345,-14,14,-3,15,14,14,5,-26
1345,84,10,22,0,-6,0,-16,28
1347,-62,0,2,26,-2,2,-13,-46
1347,20,-32,4,0,5,17,6,35
1367,-12,18,7,-22,-7,-34,-1,55
1367,9,16,-26,-13,-7,4,-12,-17
1369,8,-18,-7,12,8,11,1,23
1369,-32,-32,-13,-14,6,-2,18,41
1381,5,-12,-23,-5,2,12,-7,-32
1381,31,40,20,-14,-33,-43,-8,-20
1390,-38,-26,2,11,-19,-41,-39,-5
1390,1,17,-24,-8,-3,2,1,1
1405,60,-8,16,16,21,35,19,30
1405,-10,20,-5,-15,10,5,32,9
1411,-52,-38,-12,2,5,18,-55,-127
1411,64,81,16,1,6,-17,7,-42
1428,5,-3,-12,-14,-11,-2,17,90
1428,-28,1,-2,29,11,44,14,21
1429,-4,-23,12,20,5,-30,-13,-17
1429,-21,-6,-4,16,-7,-19,10,60
1441,-23,2,-12,-12,-21,-30,-41,-44
1441,-22,6,-34,-40,-20,-30,-20,-34
1451,23,22,18,29,15,38,21,48
1451,-16,-28,9,18,18,26,-7,2
1473,14,-12,-1,23,22,44,65,1
1473,14,31,-3,-22,-2,-14,-23,33
1474,-8,3,5,-17,-15,-11,11,6
1474,0,11,-1,-11,-26,-46,-27,36
1488,-26,-38,-5,2,-4,1,-24,-49
1488,32,20,-1,1,10,20,15,-1
1489,0,3,0,-8,0,8,9,7
1489,-65,-36,-27,-1,7,-19,-3,-6
1501,4,57,21,11,10,19,5,-26
1501,1,-16,-6,1,4,14,-15,3
1510,22,20,1,-9,-8,-39,4,33
1510,-19,-5,8,-18,-25,2,8,-79
1524,-5,-1,-2,6,6,-7,-6,30
1524,-24,-12,-6,-6,16,4,4,-3
1531,-9,-18,-10,1,3,19,6,2
1531,41,7,16,0,-11,-4,5,16
1548,18,-11,4,-12,-12,-33,-12,-10
1548,-13,-16,5,-13,-2,26,-11,2
1550,-17,0,-2,19,9,-5,16,16
1550,21,7,8,9,12,9,-1,0
1562,46,14,12,-2,-17,-13,15,-8
1562,-38,-27,-21,-15,-21,-29,-29,-3
1569,7,-4,-17,-12,0,-10,-12,-26
1569,-11,-9,-5,-24,2,27,10,28
1585,-18,1,2,4,5,8,-13,-27
1585,8,-1,16,2,17,37,19,-8
1591,-29,12,9,9,9,-6,-2,13
1591,103,8,11,34,-16,-22,19,6
1608,-11,-8,-8,-23,-19,-29,-22,44
1608,10,16,1,11,4,-14,5,-32
1609,-3,12,-13,-32,0,38,-24,-81
1609,23,46,12,20,20,18,21,88
1630,-44,5,6,15,7,2,-2,-45
1630,60,-4,-5,-9,-11,-25,20,53
1631,-12,-15,-16,-11,-21,-16,-10,-16
1631,-9,-20,2,-4,1,-1,-14,-32
1644,1,-2,-4,-2,4,13,14,5
1644,27,4,0,14,6,-13,-1,3
1652,49,5,2,-3,0,9,10,32
1652,-28,-22,-8,-12,-4,2,-5,-24
1668,-20,0,11,11,20,31,-4,-12
1668,27,2,6,-6,-11,-32,19,33
1669,-2,39,-20,-36,-27,-29,-9,-33
1669,-86,-30,5,28,7,6,-21,-29
1690,24,13,8,0,8,19,6,-17
1690,-33,-23,-4,-1,-3,-4,-17,-17
1691,7,0,0,4,-12,0,13,57
1691,-30,-2,-14,-22,3,-7,-16,-38
1705,-17,-16,-2,14,9,4,2,15
1705,39,10,-32,-17,-14,-8,3,14
1712,14,-6,19,28,9,21,7,-5
1712,24,6,5,-10,-8,-19,-14,-22
1727,-16,-13,-6,-8,-2,-2,15,53
1727,13,22,8,-2,3,41,-2,-33
1729,-30,-18,1,-10,8,-36,7,4
1729,19,-33,3,1,1,37,7,22
1758,23,57,-10,2,-20,-38,-21,-40
1758,-40,-24,2,-10,2,-13,6,6
1759,-21,-13,-15,23,3,41,-2,-12
1759,-2,0,7,-2,2,-44,-9,-16
1763,9,-18,-2,-17,-11,-9,-2,11
1763,8,11,-6,8,1,5,-5,-1
1773,29,4,13,9,14,13,14,18
1773,-14,3,-9,-14,-5,12,9,6
1787,20,22,-2,-7,-8,-13,-7,7
1787,6,-1,4,17,1,20,8,-20
1789,-2,-14,3,0,1,-30,-16,-6
1789,3,12,3,-4,-5,-1,-4,16
1810,16,-17,-15,-13,9,41,13,11
1810,-23,4,16,11,5,7,-3,-23
1811,-12,19,2,2,-16,-36,-12,8
1811,-5,-15,-1,11,5,34,15,-5
1823,3,12,2,-8,2,-13,-2,-4
1823,-33,-14,1,-9,-17,-20,5,15
1832,32,-3,-2,0,0,5,-8,-8
1832,8,16,-1,-5,-2,3,-11,-19
1848,2,-19,3,11,2,-29,-4,-2
1848,-21,-18,-5,-3,5,-3,-7,-7
1850,10,7,-4,4,0,11,15,5
1850,5,-14,-8,-2,2,-2,3,13
1870,-36,-35,-3,-1,5,22,0,-10
1870,14,36,9,1,0,-8,-1,2
1871,-31,-21,-7,-26,-9,1,1,-9
1871,-5,16,3,17,11,-5,0,-15
1884,1,-4,-11,7,-20,3,2,9
1884,-5,-16,11,-4,10,-9,-9,-4
1892,-10,-12,-3,1,-10,-15,-2,-11
1892,4,10,0,-19,-6,12,-9,35
1906,-19,-16,-3,-6,-5,-20,-22,-18
1906,11,12,6,17,5,-19,0,5
1914,19,21,11,5,12,16,22,-7
1914,-2,-2,-8,-13,-30,-19,-10,17
1930,-1,-6,-4,-1,-7,-19,-17,-8
1930,-8,-8,-12,-15,10,32,10,0
1931,-48,-11,13,8,17,24,8,9
1931,10,14,-10,11,7,-1,3,0
1944,-17,-5,6,-2,-4,5,9,-1
1944,2,13,-3,-2,-6,9,-11,-12
1953,-15,-3,1,-11,21,47,3,-1
1953,-14,-21,-1,-3,-14,-56,12,1
1967,19,43,-15,-9,-23,-36,-29,-14
1967,-33,-20,-4,12,-6,-18,-2,-12
1974,9,-10,-8,5,0,26,-13,6
1974,2,-4,10,3,27,43,23,-23
1990,4,5,10,-12,0,16,14,54
1990,20,-6,-15,-4,-22,-49,-10,-36
1991,4,8,-1,-1,-9,14,-19,-11
1991,-1,-3,-4,-3,10,1,-1,7
2004,1,-4,6,0,0,-18,13,-14
2004,-10,-28,-2,0,-6,1,-12,14
2013,9,6,3,-7,2,14,4,-8
2013,3,2,-4,-8,3,33,12,5
2027,8,-2,11,44,8,1,-22,5
2027,-1,-10,-7,-7,-4,-13,4,-1
2029,-11,-19,-12,-7,-10,-27,-6,-28
2029,32,10,3,-5,-13,-14,-12,21
2050,13,-4,3,-11,20,37,16,-3
2050,15,25,2,7,5,24,3,1
2052,10,10,2,4,4,10,9,53
2052,-19,0,-2,-17,-37,-56,-23,-3
2064,7,-1,-7,-4,1,1,6,-7
2064,-22,25,5,11,16,31,-7,5
2073,22,-2,-2,-4,-15,-50,-2,15
2073,8,16,0,7,13,52,-3,-22
2087,48,8,-3,-6,7,-33,4,18
2087,0,8,7,-8,-11,18,9,1
2089,-10,-17,-5,-1,5,21,-6,-12
2089,4,6,-4,2,3,-25,-2,2
2117,-27,-15,0,-9,0,24,8,1
2117,-17,-7,-2,3,3,-18,0,-21
2119,-12,-1,1,-1,-35,-53,-6,-8
2119,-8,-2,-3,-8,-8,-9,-19,-10
2124,-24,-8,2,-9,22,32,3,-9
2124,-9,7,-6,23,18,11,12,16
2133,1,-21,6,5,-6,-26,-13,-3
2133,7,32,-6,1,-17,-28,-8,5
2147,-20,-4,-4,-8,-8,-7,-6,-27
2147,17,6,3,-8,0,21,4,10
2150,-10,-4,3,-5,16,12,5,-8
2150,-5,-15,6,7,-4,6,16,-3
2170,0,6,-7,0,-10,-27,-19,-28
2170,11,-4,-1,-15,-11,-32,0,49
2171,-20,-10,-15,-2,7,1,-13,-19
2171,21,-3,-3,3,15,77,4,6
2184,-10,-6,5,-2,-6,-44,-4,6
2184,-47,-10,-8,0,-4,-10,11,-41
2193,50,26,8,4,-2,5,1,-7
2193,-16,-10,0,-1,8,19,4,-9
2208,0,-12,-10,-4,-31,-30,2,8
2208,-11,-13,-9,-26,-5,-20,-18,0
2209,-32,10,7,14,14,20,3,18
2209,-16,-7,-1,8,18,3,9,-71
2230,13,2,8,6,5,17,17,88
2230,-16,-12,-5,-3,-9,8,-8,-14
2231,-9,2,-10,-5,-21,-51,-5,-9
2231,-3,-21,-2,0,-5,-14,-15,-5
2244,-21,2,0,8,19,61,8,-47
2244,26,4,-3,-15,2,-10,0,31
2259,12,-5,8,5,-2,29,9,0
2259,-2,-9,-9,6,9,-9,-2,15
2268,2,-2,1,-1,-15,15,9,-15
2268,20,1,1,2,-12,-17,-15,6
2273,16,2,-4,-24,7,-30,-17,-9
2273,-15,6,-1,-5,-38,-59,2,10
2290,12,-10,-9,12,16,66,-6,9
2290,-39,6,12,2,11,-18,9,-30
2291,18,2,-11,4,-9,8,-2,6
2291,15,-9,4,3,12,16,5,45
2304,3,6,-4,0,10,6,4,16
2304,5,0,6,0,-1,31,10,4
2312,-14,2,1,5,4,17,7,-9
2312,-6,3,-4,-14,-7,-18,-17,-3
2327,-11,5,3,-27,-29,-46,-10,-19
2327,26,-6,-15,20,3,0,-2,4
2329,-7,5,4,11,23,45,15,-2
2329,5,0,4,3,10,19,12,0
2358,-8,8,6,-12,-15,-13,-13,7
2358,-6,-8,-1,-2,-1,-30,0,-32
2359,10,12,-15,-5,-26,-40,-11,1
2359,2,-8,-7,-6,-10,-27,-21,7
2364,0,13,12,1,29,72,20,-2
2364,-10,-2,-8,7,12,4,18,6
2373,-16,-22,4,7,6,46,-4,2
2373,-19,14,3,-6,-17,-67,1,-16
2387,-5,-5,-10,2,-20,-44,-29,-16
2387,11,-12,5,-3,9,34,-1,14
2394,20,16,4,-19,0,-18,25,1
2394,-27,-20,-9,16,3,8,-21,6
2410,10,1,0,1,-1,-21,-5,-10
2410,-7,-5,-4,3,9,2,2,10
2412,-13,2,2,-13,10,20,-11,-15
2412,18,1,11,3,-5,4,12,6
2424,-1,-12,-19,10,-32,-37,13,-8
2424,9,7,9,-4,-15,-32,-48,0
2433,7,2,-10,-9,4,-21,6,1
2433,0,-13,8,0,28,80,19,4
2448,3,-5,-3,18,48,32,35,7
2448,-13,2,2,-11,-48,-33,-5,-19
2455,4,-6,0,-7,-24,-30,-32,4
2455,-5,0,-5,-14,3,-9,0,-12
2471,-1,3,0,12,-5,-22,-7,2
2471,-2,-3,-2,-8,16,31,15,7
2476,6,5,9,10,-6,13,12,6
2476,4,8,-1,-1,-16,-48,-6,-8
2483,2,-11,-7,-5,-2,2,-32,-7
2483,11,7,0,-4,7,4,11,1
2493,-4,-7,1,8,41,112,23,7
2493,5,5,2,0,-8,-66,9,2
2515,1,8,1,-18,-65,-68,-35,-23
2515,-2,-16,-15,-8,-17,-6,-15,9
2516,18,0,-11,1,-2,-15,-18,1
2516,14,12,3,-2,38,70,15,6
2530,-12,-3,6,15,26,10,18,-3
2530,-1,4,3,-15,-23,-12,-15,-7
2531,-7,10,3,12,10,30,35,12
2531,0,-2,-1,17,9,-1,4,0
2543,-1,-15,-3,-14,-15,11,-6,9
2543,5,14,-1,6,-3,-26,-13,-16
2560,-14,-10,-2,-4,-8,-20,-15,-12
2560,1,-6,-10,-3,-2,7,-7,-7
2567,-8,12,11,0,4,17,7,-2
2567,-7,-9,-9,-6,1,0,21,3
2568,-1,2,5,12,2,-27,-19,-3
2568,0,4,-5,-3,-5,11,8,7
2590,1,-3,1,-2,19,18,7,1
2590,-6,2,3,-1,8,50,6,7
2591,-10,-4,1,-10,-23,-80,-11,-7
2591,-14,-16,-4,-4,-23,8,-29,-16
2620,-11,17,-3,-5,11,-35,17,3
2620,4,6,1,9,8,7,-14,-11
2622,-5,-15,-4,-3,-14,1,15,8
2622,14,4,0,-2,4,-11,-11,-2
2627,-5,-5,-5,-7,15,51,-4,-1
2627,-4,-9,2,11,3,-8,30,2
2629,10,-10,2,6,1,-7,-13,-4
2629,15,7,-9,-11,-8,-13,-4,4
2650,-5,-14,-6,-9,-19,-37,-22,-12
2650,18,-4,1,-6,0,3,-18,1
2652,-33,-5,-3,-4,13,-5,15,-7
2652,3,9,4,12,-7,-39,0,0
2680,-9,1,-4,1,9,34,7,4
2680,4,-2,-5,-4,-6,24,12,6
2682,-7,7,2,3,-29,-72,-23,-15
2682,-12,-8,11,-4,27,73,6,-12
2687,-5,18,2,12,7,-69,14,26
2687,5,7,-3,5,-32,-41,-21,3
2694,12,-7,-4,-7,13,47,-3,4
2694,-1,-12,-2,-4,3,13,7,-3
2710,12,-1,-2,-15,2,14,10,-3
2710,-7,-5,9,20,12,4,-1,-4
2711,10,1,2,4,-15,-28,-4,-1
2711,17,-1,-16,-11,-27,-21,-17,3
2733,-10,-17,1,3,14,28,1,-18
2733,2,4,-1,-9,2,-18,-14,7
2734,-4,8,-6,-14,-6,-5,-4,-5
2734,-11,-3,1,2,0,-1,4,-2
2747,17,3,2,5,16,99,17,5
2747,-4,-11,-5,-8,-8,-90,5,-2
2753,8,0,3,1,-8,19,-6,0
2753,5,14,-5,-6,18,30,11,3
2770,0,-7,-8,-2,-25,-31,-13,-5
2770,8,2,2,7,11,25,0,2
2772,-13,-7,-1,-2,17,61,15,-2
2772,3,3,6,0,-18,-52,4,3
2792,-8,-4,-4,-13,4,-16,-22,0
2792,-1,0,-3,1,5,23,13,-3
2794,3,-2,-1,-5,-18,-50,-15,0
2794,-14,-11,0,-3,16,54,11,3
2807,-8,2,1,14,6,-43,-12,-13
2807,5,-6,-4,-11,-1,18,7,6
2815,21,12,-3,0,-6,5,8,5
2815,-21,4,2,-7,-7,-9,-8,-2
2838,0,-14,1,11,-11,-33,4,3
2838,-12,-10,-8,-12,0,14,-22,-11
2839,7,5,2,4,6,-22,12,2
2839,-6,-5,-2,-5,-14,-28,-11,2
2860,-6,0,4,-2,7,17,4,-1
2860,-13,-5,-6,10,20,33,17,8
2862,-10,-4,-6,0,-7,-21,3,-15
2862,-5,-2,-3,-8,-27,-44,-25,-8
2866,-4,-11,-7,-5,-22,-40,-30,-8
2866,16,24,7,0,17,43,18,8
2881,-8,-3,0,-6,4,2,-2,2
2881,6,8,0,2,2,-8,10,0
2890,31,-4,3,9,16,58,1,5
2890,-4,-2,6,7,23,48,10,-3
2891,0,-3,0,-3,-35,-57,11,-1
2891,-11,-11,-9,-15,-17,-26,-41,-9
2913,-11,1,-2,18,19,45,11,6
2913,-2,8,4,11,7,-8,9,-4
2914,4,-2,-6,-3,1,23,2,9
2914,-1,-5,3,5,-9,-9,-6,-8
2935,-3,0,-3,-8,17,52,19,1
2935,4,-2,4,0,-17,-23,-15,4
2937,-26,-5,-9,-3,-9,-20,6,2
2937,9,10,3,6,24,70,24,4
2950,2,13,2,-8,-29,-84,-24,-6
2950,1,-2,-3,-2,6,-6,-18,-1
2952,7,-2,5,-10,13,40,0,1
2952,-11,-4,-7,9,-21,-4,13,4
2972,-4,-9,-7,-3,7,10,1,-12
2972,-4,0,-5,-7,-17,-42,-4,-6
2974,-11,-1,5,-3,3,13,-28,-8
2974,-7,0,-8,7,28,30,29,4
2987,-7,-2,6,7,0,-2,10,-5
2987,23,28,3,0,-16,-25,-5,13
2993,3,-3,-4,-1,8,17,-5,12
2993,-7,-3,7,-4,-4,-6,-15,-15
3010,0,-9,-3,0,5,-7,5,7
3010,-12,-5,0,-6,-20,-65,-14,-17
3012,2,2,-2,10,-8,-15,1,22
3012,1,-3,-2,-2,8,24,-3,-4
3032,1,6,0,-10,-21,-24,8,-4
3032,-16,-26,-4,-5,22,51,-5,-8
3034,4,17,3,15,18,11,10,5
3034,-4,-1,-2,-10,-12,-21,-1,-4
3047,-4,0,-1,4,-16,0,-16,-5
3047,0,-13,-2,-2,7,12,11,2
3054,-11,-11,-2,-2,5,8,-8,-10
3054,7,3,2,-4,-14,-38,0,8
3070,-19,-5,-9,-8,-10,8,-6,-6
3070,-4,6,-2,3,-1,-4,-7,2
3071,-3,-10,0,-5,24,74,11,-7
3071,-3,1,1,8,-1,-25,22,1
3092,-9,-8,-1,-1,-6,-24,-21,-10
3092,8,2,-8,3,1,34,5,24
3095,18,-7,0,-4,-4,-6,4,-3
3095,0,4,5,-6,-15,-22,-26,-17
3106,3,-1,-11,-12,-6,-23,-1,14
3106,-9,-3,0,2,10,48,-11,-14
3115,2,5,-1,-4,3,-10,23,1
3115,6,-2,0,5,5,32,-3,9
3137,-10,-5,2,-8,-19,-9,20,0
3137,-8,13,0,12,27,59,-2,-16
3139,7,6,-1,-5,-42,-112,-23,-6
3139,-8,-17,-2,4,1,15,-23,-8
3160,12,8,10,4,30,59,26,8
3160,-8,-9,-8,-3,-14,-30,0,-1
3161,-11,-7,0,1,6,33,10,-9
3161,3,-2,-1,10,16,-17,-9,22
3166,24,13,3,-3,0,0,-6,4
3166,11,-7,1,-14,-39,-47,8,0
3175,-1,5,1,-1,25,37,-17,3
3175,6,4,-8,13,-8,-51,23,-14
3190,-2,-15,1,6,-6,-8,-44,1
3190,-2,1,0,-2,13,-8,24,-1
3191,3,14,6,-6,-13,-37,2,4
3191,2,-1,-10,-5,20,55,4,-3
3213,6,-4,0,3,-5,-12,-2,-5
3213,0,-7,-3,-1,-33,-57,-25,11
3214,-15,-3,-2,0,5,15,-7,-10
3214,-1,-7,2,-3,19,25,22,17
3235,-7,6,3,-5,-3,26,22,-4
3235,24,-2,-10,-5,-7,-56,-43,-9
3237,-13,14,2,9,-2,-4,-6,-8
3237,27,14,0,5,0,41,8,8
3250,1,6,2,-11,9,8,12,0
3250,0,-1,10,-1,3,29,10,-3
3252,-5,-12,-11,-1,-8,-35,4,-1
3252,-6,-5,-6,-8,-22,-29,-22,-10
3273,3,3,0,3,14,9,4,3
3273,-2,4,1,-9,9,-5,5,10
3274,-4,-6,0,-7,-17,-5,-6,-14
3274,-27,-7,-8,3,11,51,1,-2
3286,6,8,-1,-4,-19,-115,4,2
3286,1,-4,-1,6,-13,-11,-12,-4
3295,-4,-8,-3,-3,5,23,-9,-6
3295,4,5,1,-5,12,39,11,6
3310,7,3,2,7,11,-3,-6,-6
3310,-17,-6,-4,-6,-4,-5,16,-6
3311,8,0,-2,-3,-25,-38,-4,5
3311,5,-7,2,-15,-13,-31,-23,-11
3332,-2,-7,-6,10,12,28,0,-2
3332,-5,-5,2,5,19,47,18,1
3334,0,0,1,10,15,29,10,0
3334,1,9,1,-3,-18,-46,-3,2
3347,-2,-2,0,-6,-8,30,-13,-6
3347,-2,-4,1,-5,-1,-14,4,1
3354,-6,-9,-4,0,9,21,-4,2
3354,2,-5,2,8,-3,-8,7,1
3370,1,1,-3,-1,-2,-14,-8,1
3370,-7,0,2,1,-4,16,-2,-7
3371,1,4,0,-3,5,-8,-4,3
3371,-5,-1,0,-3,-3,-4,2,1
3392,-1,-3,-4,0,-11,-10,-9,1
3392,-12,-4,-4,-4,4,13,-3,-21
3394,0,4,1,4,19,30,19,22
3394,1,-2,4,-3,-11,-27,9,-2
3416,-3,-3,-2,-1,-24,-23,-25,-2
3416,-3,5,-2,2,25,64,15,-3
3417,2,-2,-5,-4,-9,-52,-5,-3
3417,-7,-5,-1,-4,-12,10,-11,-5
3437,4,12,-5,-6,3,-31,-10,-2
3437,1,2,0,3,-9,2,-5,2
3445,-13,-5,-2,7,5,18,4,0
3445,-4,2,1,-10,5,-5,-7,2
3453,-1,-16,-16,0,-4,-1,7,-2
3453,10,13,1,-1,-6,-27,-4,4
3454,10,0,0,1,3,9,1,-3
3454,-2,-3,-1,0,-11,12,4,-3
3466,-8,-3,-1,1,12,-31,10,5
3466,-8,2,0,-1,7,6,-8,1
3475,2,-4,-2,-3,-16,-10,-12,-8
3475,0,0,-5,0,2,-14,-1,-3
3490,-2,0,2,-1,5,40,6,-1
3490,0,-1,-2,1,-5,-14,3,1
3497,4,-1,2,0,10,-6,-4,-1
3497,7,8,0,4,-2,-34,-7,-1
3513,3,-16,-1,-4,-10,31,12,0
3513,11,18,4,-5,-6,-32,-13,-1
3514,6,8,-5,-2,-8,19,-6,-4
3514,-4,-3,2,5,12,17,6,-2
3536,4,2,8,-1,8,-6,4,1
3536,6,-5,-5,-5,-23,-31,7,1
3538,0,-9,-2,4,-3,0,-23,-8
3538,-1,6,1,-1,0,-6,-6,-3
3549,-4,5,1,2,3,12,5,3
3549,-6,-8,0,5,29,73,14,6
3556,-9,1,1,-6,-28,-66,5,0
3556,-7,-6,-2,-3,-13,1,-14,-3
3580,-15,-1,-1,-3,3,-2,-8,-5
3580,6,-4,-3,-2,2,4,-3,-2
3587,-7,-3,-2,4,21,48,18,7
3587,9,0,-1,0,1,4,11,1
3596,0,2,-1,0,-8,-9,-8,-2
3596,-6,-5,-3,-11,-14,-29,-21,-10
3597,4,3,-2,2,3,37,11,1
3597,13,20,2,4,13,-17,-2,2
3609,-17,0,2,3,-1,10,0,0
3609,-16,-8,-3,-1,-9,17,6,-1
3616,-1,1,0,-9,-2,-28,-5,-6
3616,-11,-8,-3,-3,-13,-12,-10,-3
3632,5,-1,-3,-2,2,6,-8,-1
3632,0,6,3,-1,-2,-12,-3,0
3634,1,-10,-1,0,6,42,9,3
3634,5,-1,4,4,17,-26,7,3
3655,13,-4,-2,1,-12,7,0,-1
3655,0,-6,-7,0,5,18,2,-1
3656,7,4,-1,-7,-20,-54,-8,-4
3656,4,-3,1,-8,-7,-2,-10,0
3669,-4,-7,-5,-2,-2,-14,-20,-4
3669,0,0,6,7,3,-8,4,4
3677,-6,-3,-7,3,6,21,1,-1
3677,-7,-2,-1,0,0,11,1,-2
3692,4,0,3,-2,7,16,13,4
3692,0,-1,2,0,6,-29,6,1
3699,0,2,-9,-4,-18,-25,-14,-3
3699,-9,-7,14,1,3,20,6,0
3716,-2,5,-5,0,19,43,3,-1
3716,-6,-2,-5,-4,-22,-32,9,2
3717,-4,-4,-1,-5,-16,-35,-21,0
3717,-3,-4,-9,-2,-6,-17,-5,-3
3729,3,3,5,0,8,15,2,-4
3729,5,-1,-5,0,11,39,9,0
3738,1,0,4,1,6,12,6,0
3738,-1,-2,-6,-2,-5,20,3,-1
3752,-4,1,9,2,-10,-16,-1,1
3752,-10,-9,-11,-6,-6,-33,-14,-5
3754,5,-4,-2,-2,10,36,8,5
3754,-3,-1,3,0,9,19,5,-2
3774,6,3,-5,-2,-13,-43,-11,0
3774,-7,6,2,-1,-18,-24,-10,-5
3776,1,12,0,1,17,30,-1,-3
3776,0,-5,-26,-3,-3,2,8,1
3788,1,-5,-2,-1,5,31,9,-1
3788,7,0,0,-1,2,-8,-6,-1
3797,-4,-3,3,-2,-1,-9,2,-1
3797,-4,-5,-10,-3,-14,-26,-9,-3
3813,2,-2,-3,-4,-9,-16,-9,-1
3813,-3,-5,1,2,7,12,-2,-2
3814,1,0,-2,3,16,19,15,2
3814,-3,1,4,-2,-14,-33,-18,-7
3843,-6,-6,3,-5,-10,-15,-4,-3
3843,0,-2,-7,6,-1,6,0,2
3844,0,7,2,0,2,3,5,4
3844,-1,-1,-3,4,22,47,11,2
3849,0,10,8,-1,-2,5,14,1
3849,-6,-10,-5,-7,-19,-29,-19,-3
3857,4,0,1,9,-16,-53,-18,-4
3857,9,9,4,3,1,9,-8,-2
3873,2,2,2,2,8,0,2,1
3873,-1,1,0,-6,6,18,11,-3
3874,-8,-17,-1,-8,-3,15,6,-1
3874,-6,-9,4,-1,-8,-20,-7,-3
3894,4,5,-9,-3,1,4,7,6
3894,0,-4,-1,-2,-5,-30,2,1
3902,-2,-4,1,4,5,-3,-3,-3
3902,0,5,-5,0,8,9,6,2
3909,-4,-1,-1,-3,-19,-44,-4,-5
3909,0,-1,-4,-3,-2,15,-4,-1
3918,-3,-1,-2,-6,-7,-24,-18,-6
3918,-3,-1,3,1,11,22,6,-2
3932,-1,-5,-2,1,1,7,2,1
3932,1,4,9,-1,9,20,8,2
3934,-5,-4,-7,-10,-5,3,3,0
3934,-3,2,2,7,-15,-32,-11,-5
3955,4,5,-1,2,0,-7,-5,3
3955,6,6,-2,2,-1,18,3,1
3956,-4,-7,-3,-6,3,17,6,-5
3956,8,4,4,-7,-1,-24,4,9
3969,-6,-9,-8,2,-5,-6,-3,-2
3969,-1,0,-3,-1,-2,-2,-6,-3
3985,0,3,-1,-3,4,10,0,1
3985,-6,-5,2,-2,-4,5,5,-3
3992,-2,-1,0,0,9,22,-6,-3
3992,1,-1,1,0,7,-8,1,0
3994,0,0,0,0,-11,-42,-7,-2
3994,2,-3,-3,-5,-8,11,2,4
4015,0,-7,-2,-5,-3,-7,-5,-3
4015,-6,-8,-2,1,0,9,1,-5
4017,-1,-2,-2,5,5,4,-3,-9
4017,0,-8,1,0,3,10,6,4
4028,1,10,1,-2,2,6,3,-2
4028,-1,-17,-1,0,2,4,3,-2
4037,5,7,-3,-11,-13,-25,-9,1
4037,-7,-6,-2,0,-5,-9,-6,-8
4052,0,-8,-6,-2,5,13,3,6
4052,-3,-4,-1,17,11,30,4,-3
4054,5,-5,4,7,4,-24,6,4
4054,5,15,0,-5,-3,-2,-7,3
4075,-6,-3,-3,-8,-15,-25,-8,-3
4075,-11,-1,-3,-9,-9,-16,-9,-6
4077,-8,-6,-2,-1,1,23,3,-3
4077,4,-10,-2,-1,7,12,9,5
4089,-4,0,2,3,3,-2,-5,-3
4089,18,32,4,-2,-5,-17,-2,4
4098,-6,-11,-4,1,-4,12,2,-3
4098,-2,-1,-1,1,8,10,-1,-2
4112,2,-1,-3,-3,-8,-29,1,2
4112,-2,-11,0,-1,2,1,-1,3
4120,4,0,-1,2,2,11,2,3
4120,-2,1,3,4,2,-1,1,-4
4143,-3,0,-6,-10,3,13,-1,-5
4143,2,3,0,-2,-6,-13,-3,-3
4144,0,3,1,4,-1,-3,0,6
4144,0,7,-1,-3,-2,3,-6,-2
4149,-16,-28,-3,1,1,6,-4,-8
4149,7,16,-2,-7,-8,-12,0,2
4159,4,29,5,4,2,8,-6,-1
4159,-18,-10,-3,-2,-3,-6,-7,-14
4172,4,4,-1,2,2,4,10,7
4172,-1,-12,-3,2,6,23,10,9
4174,3,-9,0,-3,-5,-31,-9,-9
4174,3,-3,-5,-1,-6,-13,-1,5
4195,3,34,5,-3,0,2,-3,-5
4195,-6,-11,0,-1,-1,-6,-5,1
4196,-4,-3,-2,1,2,15,2,-2
4196,-2,-12,-5,-4,-1,-3,1,-2
4209,-5,-14,-4,-3,-3,0,-2,-2
4209,-8,0,-3,-5,-4,0,-3,5
4218,-3,-3,-3,-5,-1,-1,0,-3
4218,5,21,3,4,1,-1,5,4
4232,2,-4,0,5,2,8,2,-1
4232,-10,2,-5,-7,-3,-10,-5,-5
4239,-16,-24,-9,-12,-6,-3,-4,-4
4239,3,7,3,7,0,-2,-5,-2
4255,14,38,12,10,2,3,0,3
4255,1,-1,1,-4,-6,-11,-3,-5
4257,-3,-5,-5,-6,-3,1,-2,-1
4257,1,-12,-5,-8,-1,2,-3,-3
4269,-4,-7,-5,-3,-1,-5,1,-2
4269,-1,-9,-3,2,-1,-3,5,0
4285,2,24,1,-2,-2,5,1,3
4285,-10,-1,-6,-9,-5,-1,-7,-8
4292,4,-10,2,6,-1,2,5,3
4292,0,-6,-4,2,0,-4,-4,-1
4298,-1,-3,-3,-3,-1,3,0,-1
4298,3,3,3,2,1,1,2,0
4315,-5,13,0,-1,-2,-3,-13,-8
4315,-11,-6,-5,-4,-1,2,8,1
4317,24,14,9,5,2,4,13,5
4317,-4,-5,-3,-3,-4,0,1,1
4329,-5,-10,-6,-4,-2,-1,-1,1
4329,1,4,1,-1,-1,-9,-7,-5
4338,-6,-4,-4,0,-2,-2,-4,-1
4338,7,4,-1,-2,1,0,-1,1
4352,-5,-10,-2,-1,2,-2,-5,-5
4352,-5,-2,2,6,4,1,-2,-2
4358,-6,-10,-3,0,0,6,13,-4
4358,-4,-1,1,1,1,7,5,0
4375,5,-2,-2,-6,-8,-14,-2,6
4375,4,3,-1,-4,-2,-7,-11,-5
4377,-2,-4,0,-1,0,-5,-13,-8
4377,9,4,2,6,4,3,4,8
4389,-1,1,-1,0,5,6,3,-2
4389,-7,-1,0,-2,-3,2,3,-4
4398,2,-3,1,-1,-1,-1,-3,5
4398,-18,-6,-7,-8,-5,-5,-20,-11
4420,0,-11,0,-2,-4,-3,17,5
4420,5,13,-5,-5,-4,-1,0,1
4421,-4,-6,4,9,-1,1,-2,1
4421,5,12,4,6,0,-1,-1,1
4435,-1,-4,-2,-2,-1,1,-9,-4
4435,0,-5,0,0,0,4,-1,-1
4437,-1,0,-3,-6,-3,-9,8,-8
4437,0,-6,-2,-5,-1,-5,3,7
4457,-1,-2,1,4,3,-2,-2,2
4457,-2,-1,0,2,2,0,1,-1
4459,-4,4,-2,-1,1,2,-10,-3
4459,-1,-9,0,0,0,0,0,-2
4471,-9,-2,-4,-3,-1,1,-2,-4
4471,3,-3,-2,-3,-5,-5,-1,2
4480,-1,-15,-10,-8,0,-1,1,9
4480,3,2,9,10,1,1,4,0
4495,5,2,0,2,0,-1,-6,-2
4495,-4,-7,4,3,-1,-1,-3,-5
4496,0,1,-1,0,-3,-1,-2,-3
4496,-8,-9,-7,-7,-4,-2,-3,-3
4517,-6,-4,-2,-1,-4,1,3,1
4517,13,2,1,-1,-2,-1,3,6
4520,-1,0,-2,-2,-3,-3,-5,-2
4520,-7,2,-3,-2,0,-1,1,-1
4540,-3,-6,1,-1,-1,-2,-4,-6
4540,2,-1,-3,-5,-3,0,-7,-6
4542,2,3,-2,-2,-4,-2,2,6
4542,12,-15,-2,-3,-3,-2,-7,2
4555,8,22,3,4,3,0,-3,5
4555,-10,3,-2,1,-1,-2,8,-8
4556,-7,-5,-5,-8,1,-1,-8,-10
4556,3,-1,3,4,-1,-1,2,2
4577,-4,-18,-1,2,0,-1,-3,-5
4577,19,24,3,3,2,0,2,8
4579,-2,7,2,-1,0,-1,0,0
4579,-4,1,-6,-9,-2,-3,-1,-2
4591,-8,-13,-5,-4,-3,-3,-3,-8
4591,0,-2,2,2,-1,-2,-3,3
4600,6,-4,-3,2,0,0,1,5
4600,4,3,0,-2,0,-1,-1,0
4623,-4,0,0,-1,-1,1,-3,-2
4623,-14,-14,-3,-4,-1,-2,-4,-7
4624,1,6,4,1,0,0,0,1
4624,-6,-8,-3,0,-1,-4,-4,-1
4638,21,8,2,1,2,-2,4,7
4638,-3,-2,-3,-3,0,0,2,2
4639,-2,-2,1,1,-2,-3,-5,-4
4639,-1,4,-2,5,4,0,-2,-5
4651,-8,-5,-6,-16,-10,0,0,-6
4651,-2,23,-4,-6,2,0,-3,-6
4660,3,1,8,10,3,0,-1,5
4660,1,-3,0,1,-1,1,3,0
4674,-2,2,-3,9,10,2,-3,-4
4674,0,-5,1,-6,-13,0,4,15
4675,-3,-3,-7,-8,-9,-5,-1,-2
4675,0,6,-1,-3,-1,-3,3,7
4696,-7,-10,-5,-2,1,0,2,-4
4696,-4,-9,0,3,5,2,-4,-6
4698,-6,-4,-1,3,0,-2,-1,-2
4698,3,-1,1,-2,-7,-4,-2,-6
4720,5,5,1,0,-1,0,0,5
4720,-8,-13,-4,-2,-2,-2,-6,-5
4720,-3,2,1,0,-1,2,-2,-4
4720,-5,-2,-3,-8,-2,1,-4,-5
4734,-1,2,0,-1,-8,-1,0,4
4734,-7,-6,-3,9,3,-5,-3,-3
4735,-2,-2,-1,-5,-3,0,-1,-9
4735,-12,-5,-3,-2,1,-3,-5,-8
4756,7,0,2,-1,-1,1,1,-3
4756,21,0,1,-7,-10,1,8,54
4758,-3,-1,-3,0,3,-3,-1,-4
4758,-4,2,0,3,1,-1,-2,-3
4779,-12,-4,-6,-1,0,-4,-8,-13
4779,4,3,5,7,3,0,-2,-16
4780,2,-1,1,2,0,1,0,4
4780,-4,-3,-2,-1,-3,1,0,-3
4795,5,1,-2,-8,-5,-3,-1,3
4795,-5,-5,0,7,3,0,-1,-10
4795,6,10,2,-11,2,1,3,7
4795,-4,-1,0,14,-3,-2,1,-4
4816,-3,-6,-1,-4,-6,-1,-1,-11
4816,-13,-6,-4,-7,-3,-4,-2,29
4817,3,-2,-13,-4,-5,0,1,-3
4817,6,-2,0,-2,3,0,0,0
4839,0,-3,-2,7,7,3,2,5
4839,-4,0,0,0,1,0,-3,-20
4839,-6,-2,-5,2,-1,0,0,-3
4839,2,2,-3,-7,0,-1,-1,4
4854,17,4,4,3,-1,-2,1,4
4854,0,-2,-4,-6,-1,-2,-2,-19
4855,-8,-4,-20,15,13,-4,-9,-53
4855,-4,-9,14,-43,-38,-11,-9,-56
4877,-1,8,11,24,-6,9,21,99
4877,1,3,8,3,4,-1,1,-2
4877,3,0,1,-3,-9,1,2,9
4877,-6,-4,-16,-14,1,-2,-5,-27
4899,-26,-11,-12,-7,3,-9,-17,-84
4899,20,5,5,-6,2,2,11,22
4900,-13,-3,9,14,0,-3,-19,-78
4900,5,1,-2,16,14,4,13,70
4914,8,-4,0,-17,-12,-11,-5,-29
4914,-10,10,2,18,10,11,-1,-49
4915,1,-1,5,-9,0,-1,4,-20
4915,-16,-5,-5,-2,-8,-5,-13,-26
4937,8,-1,-4,-2,3,-1,-27,-38
4937,-5,-3,-2,-6,-11,-11,28,6
4938,9,1,0,-4,0,10,20,57
4938,-5,1,2,1,1,-5,-1,9
4959,-6,-1,0,5,2,1,2,14
4959,-5,-6,-7,-4,-1,-2,-58,-39
4960,4,-1,4,-7,-6,-7,39,48
4960,-3,-3,-6,9,7,1,3,5
4975,-4,1,2,-5,4,2,6,0
4975,0,-1,-4,-6,-4,1,-15,-8
4976,-1,-2,0,-1,2,1,-10,-3
4976,14,0,0,3,0,-1,5,35
4997,-6,-1,-3,-2,-1,0,-2,-52
4997,-13,-8,-2,-4,-4,-4,-13,-6
4997,8,3,6,4,1,8,-1,-10
4997,1,3,-1,2,1,2,9,13
5019,10,0,-1,-5,-3,0,5,35
5019,2,-4,-5,-1,-3,-3,12,20
5019,-8,-6,-2,-4,-3,-6,-15,-15
5019,3,1,1,3,2,2,-8,-5
5035,-2,0,-1,-1,0,-4,2,6
5035,-3,-2,-1,-2,-2,-4,0,-25
5035,-1,-3,0,-3,-1,-3,-9,18
5035,-3,2,2,2,2,3,6,-8
5057,-5,-1,0,-1,-1,1,2,11
5057,0,-2,-1,0,-2,0,3,-3
5057,-2,0,-1,-3,-3,-1,-6,10
5057,3,0,-3,2,3,0,2,-1
5079,-4,-2,-2,-4,0,0,-2,4
5079,2,-2,-1,-2,-1,2,3,17
5080,-3,-4,-2,-2,-2,-3,-5,3
5080,2,-1,-1,0,0,1,-7,-12
5094,3,0,-2,0,-2,0,-1,2
5094,3,-1,-1,0,-1,-2,4,-3
5095,-2,-1,-2,-2,-1,-1,-1,-3
5095,-2,0,0,-1,0,-2,0,-12
5117,-4,-1,2,-1,-1,0,0,-10
5117,-2,0,-2,-1,-1,-1,5,31
5117,-5,-2,-1,0,-1,-1,-2,-7
5117,2,0,-2,0,-2,-1,-3,-4
5139,-9,-4,-2,-2,-1,1,1,5
5139,3,1,-1,-1,0,-1,-2,-11
5140,-3,-3,-2,-1,-1,-1,-2,3
5140,5,1,0,0,1,0,1,3
5155,-3,-3,-2,1,0,-3,-1,-6
5155,4,-1,-1,0,-1,0,2,8
5155,-2,-2,-1,-1,-1,1,1,5
5155,-3,0,0,-1,1,0,1,-6
5177,-1,-1,-1,-2,-2,-4,0,7
5177,-4,-2,-1,-3,0,-4,-1,-4
5178,5,-1,2,-1,0,-2,-2,2
5178,2,-2,-1,-1,-2,-2,-6,-3
5200,-2,-1,0,0,0,-1,0,4
5200,-2,-1,-1,0,0,-1,2,1
5200,1,0,-1,-1,-1,0,-3,-4
5200,3,-2,-1,-1,-1,0,3,8
5222,3,1,0,-1,-1,1,-3,0
5222,-2,-1,-1,-2,0,1,0,-10
5223,-3,0,-1,0,-1,-1,-2,-1
5223,-3,-1,0,1,-2,0,-4,-7
5236,-3,-1,-2,-1,-1,-1,-2,-3
5236,4,-1,-1,-1,-2,0,-1,-3
5238,0,-2,-3,-1,-1,-2,-2,-2
5238,-1,1,-1,-2,-2,-3,0,0
5259,0,1,-1,0,-2,0,-2,1
5259,-5,0,-2,-3,-2,-2,-3,-5
5260,1,-1,-2,0,-1,-1,-3,2
5260,-1,-1,0,-1,2,-1,1,-3
5274,-3,-1,0,0,1,-2,1,3
5274,-1,-2,0,-2,0,-1,-2,-2
5275,-1,0,0,-1,-2,-1,-1,0
5275,-7,-3,-3,-1,-3,-1,-1,-1
5297,0,0,-1,-2,-1,0,0,-2
5297,0,-2,-2,-2,-1,-2,-1,-1
5298,1,-1,-2,-1,-1,-2,0,-2
5298,-3,-2,-1,0,-1,-1,0,-5
5320,1,-1,-1,-2,-3,-1,-1,-2
5320,1,0,1,-1,-3,-1,0,-3
5320,-2,0,-1,-1,-2,-2,-1,0
5320,1,-1,-2,0,-1,2,-2,1
5335,2,0,-2,0,-2,-1,-1,2
5335,-1,-1,-2,-2,0,-2,0,1
5335,1,-2,-2,-1,2,-1,-1,0
5335,0,-1,1,-2,1,-1,-1,-1
5357,-1,-2,-2,-2,2,-2,-1,-1
5357,-4,-1,-1,-2,-1,2,-2,-3
5358,-1,-2,0,-2,-1,0,-1,1
5358,-1,-1,-1,-1,-3,-1,-2,-1
5379,-3,0,0,0,-1,0,0,-2
5379,0,-1,-2,-1,-2,-4,-1,-3
5379,2,1,1,0,0,0,-1,-1
5379,-3,-1,0,0,-3,0,-1,-2
5394,-1,0,-1,0,0,-2,-3,-1
5394,-2,-2,-2,-1,0,1,-1,-1
5395,0,-1,-1,1,0,-1,-2,0
5395,0,-1,-2,-3,1,0,-1,0
5417,-1,-1,-1,-1,-1,0,-2,0
5417,-2,0,-1,1,0,-1,-2,-1
5417,-3,1,0,-1,-2,-2,0,-1
5417,0,-1,0,0,0,0,1,-1
5439,0,-1,-1,-2,-1,-1,0,-1
5439,-1,-1,-1,-1,1,-1,-1,0
5441,-1,-1,-3,-2,0,-1,-1,-3
5441,-2,0,-2,1,-1,-2,-1,-3
5454,3,-1,-2,0,0,-1,1,-2
5454,3,0,-1,1,-1,-4,-1,-1
5454,0,0,0,-1,0,0,-2,-2
5454,-1,-1,-1,-3,-1,0,-2,-1
5477,0,-2,0,0,-2,0,-1,-2
5477,2,0,-1,-1,0,1,-1,-2
5478,-2,-1,-1,-2,0,-1,0,-1
5478,0,-1,-2,1,-1,-1,-1,-1
5499,-3,-1,-1,1,-2,0,1,-1
5499,0,-1,-1,-2,-3,-1,0,0
5500,-1,-1,0,-1,-2,-2,-1,0
5500,0,3,0,0,-1,-1,0,0
5515,-1,-2,-4,0,0,1,0,-1
5515,-1,-2,-2,-2,-1,0,1,-2
5515,-1,-1,-2,-1,-2,-1,0,0
5515,-2,-3,0,-1,-1,0,0,-1
5537,-2,-2,-2,-2,-1,-2,-3,-2
5537,0,-2,0,-2,2,0,0,1
5538,0,-1,-1,0,-2,-1,-1,-1
5538,-1,-1,-1,-1,-1,-1,-4,-1
5559,-1,1,0,-1,-1,-1,-3,-3
5559,-2,0,-1,0,-3,0,-2,-3
5559,-3,-2,-1,0,1,1,0,0
5559,0,0,-1,0,-1,0,0,-1
5575,1,-1,0,-2,-2,-2,-1,1
5575,-2,-2,0,0,-1,0,-2,-3
5575,-1,0,0,-1,-2,-3,-1,-6
5575,1,0,-1,-1,-2,0,1,-3
5597,1,1,-1,-1,-3,0,1,-2
5597,-3,1,-1,-2,-2,-3,0,1
5598,0,0,-1,-2,-1,-1,-1,1
5598,-1,-2,0,0,0,-2,0,1
5619,-1,-1,-1,-1,-2,-2,-2,0
5619,-1,-1,-2,0,-2,0,-3,1
5620,-2,-1,0,-1,-3,-1,-1,0
5620,-2,-2,0,-3,-3,-2,0,1
5634,0,-1,-1,0,-1,1,1,1
5634,-1,-1,0,-1,0,-1,-1,0
5635,0,0,0,0,1,1,1,0
5635,-1,0,-1,-1,-1,-1,-1,-3
5657,-3,-2,0,-1,1,-1,-2,-2
5657,-4,0,-2,-1,-1,-1,-2,-3
5657,-3,-1,-2,0,2,-1,-1,-3
5657,-3,0,-1,-1,-1,-3,-2,-1
5679,-2,-2,-1,1,-2,-2,-2,-1
5679,1,-2,0,0,-1,-2,-3,-1
5679,1,0,-1,-1,-1,-4,-2,1
5679,0,-2,-1,-1,0,0,-1,0
5694,-3,-2,-2,-2,-1,-1,0,-1
5694,-2,-1,0,-1,-2,2,0,-2
5695,-1,-2,-2,-1,-4,-1,-1,-1
5695,1,0,0,-1,-3,-1,-3,-1
5717,1,0,-2,0,-1,-1,-1,1
5717,1,0,-1,-1,-1,-1,-1,-2
5718,-1,-2,-2,-1,0,-3,-2,-2
5718,0,-1,0,-1,0,0,0,-1
5739,-1,-1,0,-1,0,-1,-1,-1
5739,-2,-2,-1,0,0,-1,1,-1
5740,-2,-2,-2,0,-3,-1,0,-4
5740,1,-4,-2,-2,0,-2,1,-3
5754,0,0,-2,0,-1,-2,-2,-3
5754,-2,-1,-2,-1,1,-2,-1,-2
5754,-4,-1,-2,-1,0,-1,-1,-1
5754,2,0,0,0,-1,-1,1,1
5777,-2,0,0,0,-1,0,-1,1
5777,-1,-2,0,0,-1,-3,0,2
5777,-1,0,0,-3,0,1,-2,2
5777,-1,-2,-2,-3,-2,-2,-2,1
5807,-1,-1,0,-1,0,1,0,1
5807,0,1,-1,-2,0,-2,0,1
5808,0,1,-1,0,1,-3,-1,-1
5808,-2,-2,-2,-1,0,0,-1,0
5815,1,1,-1,1,1,-1,-2,-1
5815,-1,-2,-1,0,0,0,-1,0
5815,2,-2,-2,1,-2,1,-2,2
5815,-1,-1,-2,-3,-1,1,-2,1
5837,0,-1,-1,-4,-2,-1,0,-2
5837,0,1,0,-3,-2,-1,1,0
5838,-1,-1,0,-2,-2,-1,1,-1
5838,-1,0,-1,1,-1,-1,0,-1
5859,-2,-3,-1,1,-2,-1,0,0
5859,-2,-1,0,-1,-3,-1,0,-3
5860,-1,-2,0,-1,-1,-1,-1,0
5860,-3,-1,-3,-1,-1,0,-1,-1
5875,0,-1,-1,0,0,0,-2,0
5875,0,0,0,0,-2,-1,-2,-1
5875,0,-2,-1,-1,-1,-1,-3,-2
5875,-1,-1,-1,2,-1,0,-2,-2
5897,0,0,0,-1,0,-2,-1,1
5897,-1,-2,-1,-2,0,1,-1,0
5897,-1,-1,-2,-2,1,0,-1,-1
5897,0,-2,1,-1,-2,-1,-2,0
5919,-1,-1,-2,-1,0,-2,-1,1
5919,1,-1,-1,-1,-2,-1,-1,-2
5920,0,0,-1,0,-1,-1,0,-1
5920,0,0,1,0,1,-2,2,-1
5934,-1,0,-1,-1,-2,-2,0,-2
5934,0,-1,-2,-1,0,-2,-2,-1
5935,0,0,-1,0,-2,0,-1,-3
5935,-2,-1,-2,-1,-1,-1,-1,-1
5956,3,0,0,0,-1,-1,0,-2
5956,-3,-2,0,-1,-1,-1,-2,0
5957,-2,-3,-2,-1,1,0,-1,-1
5957,0,0,0,-2,-1,-1,-1,-1
5979,0,-2,-1,-1,-1,0,0,0
5979,0,-1,-1,-2,0,-1,0,-1
5980,-2,-1,-1,-1,-2,0,-2,0
5980,0,-3,-2,-2,0,-1,-2,-1
5994,-3,-1,-2,-2,1,-1,-2,0
5994,1,1,-3,0,-1,-2,2,-3
6001,-1,0,-1,-2,0,-1,0,-2
6001,-1,-1,-1,0,-2,0,-1,-1
6017,-3,-1,-2,-1,-2,0,-1,-1
6017,-1,0,0,0,-2,0,0,-1
6018,-3,0,0,-1,-2,-2,-2,-1
6018,0,-1,0,0,0,-1,0,0
6039,-1,-3,0,0,2,0,-1,-2
6039,-2,-2,-2,-2,-1,-1,-5,-1
6040,0,-1,0,-1,0,-1,0,-2
6040,0,1,-1,-1,-2,-4,0,0
6062,-2,-1,-3,-2,-2,-1,1,0
6062,0,-1,-1,1,-1,0,0,-2
6063,1,1,0,0,-2,-1,-2,-1
6063,-1,-1,-2,-1,-1,1,-1,1
6077,-6,-3,-2,-1,0,0,-1,0
6077,3,0,0,0,0,-2,0,0
6077,1,-1,0,-1,-2,-3,-1,0
6077,-2,-2,0,-2,-1,-3,-1,-2
6099,-2,-1,0,0,-1,-1,-3,-1
6099,-3,-1,0,0,0,-3,-2,-1
6100,-2,-1,-2,-1,-3,-2,-1,0
6100,1,1,-1,-1,0,-1,-2,-1
6114,2,-1,-1,-1,-3,0,2,-2
6114,-2,0,-2,-1,0,1,0,2
6122,-2,-1,-3,1,-3,-1,0,0
6122,1,-1,-2,0,-1,-1,-3,0
6136,-1,0,-1,-2,-1,-1,-1,-1
6136,1,-1,-1,0,-1,0,1,1
6137,-1,-3,-2,0,1,0,-1,-2
6137,0,-1,-3,-1,0,-1,-2,-1
6159,-1,-2,0,-1,-2,-1,0,-4
6159,-2,0,0,-1,-1,-1,-3,-1
6161,0,1,-1,0,1,-3,0,-1
6161,-2,-1,0,0,0,-2,-1,-2
6174,2,-1,2,-2,0,-3,-1,-2
6174,-1,-2,-2,-2,-1,-1,-1,-1
6182,1,-1,0,-1,-2,0,2,-2
6182,-4,0,-3,-1,-2,-1,1,-1
6196,1,-1,-1,0,-2,0,1,0
6196,-3,-2,-2,0,-1,0,0,-1
6198,2,-1,-1,-1,0,-2,-3,-1
6198,-1,0,-2,-1,-1,-2,-1,0
6219,-2,0,0,-2,-2,1,-2,2
6219,0,-2,-3,-3,-1,0,-3,-1
6220,-1,0,-2,-3,-1,0,-2,-1
6220,-3,-1,-1,-1,-2,-3,-2,-3
6243,5,2,0,-1,2,-2,-1,-1
6243,-2,0,0,1,0,0,1,-1
6243,-1,-1,-1,0,-2,-1,-1,-1
6243,-2,-2,0,0,-2,1,1,0
6265,-3,0,0,2,-1,-1,-2,-2
6265,-1,-1,0,0,-2,-1,-1,-1
6266,-1,-1,-3,-2,1,-1,0,0
6266,-1,-2,-2,-1,-1,-2,0,0
6280,-5,-3,-2,0,0,-1,-1,0
6280,3,0,-3,-2,-2,-1,0,-3
6281,0,-2,-1,0,1,0,2,0
6281,0,-2,0,-1,-1,1,1,-1
6294,1,-2,0,-1,-2,-1,-1,0
6294,-1,-2,-2,-3,-1,-2,-3,-2
6302,0,0,0,-2,-1,-1,-2,0
6302,-2,-1,1,0,0,-1,-1,0
6317,-1,-1,-1,0,-1,-2,-1,-1
6317,-2,-2,-2,-2,0,-1,-3,0
6317,-2,-2,-1,0,-2,-3,-1,-1
6317,-2,-1,0,-1,1,-2,-1,0
6340,-4,-2,-1,-1,-1,1,-1,-2
6340,-1,1,1,-2,-3,0,-3,1
6341,-2,-3,-1,-2,-1,2,-1,-2
6341,3,1,-1,-1,-2,-1,0,-2
6363,-1,-4,-2,0,-1,-1,0,-1
6363,2,0,0,-1,1,0,1,-1
6363,-1,-2,-1,-1,-2,0,0,0
6363,-2,-1,-1,-1,0,0,-2,0
6377,-1,0,0,-3,0,-2,-1,-2
6377,-4,-1,1,0,0,-1,-1,-1
6377,-3,-1,-2,0,-1,0,-1,-1
6377,0,-2,-2,-1,0,-1,0,-2
6400,-4,0,-1,0,-2,-4,-1,-1
6400,0,0,-1,0,-1,-3,-1,0
6401,-3,-1,0,-1,0,-1,0,-1
6401,-2,-2,-2,-1,-3,-1,1,-2
6422,2,-1,-1,-1,1,1,-1,-1
6422,0,0,-2,-1,-3,-2,0,-2
6423,-2,-1,-2,-1,-1,-2,-9,0
6423,7,-1,0,-1,0,1,-9,3
6437,1,0,-3,-2,-1,0,-7,0
6437,-3,-1,-2,-1,-1,0,-4,-2
6437,0,1,0,-2,-2,-2,0,-1
6437,-4,-2,-2,0,-1,-2,1,-3
6461,-1,0,1,-2,0,0,4,-2
6461,-1,-1,0,0,0,-1,2,0
6461,1,-1,0,0,-1,-2,4,0
6461,-3,0,-2,-2,0,-1,3,-4
6483,-2,-2,-1,-1,-2,0,1,-1
6483,-1,-1,0,0,-2,1,3,0
6483,-3,-3,-1,-2,-1,-2,0,-2
6483,-1,0,0,0,-1,-2,0,-1
6497,1,-1,0,0,-1,-1,1,-2
6497,0,-1,-2,-2,-2,-1,-2,-1
6498,1,0,-1,-1,0,-1,0,0
6498,-3,0,-1,-2,-2,-2,0,-1
6520,1,0,-1,1,0,-1,-2,0
6520,-5,-2,-2,-1,-1,0,-2,-2
6521,2,-1,-3,-1,0,0,-2,-1
6521,-1,-1,-1,0,0,-1,-2,-1
6542,0,0,-1,0,-2,-3,-1,0
6542,-5,-3,-2,-1,-1,1,2,-2
6550,-1,-1,-2,-1,-2,0,-2,-1
6550,-2,0,-1,-3,-3,-2,0,-2
6556,1,0,-2,-3,0,-3,-2,-1
6556,3,0,1,0,1,-2,-2,-1
6557,0,-1,1,-1,-1,0,1,0
6557,3,-1,-1,1,0,0,-1,0
6580,-4,-1,-2,-1,-4,-2,-2,-1
6580,6,3,-1,-1,-1,-3,1,0
6580,-3,-2,-1,-1,0,-1,-2,-2
6580,-1,-2,-2,-1,0,-1,-1,0
6610,-2,-1,-1,0,-1,0,-1,-1
6610,3,1,-1,0,-1,0,-3,2
6610,0,2,0,-3,-4,-3,-1,0
6610,-2,1,-1,0,-1,-1,1,0
6617,0,-1,-2,-1,-1,-1,0,0
6617,-4,-3,-1,0,-1,-1,-1,-2
6617,1,-2,-1,-2,1,0,-1,-1
6617,-1,-3,-1,-1,-2,-2,-1,0
6640,-1,-1,-2,-1,0,2,2,1
6640,-5,-2,-3,-3,0,1,-3,-2
6640,0,-1,-2,1,-2,1,-3,1
6640,-2,-3,0,-3,-2,-3,-3,-2
6663,6,1,0,-1,3,0,3,1
6663,0,-1,-1,-1,-1,-2,3,-1
6663,1,2,0,0,-1,-2,2,0
6663,-2,1,-2,0,-3,-1,0,-1
6677,-5,-2,-2,-2,-2,-2,-5,0
6677,0,-2,-3,-2,-2,-3,-3,8
6677,-3,-2,-2,-1,-1,0,-4,-12
6677,1,0,0,1,-1,0,-1,-2
6700,-1,-1,1,-1,0,-1,-1,-2
6700,1,0,-1,0,-1,0,0,-1
6701,-3,-1,0,-3,-1,-1,-2,3
6701,2,0,1,1,2,0,1,2
6722,3,2,1,-1,-2,-1,-1,-2
6722,-6,-2,0,0,-1,0,-3,-3
6723,-1,0,-2,-1,0,-2,-2,-2
6723,0,-1,0,-1,-1,0,-2,-1
6737,3,0,-2,-1,-1,-1,-3,2
6737,1,-1,-1,-1,-1,-3,-1,-2
6738,1,-2,-1,-2,-2,-2,1,-1
6738,1,1,1,-2,1,1,2,6
6759,-5,-5,-4,0,-1,0,-1,-14
6759,-2,0,-1,-1,0,-1,-3,16
6760,5,1,-3,1,0,1,0,8
6760,-4,-1,8,0,-2,-2,-4,-14
6783,-1,-2,0,3,0,-1,1,-1
6783,-8,-2,0,-1,-2,1,2,-6
6783,-2,-1,2,-1,-1,-2,-2,5
6783,-2,-1,-8,-3,0,0,-3,6
6797,-3,-2,-3,-3,-1,0,-4,-6
6797,-12,-5,-1,0,0,-3,-9,-35
6798,-5,-3,-6,-2,-1,-3,-1,26
6798,2,-1,-3,-3,-2,2,7,6
6819,-3,0,1,-1,-1,0,1,9
6819,1,-1,-3,-3,-2,-2,-3,1
6820,-3,-2,-1,2,1,0,0,-16
6820,2,0,-2,-1,-1,-2,-2,-12
6842,-4,-1,3,-1,-2,1,-3,2
6842,0,-1,-2,-2,-2,-1,-2,-24
6842,-3,1,-1,0,0,-2,1,24
6842,-6,-3,-3,-2,0,-3,-11,-19
6857,7,5,-15,-3,1,2,9,42
6857,1,-4,2,1,-2,1,0,-16
6857,0,-1,3,0,-2,-2,1,-11
6857,-6,-5,-1,-1,-3,-3,1,19
6880,-4,-1,-2,0,-1,-3,-7,-31
6880,1,0,-3,-2,0,-1,-1,-10
6880,0,-3,0,-1,-1,1,1,10
6880,1,-1,-7,-2,-1,-1,-4,5
6903,-1,-2,5,0,0,-3,-3,0
6903,-5,0,-6,0,0,0,1,3
6903,4,5,34,1,1,0,-2,-15
6903,0,-1,5,0,-1,0,-2,-5
6917,0,-6,-17,-1,0,0,-1,-2
6917,4,4,20,5,0,-1,1,-9
6918,3,-5,-21,-4,-2,-2,4,32
6918,1,0,-1,-1,-1,-2,-2,-4
6940,-12,-4,3,-2,0,-1,1,6
6940,20,6,-6,-1,-2,0,2,14
6941,-7,-3,-2,-3,-1,0,-5,-27
6941,1,1,-2,2,-1,0,-5,-37
6962,-7,-6,-9,-5,-6,-6,-1,-32
6962,-9,-5,-3,-1,-1,-1,-1,-30
6964,-1,2,3,0,0,1,-2,-35
6964,-5,-3,-6,-4,-2,-2,-1,16
6985,-8,-3,12,4,-2,-1,-6,-28
6985,14,3,-4,-3,-2,-3,2,25
6985,-1,-2,2,-1,0,0,1,5
6985,-6,-5,-5,-2,-2,-3,-2,4
6999,-2,3,4,0,0,2,-7,-37
6999,-2,-2,-4,5,2,0,0,38
7000,-4,-3,-12,-10,-1,1,-1,-12
7000,5,7,23,5,4,1,5,12
7029,4,2,4,0,0,3,4,29
7029,0,2,4,-6,1,1,4,9
7031,-6,-1,-3,16,4,-1,-8,-19
7031,2,0,0,-9,-6,1,1,-6
7036,1,4,-5,-2,1,-3,-3,-47
7036,-7,-4,5,0,-3,0,-2,14
7045,1,-4,-10,-7,-3,-2,6,36
7045,2,1,-4,2,1,-1,1,19
7060,4,0,20,2,2,2,-1,-5
7060,6,2,-5,-5,-3,-5,-9,10
7061,4,1,7,1,1,-3,-4,-26
7061,-5,-2,-6,0,-1,-2,-3,-6
7083,-2,-1,-7,-3,-5,-4,-4,-20
7083,-7,-3,-16,-1,5,4,9,62
7084,7,3,15,0,-3,-1,0,3
7084,-6,-4,-4,-2,-3,-1,0,-15
7096,-1,-2,-1,-2,-1,-1,2,17
7096,-9,-3,-1,0,-2,-1,-2,-27
7104,-4,-3,-6,-1,-2,0,-5,-24
7104,0,1,4,1,2,0,3,16
7119,2,-2,-4,1,0,-1,4,13
7119,-9,-2,-10,-1,0,-2,-9,-57
7120,6,4,15,0,2,1,6,69
7120,-1,-7,-4,0,-1,0,-1,-8
7143,6,0,-2,0,1,-1,0,25
7143,3,-1,0,0,-2,0,-1,-11
7143,-6,-1,-9,-2,-3,-3,-9,-23
7143,3,-2,1,-3,-3,0,3,6
7156,13,5,-1,-1,-1,0,2,-2
7156,1,-2,1,-1,1,-2,2,1
7164,-8,-5,-6,-2,-3,-3,-2,-8
7164,3,2,1,1,-1,1,-1,2
7179,-6,-2,-6,-3,-3,-2,-3,1
7179,-2,0,3,0,0,-1,3,4
7179,-4,-1,-5,-2,-3,-1,-5,-29
7179,-14,-5,-6,-3,-1,-4,-2,-11
7202,6,2,1,2,2,2,1,5
7202,-4,-3,-14,-2,-3,-1,-6,2
7203,1,-5,-2,-1,1,-2,-1,2
7203,-8,0,-4,-2,-3,-1,-6,-15
7216,5,-1,3,0,0,0,3,17
7216,7,1,2,-1,1,-3,-3,-1
7232,-2,0,-8,-1,-1,-2,-3,-10
7232,-15,-5,-3,0,-2,-4,-6,-40
7239,18,-3,-5,-3,-3,-2,-2,23
7239,4,2,4,0,0,2,3,-27
7240,-9,-2,-2,-1,-1,0,4,46
7240,26,6,5,1,2,3,8,17
7263,-16,-2,-2,0,-2,-3,-4,-16
7263,-11,-5,0,-2,-2,-3,-5,-29
7263,-9,-3,-1,-2,-3,-5,-2,-13
7263,3,-1,-2,0,1,-1,-6,-6
7284,4,2,-1,0,-1,-1,-3,-2
7284,4,0,-14,-4,-1,3,3,17
7286,-13,-14,-1,-1,-1,0,-4,-15
7286,5,7,0,1,-1,-2,-3,6
7299,-6,-4,-1,7,7,0,2,8
7299,3,2,1,-9,-11,-3,-1,9
7301,3,-2,-7,-8,-3,-1,2,-4
7301,3,-4,-1,-1,0,2,-1,18
7322,0,2,1,-2,0,1,3,11
7322,-5,-2,4,4,1,-1,-1,3
7323,-13,-6,-11,-5,-4,-4,-10,-28
7323,5,6,6,1,-1,-1,6,19
7345,-13,0,20,5,-2,-4,-7,-16
7345,-4,6,-8,-2,0,-4,-9,-22
7345,5,-11,-6,18,26,9,11,70
7345,-2,11,-5,-24,-25,-1,2,-1
7359,-15,-21,-11,-9,-9,-3,-2,-7
7359,-22,-11,-9,17,7,-3,-8,-10
7360,6,37,30,-25,-6,0,-1,-22
7360,8,-1,9,11,3,-1,5,14
7382,-5,2,-9,-5,-4,-1,-2,-6
7382,7,8,17,-9,-8,-7,-5,-11
7383,15,-1,-13,10,10,1,6,3
7383,-13,-18,-8,5,8,3,3,4
7405,-6,0,3,-6,-6,-3,-9,-25
7405,1,-19,-5,2,3,-2,1,19
7405,3,8,4,1,-5,-2,1,1
7405,9,36,4,-2,-2,-2,-3,-13
7419,6,-2,-6,0,1,-2,-1,11
7419,-2,5,8,-2,4,3,-1,7
7420,3,1,-24,-36,-20,-7,0,-8
7420,-12,-29,-29,-39,-12,-10,-7,-22
7443,3,-18,55,70,32,15,16,26
7443,0,27,4,23,8,10,-8,4
7444,-6,-5,10,8,-11,-5,2,-23
7444,-17,-9,-56,-50,-6,0,14,0
7473,-18,-38,7,0,-2,-4,-8,-1
7473,3,-39,-1,-8,-8,8,-1,8
7474,10,63,4,27,5,-11,12,3
7474,9,11,22,11,1,-19,-18,-9
7478,-4,-4,-43,-59,-14,2,-25,-11
7478,-12,-39,12,1,-6,-9,42,30
7488,6,2,-23,-3,-1,3,-12,-26
7488,33,78,43,34,10,19,-8,2
7502,12,-76,-69,-42,-7,-7,28,12
7502,-14,-9,2,-31,-8,-2,-86,-22
7505,-17,-44,40,21,-7,1,54,9
7505,0,-18,-73,-6,7,1,-31,-2
7525,10,14,103,51,9,5,-17,-1
7525,-6,31,15,53,21,8,39,-14
7527,6,-12,-2,-3,-6,-18,7,31
7527,-17,-19,28,27,2,-5,-50,-23
7538,1,32,-51,-34,-7,9,43,27
7538,5,6,-18,-35,-12,-3,-7,-46
7548,0,-3,15,6,6,9,-12,-12
7548,-11,-38,-5,-4,-4,-6,20,18
7570,5,42,-30,-28,-9,-5,-26,-9
7570,-5,-17,28,23,10,5,18,12
7572,14,-15,-28,-21,-9,2,-25,-38
7572,-4,-16,-10,-1,4,19,9,6
7585,-37,-7,14,7,-2,-16,-12,1
7585,41,-15,-17,6,-8,-8,-9,18
7587,-3,26,29,27,4,0,10,32
7587,-17,-17,13,2,-4,0,-3,-34
7599,-8,7,-13,-2,3,5,16,-19
7599,0,5,-22,-20,-4,-4,-5,21
7607,-7,-33,-10,-6,-7,-16,-16,11
7607,15,-12,3,-3,-12,-30,14,21
7622,-33,41,5,3,-5,8,-11,-9
7622,10,-26,-57,-49,1,-5,8,1
7624,8,29,43,26,18,43,-26,-59
7624,-21,-12,6,15,3,-4,-2,7
7645,11,-1,6,8,-4,-12,17,-8
7645,-9,4,14,2,-9,-6,-5,24
7647,-6,-15,-21,-9,12,2,-10,8
7647,13,35,-1,-12,1,32,3,-34
7659,3,2,0,-6,-11,-41,-27,13
7659,-6,23,-8,9,9,-5,-2,14
7667,-16,-1,-1,-2,3,45,31,18
7667,-16,-29,15,20,15,5,-5,-23
7683,35,13,-26,-25,-32,-56,-32,-88
7683,-27,-4,23,7,-12,17,11,62
7684,-3,-20,-8,8,5,-43,-37,-14
7684,7,-10,5,-11,-13,14,27,11
7705,11,-4,5,16,-6,14,-10,-3
7705,-3,-2,-17,-20,9,-3,-11,-29
7707,-16,-14,-9,-8,16,37,19,14
7707,3,23,17,17,21,17,21,22
7719,0,-27,-13,-5,-5,-34,-5,5
7719,-10,-16,-1,3,-9,29,10,-32
7728,18,29,-3,-16,-25,-42,-19,-1
7728,-2,-6,5,10,-1,-19,-18,5
7742,-10,2,-15,-12,3,5,-14,-17
7742,15,31,28,11,15,-6,1,6
7750,5,-2,4,26,15,31,15,14
7750,3,2,-5,-10,-13,-27,10,11
7765,-23,-18,-3,7,14,34,18,33
7765,22,11,-12,-17,-14,-8,-16,-5
7766,-6,0,-7,-13,-4,11,13,-37
7766,1,-7,-2,2,0,-24,-5,13
7778,4,12,-1,5,8,13,5,58
7778,-30,-20,-1,-3,-11,-25,0,-80
7788,19,18,-18,-25,-12,-19,-24,61
7788,-3,-10,5,10,-4,5,3,-14
7803,-10,0,14,9,24,76,24,-11
7803,8,-9,9,23,22,-21,11,16
7804,7,7,-6,-2,-14,-19,-12,-17
7804,-15,-9,-4,-14,-37,-3,-2,-24
7833,1,6,3,-6,-19,-87,-40,11
7833,9,25,-6,-14,2,47,12,0
7834,-16,-55,-11,-5,21,-4,9,-2
7834,7,35,-8,0,22,33,-1,-11
7838,10,15,12,12,-2,27,16,-5
7838,-13,19,3,-6,-27,-29,-6,-4
7848,5,-12,-7,-10,-10,-34,-7,-3
7848,-13,0,-13,-13,6,15,-7,-13
7870,7,-14,2,0,12,17,22,-1
7870,-2,32,10,27,20,24,3,1
7872,0,3,2,-5,-26,-25,7,-1
7872,8,-4,0,-1,-4,3,-5,11
7885,2,12,-1,-8,-18,-46,5,3
7885,-3,-30,-11,-19,-10,-2,-15,10
7886,-8,-2,3,4,2,-1,-16,-47
7886,1,-4,-1,14,16,10,10,38
7899,19,35,8,4,13,28,1,2
7899,-4,-8,8,1,4,-2,17,7
7908,-8,-13,-15,-5,-8,15,-2,3
7908,25,13,3,-8,-23,-44,-24,7
7922,-7,-8,0,1,-8,-8,-10,-37
7922,18,7,1,-3,10,31,7,10
7925,-8,1,-12,-16,14,-7,1,-6
7925,6,-1,10,7,-4,6,21,6
7945,-8,-29,-3,18,-9,-24,-25,13
7945,9,38,3,-2,-3,-29,-11,-12
7947,-1,-4,6,0,3,14,8,-3
7947,1,5,-3,-25,-6,-29,1,3
7959,-5,-15,-2,-4,-5,28,4,-2
7959,11,34,2,10,1,5,-1,-9
7967,0,-3,4,0,11,20,2,10
7967,-6,-2,8,11,17,15,15,6
7983,2,0,-6,-7,-10,-1,1,14
7983,-14,-37,-10,-10,-14,-16,-23,-17
7984,2,12,4,0,12,41,8,12
7984,-15,-4,-3,-3,-14,-55,-11,-16
8005,23,-6,-8,-6,2,-9,14,10
8005,-36,-19,1,6,-15,-2,-14,5
8006,-4,4,-4,-14,-13,-38,-13,-15
8006,-4,-24,-3,8,21,47,9,1
8027,7,22,6,6,24,66,35,-10
8027,2,15,0,-13,-13,-38,-14,43
8029,2,6,-5,12,-15,-7,-8,1
8029,6,-3,1,3,20,24,0,7
8042,-3,5,14,12,-2,-23,-1,-15
8042,-2,-21,-14,-13,-27,-23,-13,-24
8048,-9,-4,-2,-4,5,7,-10,10
8048,-1,2,-10,-8,-9,4,-1,-17
8065,-18,-5,-1,8,19,29,-1,-23
8065,23,-12,8,15,24,0,23,71
8066,-8,1,4,-7,-27,-25,6,17
8066,-4,-14,-8,-9,-20,4,-18,-29
8095,17,23,6,7,27,21,-1,4
8095,-18,-28,-10,-2,-14,-53,4,-30
8096,13,-6,-2,-3,-27,-25,-16,-9
8096,-9,14,8,5,18,23,-6,-2
8102,-1,-5,-3,-29,-7,-8,2,-10
8102,25,-15,-8,2,15,29,9,-6
8108,-4,6,9,17,11,23,10,4
8108,-4,-5,-3,-14,-28,-40,-15,-4
8125,14,-5,-2,-7,2,21,-3,17
8125,43,2,-7,-8,6,-18,7,4
8127,-18,-5,7,12,10,53,6,-7
8127,4,1,-5,4,0,-46,11,9
8139,-12,-11,-9,-8,-22,-20,-21,1
8139,-22,-5,1,5,5,7,-4,-1
8156,28,-1,-4,-6,8,13,8,3
8156,-1,2,2,-8,1,-13,0,8
8161,1,15,1,9,-11,-20,-6,3
8161,-18,-1,1,-1,-16,24,2,-21
8186,3,1,7,-5,10,-10,-3,0
8186,-2,-7,-20,-1,1,1,7,6
8186,-16,-15,5,3,-2,7,-4,-7
8186,-9,9,0,3,4,3,8,-6
8188,16,22,-8,-10,8,-9,-9,3
8188,-3,-26,9,9,-9,8,-8,-11
8208,-12,6,0,3,-4,15,-6,0
8208,10,11,1,0,-1,-58,4,23
8209,-16,-8,-8,-10,-19,-20,3,-8
8209,9,-6,1,-2,3,7,-9,8
8221,23,3,-13,3,11,-17,4,16
8221,-29,-1,10,7,4,40,2,-18
8230,3,-6,-5,-10,-5,8,-5,-12
8230,-2,4,8,-8,-12,-29,-7,-15
8244,-11,-8,-11,2,-8,-15,-17,14
8244,3,-12,-3,1,10,23,14,-4
8252,1,4,4,2,2,-8,3,-3
8252,-15,5,2,15,5,42,4,-1
8267,-1,2,3,-2,12,10,18,-6
8267,-11,-11,-12,-22,-16,-48,-24,-9
8269,4,6,6,3,1,53,5,9
8269,0,9,-5,12,7,-30,-17,-10
8281,-26,3,2,-5,-9,-44,1,-26
8281,16,4,4,2,2,17,-6,9
8290,-3,-9,-2,-10,-2,9,14,18
8290,6,2,-5,-7,3,1,-9,6
8306,-22,-14,-3,7,-5,0,0,-20
8306,0,2,1,3,0,34,4,-2
8308,-6,-9,-6,6,16,9,5,-1
8308,-5,6,7,-10,-8,-18,10,-1
8327,8,5,-7,-11,-32,-66,-25,-8
8327,4,-9,-4,1,0,-2,-18,-10
8329,0,4,2,10,10,6,3,32
8329,-6,-5,1,-3,12,-1,8,14
8341,2,17,10,0,6,50,16,-12
8341,41,14,14,10,-6,-13,-3,-7
8350,-28,10,-16,-11,-23,-60,-12,-30
8350,-5,-15,0,6,5,42,-5,11
8365,9,-3,-4,-8,11,9,0,5
8365,6,11,7,-2,20,6,7,26
8366,7,-13,3,9,-20,-36,3,-8
8366,-3,-23,-15,-5,-16,-3,-8,3
8388,7,-10,1,3,13,24,1,-10
8388,-24,1,0,-7,5,42,3,-6
8389,-11,-2,-1,-2,2,-48,10,-1
8389,0,0,-12,8,-21,-11,-8,-5
8400,5,-11,-2,-3,-4,-19,-21,6
8400,-10,3,-5,0,-2,-6,-6,-6
8409,-3,-10,3,1,10,23,-5,0
8409,4,5,-2,-13,3,20,17,-5
8425,-1,-2,-3,15,19,30,14,21
8425,-5,2,2,6,6,10,8,-7
8426,7,14,10,-13,-31,-59,-21,-8
8426,8,-6,-10,-13,-11,-29,1,-11
8448,20,-4,-4,3,-16,-25,-20,-34
8448,-12,7,0,3,23,36,15,13
8449,16,20,1,11,31,73,18,20
8449,-11,18,6,-3,-11,3,-1,-15
8461,0,1,-4,-15,-30,-61,5,0
8461,-4,-14,-1,2,-22,-59,-34,-16
8471,-7,-14,-12,-2,9,34,-5,-4
8471,29,32,33,24,30,34,21,7
8492,-10,-13,6,1,4,-5,7,17
8492,-11,2,-5,3,-13,-32,-7,-9
8495,-6,-12,-3,-2,-14,-14,-6,-4
8495,-5,2,-5,-13,-7,14,-10,-5
8508,-7,-6,-1,-3,10,18,5,3
8508,7,-8,1,-7,-15,-9,14,12
8513,10,9,-4,5,26,78,-5,-2
8513,-1,-5,-2,2,6,-85,9,-1
8521,-5,-5,4,-10,-27,-19,-6,11
8521,-18,-13,-6,-11,-5,-12,-29,-23
8530,4,9,-12,15,4,-5,0,-6
8530,-3,-4,-1,-2,11,92,6,5
8545,1,4,6,1,18,-21,18,14
8545,-4,-4,0,-2,-9,30,19,-3
8546,-4,-12,-3,-8,-13,-17,-22,-12
8546,-1,2,0,-4,1,-3,-16,5
8568,-1,2,0,-6,-21,-50,1,-2
8568,0,-3,-8,-6,5,8,-21,-2
8569,2,-9,1,8,20,13,17,1
8569,-12,-11,-6,-4,-7,-8,1,-4
8582,3,6,-1,-1,-10,26,-7,3
8582,1,-6,-4,5,18,4,14,2
8590,-6,10,2,-1,-17,-47,1,-6
8590,-6,0,-4,-2,-5,-5,-26,-11
8605,2,-1,2,-12,-9,-19,9,28
8605,-4,-14,-4,-3,-13,-9,-16,-13
8606,-5,-14,-1,11,10,4,0,-3
8606,5,18,6,4,11,22,10,-8
8628,-5,0,-3,-2,20,85,10,2
8628,21,-4,-4,-2,1,-19,23,23
8629,-5,7,5,-10,-31,-43,-18,-13
8629,-7,-9,-7,1,-18,5,-13,-6
8641,-7,-11,-11,-1,7,27,-3,-9
8641,-6,8,3,-6,-2,-35,-8,-4
8650,-1,-9,1,-7,1,16,5,2
8650,14,5,2,8,5,7,18,11
8665,0,0,-5,7,0,-21,-25,-11
8665,-1,3,2,-2,5,35,8,-3
8667,-4,3,5,-3,5,15,5,3
8667,-7,-18,-9,-7,10,-2,8,2
8688,2,2,-1,9,5,50,8,5
8688,1,26,10,5,-39,-65,-11,-5
8689,2,-2,-6,-13,-6,-22,-19,-4
8689,-7,-9,-1,1,10,15,8,4
8702,2,1,-6,-6,8,19,13,-9
8702,-6,-10,-1,4,-1,-9,-15,-3
8715,-3,-8,-13,-16,-12,-11,-7,19
8715,5,6,2,16,14,18,7,1
8725,-5,-14,4,8,10,-13,5,2
8725,3,23,9,0,-15,15,1,-3
8726,-3,-19,-12,-13,-3,-32,-4,-5
8726,-5,-5,-5,0,-3,-14,-1,-5
8748,1,-3,2,0,1,-7,-12,1
8748,-4,-6,-3,3,7,9,12,-2
8749,0,10,7,0,-3,-8,-8,-6
8749,-4,-15,-7,-9,-9,-23,-8,2
8761,0,21,1,1,-7,-15,-9,-5
8761,1,-7,-13,-10,8,38,8,-3
8770,4,3,7,13,2,-17,5,-1
8770,-1,8,2,-6,-1,27,2,1
8785,3,-9,0,-3,-23,-62,-3,-7
8785,1,-3,-6,-3,11,54,-14,-15
8787,6,-3,2,4,20,13,17,27
8787,-2,0,-1,-6,-16,-9,0,-4
8808,-4,-6,-2,0,2,9,-17,-2
8808,-4,-3,-2,3,15,44,22,2
8810,-3,2,1,0,-12,-22,2,-14
8810,2,6,2,-1,-9,-19,-18,1
8821,-1,-5,-4,-2,7,25,7,10
8821,-3,-9,-2,-14,-30,-83,-4,-2
8836,0,1,2,7,2,26,-11,-7
8836,6,15,7,2,16,3,5,2
8845,-6,-7,-2,-4,-1,37,13,-4
8845,-1,-7,-4,1,18,42,2,6
8847,-3,-1,8,-4,-4,-10,7,-3
8847,1,-4,-3,-5,-34,-26,-11,-7
8867,-5,-9,-8,-7,-6,-28,-23,-9
8867,10,19,5,3,8,1,1,8
8875,-5,-3,-1,1,6,34,16,-1
8875,-7,-9,2,4,23,21,-8,0
8881,3,11,4,7,8,4,16,1
8881,-6,-5,-2,-13,-39,-47,-8,-10
8890,-4,0,-5,-1,-21,-37,-39,-11
8890,-2,-8,-8,-5,37,34,17,-3
8905,3,-14,1,3,-8,-23,-1,20
8905,0,2,0,-2,-14,-7,0,-3
8907,6,5,-4,7,20,32,4,-5
8907,-5,-2,-1,-8,-24,-26,-16,-6
8928,1,2,-2,-1,7,-31,5,-4
8928,-6,-7,2,2,28,23,10,2
8929,-2,-1,1,-8,-9,13,9,-1
8929,2,-7,-6,12,-5,-10,-6,1
8941,3,9,7,-3,7,14,-5,-3
8941,-4,-3,1,8,-15,-25,12,0
8951,-4,3,-7,-18,-37,-60,-31,-7
8951,2,2,-8,0,10,36,-3,0
8973,-2,1,-2,1,14,16,18,5
8973,5,-5,0,2,20,51,7,-6
8974,-3,-9,1,6,12,-37,4,5
8974,-3,-3,3,-4,-14,-11,10,-5
8987,-7,9,-5,-10,-39,-38,-42,-9
8987,-2,-5,-4,5,9,5,-4,-2
8989,-4,-18,-7,4,7,21,16,-21
8989,3,7,2,-12,-24,-68,-13,27
9010,4,21,9,12,20,59,14,-8
9010,-6,-3,-4,1,9,14,5,3
9012,0,-5,2,5,-15,-46,-21,-12
9012,-1,3,-3,1,6,32,8,-11
9025,-6,-18,-5,-8,9,-8,5,13
9025,4,21,3,-3,0,-9,-9,12
9027,12,13,4,4,14,44,15,12
9027,-6,-7,-2,2,-23,-37,11,-6
9047,-4,-12,-7,-10,-31,-45,-45,-7
9047,-6,10,2,4,18,20,-8,-15
9049,4,31,-3,0,20,52,31,53
9049,6,0,3,1,3,14,-1,2
9062,-2,-1,-2,-4,-14,-59,-10,-11
9062,-4,-15,-5,-9,-18,-22,-2,0
9070,-5,-7,-2,-3,10,47,4,-7
9070,1,2,4,-13,17,9,3,0
9085,3,1,0,14,-15,4,5,4
9085,-5,-7,-6,8,-10,-36,-20,-8
9087,-10,-4,3,3,6,37,-3,-18
9087,9,-1,-2,-8,-3,-8,10,21
9108,4,2,3,0,19,-6,-3,-1
9108,-1,2,1,0,-3,12,7,13
9109,-3,-8,-4,-6,-25,-37,-12,-16
9109,-11,-3,-3,3,-15,-45,-25,-4
9121,0,-9,-3,-10,10,51,11,-1
9121,4,13,1,-2,47,104,28,9
9137,-1,-9,-7,5,-17,-79,9,5
9137,2,0,4,6,-19,-19,-21,-6
9152,-9,9,-4,-8,-10,-22,-1,-22
9152,7,0,7,7,14,63,-3,27
9155,1,0,-4,-7,25,20,17,1
9155,-5,-7,-1,1,-14,-44,-7,-5
9167,3,6,-6,-3,-30,-12,-10,-33
9167,-4,-9,-2,-13,-3,-73,-20,-10
9174,2,3,3,4,10,34,10,10
9174,-3,-1,-1,-3,7,27,9,-3
9198,3,-3,-2,9,23,67,27,-1
9198,-3,-8,-8,-6,-35,-111,-19,-9
9199,1,-1,-2,5,-8,0,-16,-1
9199,-5,-7,-3,-5,10,-3,-5,-25
9205,1,9,1,-9,-14,-9,3,35
9205,-2,4,-1,1,5,-2,0,-5
9207,-4,-10,-3,-12,-4,10,-5,-6
9207,-2,2,4,17,21,71,12,-9
9227,5,-2,-6,1,16,-33,7,7
9227,9,4,6,-15,-29,-20,2,5
9229,-13,-10,-8,-3,-23,-31,-24,-8
9229,2,-1,0,3,21,-11,-12,-10
9250,-1,-7,2,9,-3,18,6,1
9250,-3,-3,-2,0,-3,14,9,-7
9252,-1,-1,2,3,6,-31,-4,-13
9252,2,4,-3,-16,-6,17,9,9
9265,-6,-21,4,13,9,12,-4,-4
9265,7,12,-3,8,-18,-61,-12,15
9273,0,2,1,-7,-16,-12,-7,-22
9273,-2,-7,-6,3,12,39,11,19
9288,-1,6,4,-22,9,-5,-4,-8
9288,-9,-13,-4,13,10,97,10,-13
9289,2,-3,-4,0,-2,-47,7,-6
9289,-5,2,-1,-8,-40,-53,-18,-6
9310,2,-6,-2,0,19,66,-7,17
9310,1,1,0,-5,-4,-41,17,-1
9312,-5,11,7,-6,-8,-5,-24,9
9312,3,-7,-4,7,25,70,17,-28
9325,-2,4,-4,6,-10,-52,-4,7
9325,-1,3,1,3,1,22,-5,-10
9327,3,2,4,0,-13,-14,-2,10
9327,-2,3,1,-11,0,-4,-11,-7
9348,-7,-14,-6,5,0,-5,10,-9
9348,-2,27,1,12,8,42,-12,-10
9349,-1,-9,-2,1,3,-47,5,31
9349,5,4,-1,-5,-21,-36,-11,36
9370,-1,-6,-1,-8,5,27,2,-6
9370,-4,-16,-2,-14,15,55,16,1
9372,0,2,3,13,-3,-28,13,1
9372,-2,-6,-12,-8,-18,-41,-25,-6
9392,-3,3,-7,-1,-8,-18,-5,3
9392,5,-5,4,9,20,41,13,-2
9394,-2,6,1,1,34,38,13,-5
9394,-3,-7,-2,-6,-31,-26,-9,2
9415,-8,-9,-5,-9,-26,-74,-22,-19
9415,-5,13,-3,-7,-15,-34,-22,-9
9417,-2,-8,-4,-6,28,71,11,-3
9417,1,0,5,18,37,25,31,-8
9430,10,7,0,-8,-22,14,1,16
9430,-1,-17,-2,0,-8,-49,-25,5
9432,4,13,1,-6,-10,36,2,0
9432,-7,1,-1,2,2,-3,-3,-16
9444,-1,3,6,8,18,16,7,-6
9444,-5,-8,-6,-16,-11,-41,-8,0
9452,-3,-8,0,5,-17,-1,-16,-13
9452,1,3,-2,1,2,8,3,10
9467,-3,-8,-3,2,36,72,26,6
9467,0,0,-5,-2,-18,-54,6,-36
9469,1,-6,-3,3,-22,7,-35,15
9469,-3,-4,6,-6,7,-24,-7,-5
9498,2,8,5,9,-9,-25,5,2
9498,-6,-10,-3,-10,-7,-8,-19,-23
9499,-1,-12,-5,2,11,20,11,-7
9499,2,4,-5,-3,1,-28,9,9
9505,-5,-4,8,-2,-6,-14,-12,-6
9505,3,-2,-4,0,4,24,9,14
9511,4,-1,0,6,18,65,19,2
9511,1,-1,4,4,-11,-66,-10,11
9528,-7,-5,-10,-15,-30,-24,-16,-7
9528,0,19,3,2,-1,-25,-19,-6
9529,-3,-8,-6,-7,7,29,14,39
9529,8,-2,-1,-3,10,-5,5,20
9550,6,3,0,4,-2,8,-1,1
9550,4,19,4,2,5,11,6,11
9551,-8,2,2,-5,-4,-19,-3,-31
9551,-6,1,-2,3,-9,3,-10,-12
9565,4,0,2,3,23,71,15,11
9565,0,-11,-4,0,-3,-43,-7,9
9571,0,4,2,-8,-35,-9,-10,-11
9571,-3,-11,-3,-4,5,6,-3,-1
9588,0,16,-5,-4,10,-19,-2,-3
9588,-1,-18,2,5,3,9,9,-3
9589,-3,2,-3,0,3,-2,6,-15
9589,-3,-8,4,-10,-24,-15,-8,18
9610,3,13,-6,5,11,44,-1,18
9610,-5,-10,-2,13,19,-38,14,4
9611,8,3,2,-5,-36,-97,-18,0
9611,-1,1,-1,-5,4,84,-14,-9
9624,-7,-4,0,-2,11,-34,4,-9
9624,1,-2,-1,3,-7,40,4,12
9639,-3,-5,-3,-1,26,19,9,-8
9639,4,3,-1,3,1,11,3,-10
9647,-2,3,0,-6,-31,-35,-7,-5
9647,-5,-8,-2,-9,-11,26,-9,-17
9649,2,-10,-4,-8,27,-40,9,46
9649,5,28,2,12,-7,-10,6,-8
9671,-4,-14,-1,-12,-45,-71,-28,1
9671,2,0,-5,5,-1,-7,-8,-3
9672,-2,5,1,4,22,91,13,-9
9672,-5,-3,-2,8,41,-7,24,-1
9692,10,3,5,2,-7,18,17,-3
9692,-6,1,-5,-15,-37,-50,-29,-13
9694,2,-3,-2,-14,4,2,-10,47
9694,-1,-12,-1,5,11,39,13,7
9707,-4,14,-3,13,3,7,-7,-22
9707,1,-4,5,0,4,-26,9,15
9709,-1,2,1,5,-11,15,-14,-28
9709,-2,-3,2,-9,-19,-48,8,20
9730,5,5,-7,-12,5,0,-21,7
9730,-1,2,-2,5,12,32,18,1
9732,-11,-10,2,4,-16,-32,-13,-23
9732,0,-8,-2,-5,4,8,-7,-6
9744,-1,-3,6,10,13,66,28,-8
9744,0,-4,-2,-20,5,8,-8,3
9753,5,16,7,5,-22,-66,-13,-10
9753,-7,-14,-15,4,5,48,-6,-14
9776,-6,-4,0,-5,-10,-45,-9,-13
9776,0,-12,-3,2,7,36,-1,8
9782,0,3,-3,-9,6,-14,11,-3
9782,5,15,2,-9,-12,13,-1,-2
9797,-13,-14,-5,8,9,-4,-4,-27
9797,9,10,-3,0,10,44,18,41
9799,-6,-9,2,2,-16,-30,-10,-13
9799,0,2,-3,-8,-11,-27,-4,-5
9803,0,-9,0,-2,16,12,18,11
9803,-9,-12,-4,2,-14,-31,-12,-13
9812,0,2,-6,-9,-14,-4,-13,-4
9812,-1,-5,-1,0,22,28,2,17
9827,-1,-8,-3,2,1,16,11,4
9827,0,0,2,4,-4,-21,-2,-7
9829,-4,-1,-3,-3,18,88,18,-26
9829,-5,0,2,3,-31,-79,-15,-12
9850,-1,-14,-3,-3,-6,-24,-16,9
9850,1,19,3,2,11,30,8,-11
9852,-5,-8,-6,4,10,23,15,-6
9852,0,1,1,-9,-19,-9,-11,-3
9863,-6,-10,6,-5,-7,-25,-18,3
9863,1,-5,-9,4,4,0,0,-12
9872,-2,-14,-5,0,19,52,17,19
9872,10,15,11,4,6,-54,14,-2
9895,-6,-4,-9,-4,-26,-84,-28,-14
9895,-6,-8,0,-16,-25,-12,-14,-22
9897,3,5,3,10,14,3,-9,31
9897,-6,-16,-3,7,30,64,18,1
9910,3,1,-1,-6,6,68,13,-1
9910,-4,-1,-2,-1,-26,-88,10,-8
9912,5,3,-1,-1,-8,-42,-34,-8
9912,-4,-10,-2,-8,-18,-15,-18,-4
9924,7,10,2,0,9,-5,15,10
9924,-5,0,0,-4,2,17,-12,7
9932,-3,-9,-2,-7,-17,-28,3,-28
9932,7,2,-1,0,11,43,6,57
9948,-8,-3,2,13,17,19,4,-8
9948,3,2,-2,7,21,54,19,15
9950,-2,-1,1,-3,-4,-16,1,-8
9950,-3,4,-1,-6,-8,-6,-4,-20
9970,-5,6,1,-8,-8,-50,-4,1
9970,-3,-7,-5,-9,-27,-79,-33,9
9972,2,3,-1,-1,-10,-10,-3,-6
9972,-8,-6,-12,3,10,18,-7,-21
9984,4,3,7,10,18,38,11,-18
9984,-4,-6,0,2,15,51,15,16
9993,11,13,2,-3,-5,-14,3,17
9993,-3,-10,-3,4,8,29,5,-9
8,-1,7,1,-9,-32,-42,-13,-6
8,-4,0,1,-1,-19,-58,-16,-16
9,-3,-1,-4,-4,-3,-2,-14,2
9,-1,-7,-7,-2,18,53,14,-5
30,-4,0,4,-3,5,10,5,-3
30,21,15,-2,1,19,36,23,1
32,-4,2,3,7,6,-36,-2,19
32,0,1,0,0,-18,-1,-3,-17
45,0,-3,-5,-7,-19,-21,-32,6
45,-6,-8,0,-10,-9,-2,1,-12
53,2,-4,-2,4,14,3,6,-5
53,0,6,-1,1,11,40,20,11
76,1,-1,3,7,-3,-56,-14,1
76,1,0,-3,-10,-10,-13,-4,3
77,-3,9,0,0,-8,10,-10,-12
77,-9,-15,0,3,1,-25,-4,-3
89,10,9,-1,0,19,54,18,-4
89,-8,-9,5,5,11,34,0,3
104,4,4,-5,-9,-18,-48,3,-15
104,0,7,2,-8,-18,-23,-11,25
105,-1,-3,-4,-5,8,28,5,1
105,-5,-4,0,5,25,22,0,-4
112,4,-8,-1,1,-18,25,18,13
112,1,6,-1,-3,-15,-12,-15,-30
135,-5,-3,-5,-5,2,-30,-11,-10
135,3,-2,-1,-1,-8,-16,0,51
136,-5,-7,-2,-1,13,18,-4,-1
136,0,2,-6,-8,3,3,3,-3
150,5,-7,-1,6,8,63,25,43
150,-4,-1,-2,8,-1,-48,-2,-18
151,-5,6,0,0,-7,-7,-21,-12
151,1,2,4,0,-7,-6,-5,-1
172,-5,-5,-3,-14,1,-4,6,-1
172,4,-4,-1,7,2,14,1,-7
174,-4,-6,-3,0,11,26,3,8
174,-6,-2,-4,-1,-18,-74,-13,-30
188,5,0,-2,-7,-1,20,-6,45
188,-2,5,3,4,-1,2,2,-10
194,2,2,1,-3,-10,-9,-4,-1
194,-4,-9,-1,1,9,8,0,4
209,5,11,2,6,6,26,2,-13
209,3,1,1,-1,8,-13,10,3
211,-3,-5,-4,0,-6,2,-3,-1
211,-3,-3,-6,-2,-16,-32,-16,-12
233,-1,-8,-2,3,4,16,2,12
233,-1,0,0,-3,1,28,3,-8
234,-1,7,1,-10,-7,-28,-1,-3
234,5,6,3,4,-3,-11,0,8
248,-7,-4,-5,-3,8,27,1,-14
248,-1,3,-2,8,6,12,4,-2
250,-2,-9,0,-3,-4,-18,-15,-1
250,-4,-3,-1,1,-5,-9,-5,-1
270,-2,-9,-1,-6,-9,-1,-2,-9
270,-3,-1,-4,-8,-2,-1,3,-5
272,2,0,0,4,13,15,2,0
272,1,1,-1,-2,-4,-7,2,16
292,-5,-2,0,7,1,18,-2,-15
292,1,5,2,-5,-6,-64,-6,2
294,-1,-5,-1,3,-4,33,6,3
294,-3,-2,-1,-7,-3,-12,-4,-4
305,-1,0,-1,-4,-14,-47,-8,-4
305,-3,1,1,-7,8,53,-6,-4
316,-5,-15,-6,7,8,-6,17,-6
316,9,7,1,2,-1,1,-3,41
330,0,2,2,1,8,14,3,-5
330,2,16,4,-1,-15,-3,-5,-15
336,1,-2,-2,-9,-6,2,-5,30
336,-3,-4,1,10,16,10,5,-16
353,-1,-4,-3,3,-11,-27,4,-3
353,-2,-12,-4,-7,5,7,-14,6
354,-2,7,0,-4,-6,-30,-2,-17
354,-7,-2,-3,-7,-23,0,-3,-9
366,2,1,1,-3,3,-3,-3,1
366,-2,-5,-4,4,11,11,7,-5
375,2,-5,0,3,18,83,20,6
375,0,3,2,-2,-2,-22,12,-6
390,1,-11,-2,-7,-21,-46,-31,-1
390,-3,19,0,-10,-16,-18,-10,-2
392,5,-14,-14,16,13,-12,-3,-1
392,5,18,8,9,19,50,10,2
413,-4,1,0,4,0,-10,16,-12
413,-3,-15,-1,-8,-7,5,-16,-2
414,-3,7,1,-10,-6,-18,-10,-16
414,0,5,-2,-3,3,35,5,1
426,-1,-6,-3,-3,-11,-10,7,8
426,7,7,4,10,9,18,7,-2
441,0,8,3,2,1,6,7,-5
441,-4,-3,1,-10,-8,-33,-24,-5
450,-3,3,-3,2,10,38,-1,-9
450,-1,-11,-2,3,-2,-9,9,5
451,-2,-2,2,-3,-12,-28,2,-1
451,-1,-3,-2,-4,18,-9,-1,3
473,0,8,-3,2,-18,-24,-7,4
473,-3,-9,-2,-1,-7,9,2,-4
474,1,3,3,0,14,-4,-5,7
474,-7,-4,-3,0,-8,10,4,-20
487,0,3,0,-3,7,-10,-3,6
487,-3,-5,-5,-13,0,16,8,4
495,-1,-5,6,6,-12,-35,-20,-3
495,3,8,-2,4,3,25,0,-6
510,-3,-5,-5,4,-2,-17,-4,-5
510,3,-3,1,-1,-6,17,-5,5
511,-5,0,-4,-8,-1,-20,0,-4
511,1,-8,1,1,0,34,7,8
533,3,1,4,5,22,13,19,12
533,-4,3,-4,-9,-7,-13,-3,-8
534,-4,-6,-8,-8,-26,-21,-17,-12
534,-3,-9,-4,0,-9,-14,-16,-6
547,-5,-1,-2,-3,3,14,2,-16
547,4,2,2,10,12,-2,3,8
554,2,-1,3,3,9,39,16,8
554,-4,1,-2,-7,-11,-23,-9,-5
570,-6,-13,-4,0,5,45,-1,7
570,5,3,1,4,-4,-47,-6,-1
572,-3,3,-2,-2,-4,6,-8,1
572,0,1,0,1,8,4,9,1
600,0,5,4,-1,-8,-28,1,-1
600,-5,-4,-2,-1,-3,-8,3,0
601,-3,1,-1,-4,-8,-1,-7,-13
601,4,1,0,-1,2,22,3,8
606,1,-4,-5,-2,1,-27,-9,-1
606,-4,-7,-4,1,2,18,5,-4
616,8,4,1,2,16,38,18,8
616,-4,-6,-1,-3,-17,-35,-7,-6
637,-2,-8,-2,-4,-9,-22,-23,-1
637,1,3,2,-2,2,-19,-10,-8
639,-2,-5,-5,-7,-7,10,13,6
639,-3,-6,-1,5,1,-9,-2,0
653,6,18,1,2,-7,-3,6,1
653,-5,-7,-2,-1,13,75,6,-8
654,-3,0,3,3,-1,-51,-4,2
654,-4,0,-2,-10,-6,-18,-7,-4
666,3,0,-3,3,9,28,0,-4
666,-4,-9,-1,-1,-6,-18,0,2
675,12,26,0,2,3,30,8,7
675,-6,-6,1,10,-2,-33,-3,-4
690,-4,-2,0,-3,3,40,-7,-4
690,1,1,-2,-4,-7,-43,2,4
692,-6,-4,0,-3,3,42,-6,-4
692,1,-8,-5,-6,2,-44,6,1
712,1,18,1,-7,-9,25,2,2
712,-1,-6,-2,3,-3,-10,1,-2
714,0,-10,-5,-3,8,46,-5,-2
714,3,5,6,5,0,-39,5,0
726,-4,-28,-4,-3,-15,-33,-9,0
726,19,21,1,-4,3,12,-4,3
735,-13,0,0,4,1,-6,-1,-5
735,-2,-2,-1,1,17,45,3,-1
750,-1,-2,1,0,2,-21,20,8
750,-9,-14,0,-5,-19,-47,-23,-1
752,5,0,0,-5,-2,-9,-7,-3
752,0,-5,-2,0,1,15,2,1
773,5,43,3,3,13,31,11,1
773,-10,-6,-1,-2,-7,23,1,-5
779,-3,-8,0,4,-6,-36,-7,-1
779,4,0,-2,-3,-9,4,-11,2
786,-2,-9,-3,-11,-7,-34,1,1
786,-2,0,3,13,15,38,3,2
802,-7,-5,-3,7,0,-26,2,0
802,-2,-8,0,-3,-9,-8,4,-4
810,-17,-11,-7,-11,-1,-2,-17,-8
810,-1,-22,-8,-8,-3,-11,1,0
817,44,38,13,7,-7,-10,3,5
817,-12,-9,-2,4,9,39,5,7
832,-2,-3,4,3,-4,-1,8,-25
832,-7,-9,-3,-7,-2,-14,-12,4
834,-10,9,-4,-6,-5,-32,1,-11
834,9,5,-1,-3,8,18,-8,11
846,0,-2,3,3,6,31,6,8
846,-9,-13,-4,-1,-13,-27,3,-5
862,-2,-12,-2,3,-6,13,-6,5
862,3,15,-4,-15,-10,-47,-4,-4
870,-6,-17,-2,15,-2,1,-10,-6
870,5,17,0,2,14,36,7,-1
872,-7,-6,-1,-3,3,5,7,2
872,-1,-2,-3,-4,-8,-7,4,-4
892,4,-2,-1,-2,-4,0,-7,-1
892,1,2,-1,2,0,-26,0,3
894,-7,-7,-2,-2,20,81,-3,-4
894,-9,-8,-1,-2,-15,-61,4,-5
906,0,-5,-4,-6,-17,-34,-4,7
906,16,39,4,1,-6,-21,-23,-5
915,-6,-11,-5,-7,0,1,-4,-2
915,3,-5,-4,-1,20,46,4,4
929,-3,-3,3,-5,0,-2,16,4
929,-5,-18,-7,11,-8,13,5,2
936,3,1,5,5,-1,-17,2,8
936,2,2,4,7,-1,5,0,-10
952,1,3,-5,-7,-2,-19,-9,1
952,-3,3,0,-9,7,28,6,-5
953,-4,-5,-3,-2,3,22,4,-1
953,-5,-8,-5,2,0,-59,-2,3
966,4,-20,0,-3,-7,5,-8,1
966,-1,-5,5,1,1,3,-4,-4
975,-8,-8,-3,-4,-10,-22,-4,-3
975,0,4,1,-3,-1,24,-2,-1
989,-4,-10,-7,0,3,4,-5,-4
989,0,3,2,1,0,6,5,0
998,-2,-6,-10,-10,-5,-36,-2,0
998,1,-2,4,5,0,26,-5,0
1013,-6,-5,-3,4,3,2,5,-1
1013,-6,-9,-3,-5,-4,-7,-5,4
1014,-3,2,2,-5,-1,0,2,-6
1014,1,7,-5,-5,2,4,-7,-7
1026,4,-13,-2,2,-7,-9,0,-3
1026,7,38,5,2,7,7,7,2
1036,-3,-13,-5,-2,-9,-18,-1,-5
1036,0,5,2,4,-2,3,-6,0
1050,-3,2,3,4,5,9,2,-4
1050,-2,-17,-4,-2,0,4,2,0
1056,0,-1,0,-2,-5,-12,-3,0
1056,5,7,0,2,0,11,9,3
1080,0,10,-3,-3,2,9,-7,-1
1080,-9,-15,-2,-2,0,6,2,1
1082,6,-5,-3,-5,-7,-31,-6,0
1082,1,13,1,-2,-1,22,-8,-6
1095,-1,2,6,5,4,-1,2,2
1095,-2,19,1,-1,-2,-4,0,3
1097,-9,-14,-5,-1,-2,1,0,-4
1097,5,-2,2,-8,-3,2,9,6
1109,-4,-4,-4,-6,-4,-5,-2,-4
1109,14,11,8,15,4,-4,15,7
1117,-9,-2,-3,-2,-3,3,-10,-10
1117,-4,-11,-6,-7,-4,-8,-9,-5
1132,-10,-12,3,-4,0,1,2,-4
1132,-15,-22,-10,-5,-4,-6,-14,-7
1134,18,10,-3,-4,3,3,15,11
1134,19,10,5,6,2,6,0,7
1154,-6,6,2,0,-2,-2,1,-3
1154,-4,-13,1,-3,1,2,6,-4
1156,-3,7,0,0,-2,-2,-8,1
1156,-16,-13,-7,-8,-4,-4,4,-7
1169,8,5,-3,2,2,4,8,2
1169,-4,-8,-5,-4,-4,-4,-2,2
1176,-3,2,1,7,4,5,0,-4
1176,-6,-12,-1,0,2,1,10,-4
1193,5,9,-1,0,2,4,-1,11
1193,-1,3,0,-4,-3,-6,6,-2
1194,-10,-16,-1,3,1,0,-1,-2
1194,9,13,13,16,3,7,-6,-8
1215,6,4,2,2,-5,-9,-5,1
1215,-3,-4,-6,-12,-5,-1,-6,-6
1216,1,5,-1,-4,-3,-2,4,9
1216,-22,-12,-7,-3,-3,-7,-10,-15
1230,13,10,-2,-3,3,3,5,9
1230,-2,-12,-1,0,0,-5,-5,-7
1236,-5,-14,-5,-5,-2,-2,-2,1
1236,3,12,-1,-3,2,3,6,8
1253,-1,11,3,9,2,-6,-8,-4
1253,-1,-2,-2,0,0,1,-5,-3
1254,1,4,2,4,-2,0,-2,-7
1254,-1,-4,-4,-9,-4,-3,-2,4
1275,-3,-3,-11,-8,-2,3,10,-1
1275,0,5,10,7,0,0,2,5
1276,3,-2,-3,-4,-2,-3,3,-2
1276,-2,-3,1,2,-2,-3,-2,-4
1289,-8,-6,1,-1,-1,-2,-8,-3
1289,-8,2,-1,-2,-1,2,-4,-11
1305,0,-3,-1,-1,1,3,-3,2
1305,-1,27,-1,-10,-6,-4,-4,7
1313,-3,-15,-2,-5,-1,-3,-7,-4
1313,9,41,5,6,1,1,-3,3
1314,-7,-4,5,4,2,1,-4,-7
1314,5,0,-2,3,2,2,-1,-4
1335,6,5,-2,-8,-2,0,0,6
1335,-4,-7,-16,-16,-4,-2,3,3
1337,-7,-24,3,4,-2,-3,2,-3
1337,11,25,14,15,2,1,-1,1
1358,2,8,1,0,-3,-2,-2,-3
1358,-4,-12,-2,-2,-2,0,-5,-3
1359,-4,-2,-6,-6,-3,-5,-3,-6
1359,-13,-31,-15,-11,-3,-2,-1,5
1372,2,-16,2,2,1,-1,6,-1
1372,15,23,6,7,2,2,2,4
1373,-9,6,-2,-3,-2,-4,-9,-4
1373,3,-9,-1,2,-2,-1,-2,1
1396,-4,-9,-4,-2,-3,-2,-1,0
1396,-8,-13,-7,-6,-3,0,-1,-3
1397,5,2,5,6,2,1,5,3
1397,-6,-12,-3,1,0,0,-2,-2
1409,16,13,1,1,1,2,-1,2
1409,-6,-24,-11,-8,-2,-2,-2,-1
1418,2,42,7,0,-1,-1,-8,-5
1418,-2,0,-3,-2,-1,0,3,4
1433,-9,0,-3,-1,1,0,-1,-3
1433,0,-5,-6,-5,-5,-6,0,2
1434,-13,-55,-4,2,4,2,2,6
1434,46,47,18,10,3,2,7,7
1455,-16,-8,-5,-5,-2,-3,-6,-7
1455,3,8,8,7,-2,-2,-3,3
1456,1,-6,-7,-6,-5,-1,-3,4
1456,-17,-18,-8,-7,-2,-2,-4,-1
1469,-6,0,0,-2,0,0,-1,-1
1469,0,-10,-5,-5,0,1,1,0
1478,3,10,-1,-2,0,-1,-2,-1
1478,-5,-6,-1,-3,-2,-2,-4,-1
1493,1,1,-2,-1,-4,-3,-3,2
1493,-7,-6,0,1,-1,0,-2,0
1494,7,14,2,2,0,1,1,-4
1494,-4,-10,-6,-2,-2,0,-2,-9
1523,1,1,-7,-3,-2,-1,3,3
1523,9,-4,10,7,2,-1,2,3
1525,8,8,0,3,0,-1,2,1
1525,-12,-18,-7,-3,-3,-3,-5,-13
1530,-14,0,-6,-9,-3,-5,-5,-8
1530,-8,-24,-3,-2,-1,0,-3,-7
1536,32,57,4,2,-1,4,4,9
1536,-7,-15,-1,-2,-1,1,-1,0
1553,2,4,1,2,-1,0,-1,-4
1553,2,2,-3,-5,-2,-1,0,2
1554,-12,-14,-4,-4,-4,-3,-2,-2
1554,2,3,-2,0,-3,-2,1,2
1575,2,6,6,5,3,4,1,0
1575,-5,-2,0,1,-2,-2,-1,-12
1577,-5,-7,-2,-1,-2,-3,-4,5
1577,-1,0,-1,-2,-2,-2,1,0
1588,-8,-7,-1,-2,-3,-1,-2,-6
1588,-3,5,0,1,0,0,-1,0
1598,-2,-4,-1,-1,-1,0,-2,-11
1598,0,-5,-9,-6,2,-1,1,12
1613,8,5,23,8,4,-2,-4,-10
1613,2,5,0,-3,-4,-2,-3,-13
1614,6,-1,0,-2,-2,-1,2,11
1614,-6,-7,-1,-3,-3,-2,-2,-4
1635,3,1,-1,1,-2,-2,-2,-5
1635,3,1,-22,-5,8,-1,-2,9
1637,-16,-11,4,-1,-11,-4,-6,-31
1637,6,0,3,0,2,0,-1,18
1649,-4,-4,-21,-8,1,0,-3,-6
1649,-5,-6,7,2,-8,-1,-4,-3
1658,4,-7,-10,-4,5,1,5,2
1658,2,26,2,1,1,4,3,-3
1673,0,-10,4,9,0,-1,0,6
1673,-12,-3,-1,-3,2,0,-1,0
1674,0,-4,-1,-7,-1,-1,0,7
1674,8,12,7,6,-3,-1,-2,-12
1696,-1,-4,-6,-1,-3,-1,-2,5
1696,3,2,1,13,5,-2,-5,-19
1697,-8,-4,-1,-10,-6,0,0,-14
1697,1,-9,-8,-9,6,-1,18,88
1709,0,2,-13,5,-2,1,7,42
1709,-12,-3,10,-16,-7,-2,-11,-48
1718,-20,-12,-7,4,0,-14,-40,-53
1718,37,5,-8,7,10,17,68,72
1740,0,7,20,2,0,5,1,-51
1740,2,8,-4,4,1,2,6,-32
1742,-12,-5,-5,-2,-4,-10,-18,-38
1742,-27,-23,-8,-8,-13,-17,-21,33
1755,28,8,-3,2,6,11,36,87
1755,4,6,4,0,-3,3,-6,-28
1757,-2,6,3,-1,2,5,-1,-25
1757,28,-1,1,1,-1,-4,-11,60
1769,-15,-8,1,-5,-5,-10,-10,-11
1769,2,-3,2,1,3,0,2,46
1778,27,7,1,1,-3,2,8,6
1778,-19,-9,-5,-3,-6,-7,-18,-82
1792,-24,-7,-3,-6,-4,-5,-20,-31
1792,11,2,-4,-2,-3,-1,-5,-26
1794,-7,2,0,4,2,5,18,63
1794,2,0,5,0,-2,1,-4,-58
1815,4,2,-1,-1,-2,-4,-4,-10
1815,-3,-7,-5,-2,-3,-4,0,-1
1816,14,6,3,2,2,2,-3,22
1816,-19,-5,-1,-1,-3,-3,-21,-99
1837,-11,-2,-3,-4,2,3,20,1
1837,4,1,-4,0,-1,1,1,41
1840,-15,-4,-1,-3,-3,-6,4,-41
1840,-5,-1,2,-1,0,2,-13,-7
1852,5,0,-2,-3,-3,-4,-15,-17
1852,3,2,2,1,0,1,10,15
1858,1,-2,-2,-2,0,0,-2,10
1858,-13,-4,-2,-1,-2,-4,-20,-45
1875,5,0,-1,0,0,2,10,51
1875,3,3,-1,0,-2,-1,-3,-15
1876,-3,-1,0,1,0,0,2,7
1876,-4,-2,-1,1,0,-1,6,9
1889,-2,0,-1,-3,-1,-2,-10,-44
1889,-5,-2,0,2,-2,-2,-2,9
1898,2,-2,-1,-3,-1,2,6,9
1898,-4,-1,1,-3,-1,-2,-5,-31
1912,0,-1,-2,-1,0,-1,-5,-9
1912,-3,-3,-3,-4,-1,-2,4,9
1921,7,-1,1,0,1,0,7,10
1921,0,-2,-1,-1,0,1,-2,-20
1934,-4,-1,-1,0,0,-1,-6,-3
1934,5,-1,0,-1,-1,-3,0,20
1937,5,0,0,-1,1,0,1,-11
1937,-2,0,0,0,-2,-1,0,15
1949,-4,-2,-1,-1,-3,-2,-8,-28
1949,2,1,2,0,1,4,11,51
1957,-1,1,-2,0,-2,-2,-3,-18
1957,-6,-1,-2,0,-1,-1,4,14
1972,4,1,-1,-1,-4,-3,-2,-7
1972,-5,-4,-1,-3,-3,-3,-6,-25
1979,11,3,0,0,-1,2,-1,-9
1979,-2,-2,0,-1,1,1,6,13
1995,2,0,0,0,0,-1,-7,-8
1995,-4,1,-3,-2,-3,-5,0,-4
1996,-7,-1,-1,0,0,-3,9,12
1996,-1,0,0,0,1,-1,-2,-19
2009,3,0,-1,-1,0,-2,2,0
2009,-7,-3,-3,-1,0,0,-4,-12
2018,1,0,-2,0,0,-1,-3,6
2018,-2,-2,-1,-2,0,-1,-1,-3
2032,-8,-3,-3,-1,-1,-2,-1,0
2032,4,1,1,-1,-1,-1,-2,-3
2039,-4,-2,-1,-2,-1,-1,2,0
2039,2,0,-3,0,-2,-3,-3,-4
2055,-2,-2,-2,0,0,-2,-1,-1
2055,-1,0,-1,-1,0,-1,-2,-7
2057,-2,-2,0,0,-2,0,-4,2
2057,-1,-2,-1,0,-3,1,1,-1
2078,2,-1,-1,1,-1,1,2,5
2078,-2,0,-2,1,0,-1,-1,-3
2079,-2,0,-2,-3,-1,-2,-3,0
2079,-4,-1,0,0,-2,-4,-3,-1
2092,0,-1,0,-1,-3,-1,-1,-3
2092,2,-1,0,-1,-2,0,-2,-2
2099,-4,-4,-2,-3,-2,-2,-2,2
2099,0,-2,-1,-1,-1,-2,-1,-3
2115,0,0,0,-1,0,-1,-2,3
2115,-1,-3,0,0,2,0,-2,-2
2122,-2,-1,-1,-1,-1,0,-1,1
2122,-1,0,0,1,0,0,0,-2
2137,1,-1,-2,0,-1,1,-1,0
2137,-4,-2,-2,1,-1,2,-3,-1
2139,-2,-2,-1,1,-1,0,1,1
2139,-1,-2,-1,0,-1,-2,-2,-3
2152,-2,-1,-1,-1,-1,-2,-1,-3
2152,-1,1,2,-1,-3,1,2,-5
2159,-2,-2,-1,-2,-3,-1,0,-3
2159,-3,-2,-2,-2,-2,0,1,-2
2175,1,0,0,0,-1,0,0,-2
2175,1,0,1,4,0,0,-1,3
2176,-2,-3,-1,0,0,-3,-2,-1
2176,-2,-1,0,0,0,-1,-2,-3
2198,-1,-1,-3,-2,-1,-1,-1,-4
2198,-2,-1,-2,-1,0,-1,0,-4
2199,3,1,1,1,-1,0,0,-1
2199,-1,0,-3,-1,-2,-1,-1,1
2211,0,0,-1,0,-1,0,0,0
2211,-1,0,-1,-1,-3,-1,1,0
2220,-1,-1,-1,-1,-1,0,1,-1
2220,1,-2,-2,-3,-1,0,0,-1
2235,-1,-2,-1,0,-1,-3,-1,1
2235,2,-1,-1,0,1,-1,-1,1
2237,-3,-1,-1,0,1,-1,-1,-3
2237,2,-2,0,-1,-1,0,-2,1
2257,-3,-1,0,-1,0,2,-1,-1
2257,0,-1,-2,-1,-2,-1,-1,0
2259,-1,-2,-1,-2,0,-1,-1,-1
2259,-2,-1,0,1,-1,-1,0,-2
2271,0,-1,0,0,-2,-3,0,-2
2271,-2,-1,-1,-2,-3,-2,-2,-7
2288,0,-1,-2,-2,-2,-1,-2,-4
2288,0,1,0,-2,-1,0,0,-1
2295,-2,-1,0,-1,-1,0,0,0
2295,-3,0,-1,-2,-1,0,1,4
2297,-4,0,0,0,1,-2,0,3
2297,-2,-1,-1,-1,-1,-2,-2,2
2318,0,0,-2,0,0,0,-2,2
2318,-1,-1,0,-1,-1,-1,-1,0
2319,-1,0,-2,-1,-1,1,-2,2
2319,-3,0,0,-2,-1,0,-2,0
2331,-1,-1,0,-2,-1,-2,-2,0
2331,0,-2,-3,-5,-1,-2,0,-1
2340,-3,-1,-2,0,-2,-1,0,-1
2340,-1,-1,-1,-1,-1,-2,-1,-2
2355,0,0,0,0,0,-2,-1,-1
2355,-1,0,-2,-2,1,0,-3,-2
2357,0,-1,0,-2,0,0,-1,0
2357,-2,-3,1,0,0,1,1,-2
2377,0,0,0,-2,-1,-2,0,-1
2377,0,-1,0,-1,0,-2,0,-3
2384,-2,-1,-1,-2,-1,0,-1,-2
2384,-1,0,-2,-1,-1,0,0,-2
2391,-2,-3,-2,-2,-1,0,-1,-3
2391,0,0,-1,-2,-2,-1,-3,-1
2400,-1,-1,-2,0,-1,-1,-2,-3
2400,-2,-1,0,0,0,-2,1,-1
2415,-1,-1,-1,0,-1,-1,1,-1
2415,-2,-3,-2,-1,-1,-1,1,0
2417,-2,0,-1,0,-3,1,-1,-1
2417,-1,-1,-2,-1,-1,0,0,-2
2445,-1,0,0,-1,-1,-2,-1,-2
2445,-1,-1,-2,0,-2,-2,0,0
2447,-1,-2,-2,-2,0,-2,-2,-1
2447,-1,-1,-2,-1,-2,-1,-1,-1
2451,-1,0,-1,-1,-3,-1,-1,-1
2451,1,0,-1,0,-3,-3,-2,-1
2467,-1,-1,0,0,-3,-1,-2,1
2467,-1,-3,-1,0,-2,0,0,-1
2475,-1,-1,-1,-2,1,1,-1,-2
2475,-3,0,-2,0,0,1,0,-1
2476,-1,-2,-1,-1,1,0,0,-1
2476,-1,-1,0,0,-1,-1,-4,-1
2505,0,1,-1,-2,0,-1,-3,0
2505,-3,0,0,0,-1,-1,-1,-2
2507,-3,-1,-1,0,-1,0,-2,-1
2507,1,-1,-3,-1,-1,1,-2,-4
2511,1,-1,-1,-2,-1,-3,1,-2
2511,-1,-2,-1,-1,1,-1,0,-3
2520,0,0,-1,0,0,-2,0,-2
2520,-1,-1,0,-1,0,-2,0,-1
2536,1,0,-1,1,1,-1,0,-1
2536,1,0,-1,-2,0,0,1,1
2537,-1,1,-2,0,-2,-1,-2,0
2537,-1,0,0,0,-2,-1,-1,-1
2558,-2,-2,-1,0,-2,-1,-3,1
2558,-1,-2,1,-2,-1,-1,-2,-2
2560,-1,-2,-2,-3,-1,0,0,-3
2560,0,0,-1,-2,-1,-2,-1,-1
2571,-2,-3,-2,0,-1,-3,-2,0
2571,0,-1,-2,1,-1,-1,-2,-1
2587,3,0,-1,1,0,-2,-2,-1
2587,-2,1,-1,-2,0,1,-1,-1
2595,-3,-1,-1,2,-1,-1,-3,-1
2595,-2,-2,-1,-1,-1,-1,-2,-1
2597,-2,-2,-1,0,0,-2,-1,-3
2597,-1,-1,-2,0,0,-1,-1,-3
2617,0,1,1,-3,-4,-1,0,-2
2617,0,0,0,-1,-1,1,1,-1
2620,1,-2,-1,-1,1,0,-2,-6
2620,2,-1,-1,0,-1,1,-1,-4
2631,0,-2,-2,-1,0,2,-1,-3
2631,2,1,-1,0,-1,-1,-1,0
2640,-1,-1,-1,-2,-2,0,0,3
2640,-3,-3,-1,-1,-1,0,-1,2
2655,0,0,-1,-1,0,-1,-1,0
2655,-2,-2,0,0,-1,-1,-2,-1
2656,-1,0,-1,-1,-1,-1,0,-1
2656,0,-1,0,-1,-2,-3,-2,-1
2678,1,-3,-1,-1,-3,-1,-1,-1
2678,0,1,-1,0,-1,-3,-1,1
2679,0,0,0,-1,-1,0,0,2
2679,-3,-4,-2,0,-1,-1,1,3
2692,-2,-1,-1,-2,-1,1,0,1
2692,-1,-1,0,0,0,0,-1,1
2701,-1,-2,-1,-1,0,0,-2,1
2701,0,1,-3,-1,0,1,-2,-2
2715,0,-1,-3,1,0,-2,-2,-1
2715,-1,-1,-1,0,-3,-3,-1,-1
2717,0,0,-1,1,-1,1,1,0
2717,1,-1,-2,0,-1,-2,0,3
2745,-1,0,-1,-2,-1,-1,1,2
2745,0,-1,-1,0,-1,0,-2,0
2746,0,-2,0,-1,-1,-2,-1,0
2746,-2,0,0,-1,-1,-2,1,-2
2750,-1,0,-1,-1,0,0,0,-1
2750,0,-1,0,-2,-1,-1,1,-2
2760,-3,0,-1,-2,-1,-1,-1,-3
2760,0,0,-1,-1,-2,-1,-1,0
2775,0,-2,-1,0,-1,-1,0,0
2775,-1,-2,-2,-3,0,-1,-1,-1
2776,0,-2,0,0,0,0,-2,0
2776,0,-1,1,-1,-3,-3,-1,-1
2797,-1,1,-1,-1,-1,-1,-3,-3
2797,-1,-2,0,0,1,1,-2,0
2799,-2,-1,0,-2,-1,1,-2,-2
2799,-1,-1,-1,-2,1,0,-3,-1
2812,-2,-1,-1,0,-1,-1,-1,0
2812,-1,-1,-3,-2,-1,-1,-2,-2
2821,0,-1,-2,-1,-1,-2,-2,-1
2821,0,-1,0,0,-2,-1,-3,-2
2834,-1,-1,0,-1,-1,-1,0,-2
2834,1,1,-3,-2,-1,0,0,-2
2841,1,1,1,0,-2,-2,-1,0
2841,-1,-1,-1,0,0,0,0,0
2858,0,0,0,0,-2,-1,0,0
2858,-1,-2,0,-1,0,-2,-1,-2
2859,-2,-2,-2,0,0,-3,0,-1
2859,-3,-2,-2,0,1,0,-1,-1
2872,-1,-1,1,-2,-3,-2,-3,-2
2872,-3,-2,-2,-2,-2,-1,0,0
2880,-2,-2,0,0,-1,0,-2,-1
2880,-3,-1,-1,-1,-2,-4,-1,0
2895,-1,0,-1,-1,-2,-3,0,-2
2895,-1,1,-2,-1,-3,-2,-3,-3
2901,-1,-2,-1,-2,-1,-2,-2,-2
2901,-2,0,-1,-2,-1,-1,-1,-2
2917,2,-2,-1,0,0,-1,-1,0
2917,0,0,1,0,0,0,1,-2
2919,0,1,-1,-3,-2,0,-2,-1
2919,0,0,0,-1,-1,-1,0,1
2932,-3,-1,-2,-1,1,-2,0,-1
2932,1,-1,1,0,0,-1,0,-1
2941,1,-2,0,-2,0,0,2,-1
2941,1,-2,-1,-1,-1,1,0,-1
2955,1,-2,-1,-1,-1,-1,1,2
2955,1,1,0,0,-1,0,0,-1
2957,-3,-1,0,-1,0,-4,-1,-1
2957,-3,2,-1,-2,-1,0,0,0
2978,-1,0,0,-1,0,0,-1,-1
2978,-3,-2,-2,-1,-2,1,-1,1
2979,-3,1,-1,1,-2,-2,0,0
2979,-1,-3,0,-2,-1,-1,-2,-2
3000,-1,0,-2,0,-1,-1,-1,-1
3000,-1,-1,-3,-1,0,-1,-3,-1
3002,0,-1,1,0,-1,0,1,0
3002,1,-4,-4,-2,-2,-2,-2,0
3023,0,-1,0,-1,-3,1,-1,-2
3023,-1,-3,0,-3,-1,-1,0,-1
3024,-1,-3,-3,0,0,-2,-1,-1
3024,0,1,1,0,-1,-2,1,-1
3037,-1,0,0,-1,-1,-1,-1,-1
3037,-1,-2,-1,-1,-1,-1,0,1
3038,-1,0,-1,-1,-1,-1,1,-3
3038,-1,-1,-1,0,-2,-1,1,-1
3061,-1,0,-3,0,-1,-2,0,-2
3061,0,1,-2,-1,-1,0,-3,-2
3062,-2,-1,0,-1,-2,0,-1,-2
3062,-2,-2,0,-1,-1,-1,-1,-2
3075,-2,-4,0,0,-1,-1,-3,-1
3075,-1,-1,0,-1,-2,-4,-2,0
3077,0,1,-2,-3,-2,1,-2,1
3077,0,2,0,-1,0,1,0,0
3097,-2,-1,-1,-2,0,-1,0,-1
3097,-2,-2,-1,1,0,-1,0,-1
3098,-2,-2,-2,-1,-1,-3,0,-2
3098,-3,-1,-3,-1,-1,0,-1,-2
3120,0,-1,-1,-2,0,-1,-2,1
3120,-1,-1,-1,-1,-2,-1,0,0
3122,-2,-1,-2,-2,0,0,-1,-1
3122,-2,-1,-1,0,0,1,-2,-3
3135,-1,-1,-1,-2,-1,-2,-2,-2
3135,-1,-1,0,0,-1,-2,-1,-2
3137,-1,-2,-1,-1,-1,-2,-2,-1
3137,-1,-1,-1,0,0,-2,-1,-1
3158,0,0,0,1,-2,0,0,0
3158,1,-1,0,-1,-3,1,-3,-1
3159,0,-1,-2,-1,-3,-1,-3,1
3159,0,-1,0,-2,-1,-1,-1,-1
3180,-1,-1,-1,-1,-1,0,-1,0
3180,-4,-2,-1,-1,-1,-1,1,0
3181,0,-1,-1,0,-1,1,0,-3
3181,-1,-3,-1,0,-1,-2,-2,-1
3194,0,-1,0,-2,-1,-2,-2,-2
3194,-1,-1,-2,-1,-1,-1,-1,0
3202,-1,-2,-2,-2,-1,-1,-2,-1
3202,-1,-1,-2,-1,-3,-1,0,0
3218,-1,0,-3,1,-2,-2,-3,-2
3218,0,-2,-1,0,0,1,-1,0
3219,-1,0,-1,0,0,0,0,1
3219,0,-1,-1,0,0,-1,0,-1
3240,-3,-2,-2,-1,-2,-1,0,-1
3240,0,0,0,-1,-1,-1,0,-2
3242,0,-2,-1,0,-1,-2,-2,-1
3242,-1,0,-1,0,-1,1,-3,0
3255,-2,-1,-2,-2,-1,-1,-3,-2
3255,0,2,-1,0,-2,-2,-3,-1
3261,-2,-2,-1,-2,0,0,0,-3
3261,0,0,-1,-1,-1,0,-2,-1
3278,-2,-1,0,0,0,-1,2,0
3278,-3,-1,-2,-1,0,0,1,-2
3279,-1,-1,0,-1,-2,-2,-1,1
3279,-2,-1,0,-1,0,-1,-1,2
3300,-1,0,-1,0,0,1,-1,0
3300,0,-3,0,0,-1,0,-1,0
3302,2,2,2,0,-1,-1,-1,-1
3302,-1,-1,0,-1,0,-1,-1,-1
3314,0,-2,-2,-1,-2,-1,-3,0
3314,-1,0,-1,0,0,1,-2,-1
3321,-1,-1,-2,0,0,0,-1,-1
3321,-1,-2,-1,-2,-1,-1,0,-2
3337,-2,-1,-1,-1,-1,-2,0,-1
3337,-1,-2,-3,-2,-1,-1,-3,-2
3338,-1,-1,0,-1,0,0,-2,-1
3338,-1,0,-1,-1,0,-1,-1,-2
3359,1,-2,-1,1,1,-2,0,-3
3359,0,-1,1,-2,-2,-2,-3,0
3360,-2,-1,-1,-1,-1,-3,0,-2
3360,-1,-1,-1,-1,-1,-2,1,-1
3373,0,-1,-1,0,-1,-2,0,0
3373,-1,-2,-2,-1,-1,-2,-1,-1
3382,-2,-1,1,0,2,-2,0,1
3382,-3,-2,-1,0,-1,-1,-2,0
3396,-1,-1,-1,0,-3,-1,0,1
3396,-1,0,-1,-1,-1,-1,-1,-1
3397,0,0,-1,-3,0,-2,-4,-3
3397,0,-1,-2,-2,0,-1,-2,-1
3420,-2,-1,0,0,0,-1,-2,-1
3420,2,-1,-1,-1,-1,0,1,-1
3420,-1,-1,-1,0,-2,0,1,0
3420,0,0,-2,-1,-3,0,-2,0
3434,0,-1,-1,1,0,1,-1,-2
3434,-2,-2,-1,0,-1,-3,0,-1
3442,-1,-1,-3,0,-2,1,-2,0
3442,0,0,-1,1,-2,0,-1,0
3457,-1,-1,0,-3,-2,0,-2,-1
3457,-1,0,0,-1,-1,0,-1,-1
3458,1,-2,-3,-2,1,-1,1,-2
3458,-3,-4,-2,0,0,0,-3,-2
3480,0,-1,-1,-1,-1,-1,-3,-1
3480,0,1,-2,0,-1,0,-1,-2
3480,-1,0,0,-1,-3,-2,-1,-1
3480,-1,-1,0,0,-1,-2,2,-2
3494,-3,0,-2,-2,0,-1,-1,1
3494,-1,-1,1,-1,0,-1,0,0
3502,-1,-2,-2,0,-1,0,0,0
3502,0,-1,-1,-2,0,-1,0,-2
3517,0,0,-1,-1,0,-3,0,-2
3517,0,0,-1,-1,-1,-1,0,-1
3524,-1,-1,-1,0,0,-1,-1,0
3524,-1,0,0,0,-1,-1,0,2
3540,0,-2,1,-2,-2,0,-3,-1
3540,0,-1,-2,-2,-2,-2,-2,-1
3540,-3,-2,-2,0,-1,0,-2,-1
3540,1,0,0,0,0,0,-1,0
3554,-1,-1,-1,0,0,-1,-1,-2
3554,0,-1,1,0,-1,-2,-4,0
3562,2,0,-1,-2,-2,-2,-2,-2
3562,-1,-1,-3,-2,-2,-1,1,0
3577,-1,-3,-2,1,-1,-1,-1,1
3577,-2,0,-3,-2,-1,-1,2,-2
3577,-3,-1,-3,-3,-1,-1,-1,-3
3577,1,0,-1,0,-1,0,-2,0
3599,-2,-1,-1,-1,-1,-1,0,-1
3599,-2,0,-1,0,-2,0,-2,0
3600,0,0,1,0,-1,0,-1,1
3600,-1,-1,-1,0,1,-2,-1,-2
3613,-1,0,-2,-3,-2,-2,2,-1
3613,-2,-3,-1,-3,-1,-1,0,0
3622,-2,-2,-1,-1,-2,-1,0,1
3622,0,0,0,-2,-1,-2,-1,-2
3637,0,1,-1,0,0,-2,-1,-1
3637,-4,-2,0,-1,0,-2,-3,-4
3638,1,0,0,-1,-1,0,0,1
3638,-1,-1,0,1,0,-1,0,0
3660,-2,-1,-1,-2,0,-2,-2,-1
3660,-1,1,-1,1,-2,2,-1,0
3661,-3,-3,-1,1,2,-1,-2,0
3661,-2,-2,-1,-1,-2,-1,-1,-2
3673,0,-2,0,-2,-1,1,0,-3
3673,0,2,-1,-1,-1,-1,-1,1
3682,1,-1,0,-2,-1,-1,-2,-1
3682,0,0,-1,-2,-2,-2,0,1
3696,0,0,0,1,-1,-1,-1,2
3696,-1,-1,-1,-2,1,-1,0,-1
3698,0,-1,-2,-1,-1,1,-1,-3
3698,1,-2,-2,-2,-2,0,0,-2
3720,0,-1,-1,0,1,-1,-1,-2
3720,0,-1,0,0,-1,-1,-1,0
3721,-1,-1,-1,1,-2,-2,-1,1
3721,-4,-1,-2,-1,-3,-3,-2,-2
3734,0,0,-1,-2,-3,-1,0,-1
3734,-2,0,-3,0,-1,-1,0,-1
3742,-2,0,-2,-2,-1,-2,1,-2
3742,-2,-1,-2,-1,-1,1,-3,-1
3756,-3,-2,0,-1,-1,1,-3,0
3756,1,-1,0,-1,-1,-2,-1,0
3758,0,-2,-1,-1,-2,0,1,-2
3758,-2,-2,-2,0,-2,-1,-1,-1
3779,-1,-1,-1,-1,0,0,-1,-2
3779,2,-2,1,-2,-1,1,0,-1
3780,-2,-2,-2,-2,0,-1,-3,0
3780,-1,-1,0,-2,1,-1,-3,0
3793,-3,-1,-3,-1,-2,-2,-2,-1
3793,-2,-1,-2,1,-1,-1,-3,-2
3802,5,1,-2,-1,-1,-1,0,-3
3802,-1,0,-2,-1,-1,0,-1,-1
3817,-2,-1,0,-1,-1,0,0,0
3817,-7,-4,-2,-2,0,-2,-1,0
3817,0,0,1,-1,-1,-1,1,0
3817,2,-1,0,-1,0,0,-1,1
3839,0,-1,-2,-1,-2,-1,-1,-2
3839,0,0,-2,-1,0,1,-1,-2
3840,-1,0,0,0,1,-1,-2,-1
3840,-1,-1,-2,-2,-1,0,-2,2
3863,1,0,0,-1,0,0,0,-1
3863,4,1,-1,-1,-1,-2,1,-1
3863,-2,-2,-2,-1,-1,0,-1,-1
3863,1,0,0,0,0,-3,-3,-1
3877,0,-1,-2,-2,0,-2,-1,-2
3877,-3,-3,-1,-1,-3,-1,-2,-3
3878,-1,0,0,0,-1,3,-1,-1
3878,-1,0,-2,-2,-1,0,2,-1
3900,-4,-2,-1,-1,-2,-2,-3,-2
3900,4,0,2,-2,0,0,0,-1
3900,-1,-1,-4,-1,-3,-4,-2,-3
3900,-2,-3,-3,-2,-1,-1,-2,0
3922,-2,-1,-1,0,-1,-1,0,2
3922,-4,1,-2,-2,-1,-1,-3,0
3923,-2,-3,0,-1,-2,2,-2,-3
3923,1,1,0,0,-2,-1,1,-8
3937,1,-1,-1,-1,2,-1,-2,-2
3937,-1,-1,-3,0,-3,-1,0,-6
3938,-6,-2,-3,-4,-2,-3,-1,7
3938,1,1,8,1,0,-1,1,-1
3959,-2,-3,2,-1,-2,0,-2,-2
3959,-9,-3,-1,0,0,0,-1,0
3960,-5,-1,3,-1,1,0,-1,0
3960,5,0,-4,0,-1,-1,-1,0
3990,1,1,2,-1,-2,-2,-1,3
3990,-4,-4,-1,-1,-2,-1,-2,0
3991,1,-4,-4,-2,-1,-2,-1,-3
3991,-7,-2,-1,-1,1,-1,-3,-1
3997,3,2,-3,-3,1,-2,0,2
3997,1,-1,2,-1,-1,-2,-1,5
3997,2,2,2,1,-1,-1,1,-6
3997,-3,-2,-15,0,-1,-2,0,-1
4020,-7,-2,11,2,-2,1,-1,-5
4020,5,1,-2,-2,-1,-4,-3,0
4020,1,-3,-2,0,0,-1,0,0
4020,-6,-5,-4,-3,-2,-1,-4,2
4042,-2,-2,-5,0,-2,-1,-1,-2
4042,2,0,9,1,0,0,-3,-3
4043,-2,-1,6,0,0,-1,-4,-3
4043,8,5,0,0,-2,-2,6,-3
4057,-6,-4,-5,-1,-1,-3,-6,22
4057,-1,2,0,2,0,3,2,-9
4058,-1,1,-2,-2,0,-1,-1,-3
4058,0,0,5,0,1,-1,-1,1
4079,-2,-2,-7,-3,-1,-4,3,3
4079,7,1,-17,-8,-3,-5,-5,-2
4081,-4,-6,-3,0,-2,-1,-3,1
4081,5,1,-1,-1,0,1,2,8
4102,4,-1,-1,-1,-1,0,-3,-6
4102,-6,-2,-2,1,1,2,-1,6
4103,12,4,-1,-1,-2,-2,-2,-23
4103,-15,-6,-1,-2,-3,-2,-1,33
4117,2,1,-5,1,0,0,2,-16
4117,-2,-3,4,0,-1,-3,0,3
4117,-3,-3,-5,-1,0,-2,-5,-5
4117,-7,-2,1,1,0,-1,-4,-5
4139,9,1,-1,-3,0,-1,3,13
4139,2,-2,0,-1,-3,-2,2,12
4140,1,-2,1,-2,-2,-4,-7,-14
4140,1,1,-11,-1,0,4,7,-1
4162,-5,-3,2,0,-1,-1,-7,-8
4162,3,2,-1,0,-1,1,5,4
4163,-4,-2,-7,-2,-1,-1,3,16
4163,-2,2,10,-3,-4,-1,-3,-19
4177,3,-1,-4,0,0,0,1,-5
4177,1,2,12,0,-1,-1,-1,-3
4177,-8,-5,-5,-2,-2,-2,-5,-2
4177,-8,-3,-3,-1,0,-1,1,-2
4199,-11,-2,2,-1,-2,-1,1,4
4199,-3,1,-4,0,-2,-1,-8,-11
4199,4,3,1,0,-1,0,3,7
4199,-3,-1,4,-2,-1,-2,-4,-7
4230,7,1,-5,-2,-1,-3,1,13
4230,0,1,-4,-1,1,0,2,-14
4231,-5,-2,-4,-2,-1,-2,-9,-22
4231,-1,-1,0,0,-2,-1,3,63
4237,-7,-3,-5,-2,-3,-4,-3,-6
4237,11,3,-2,2,-1,1,-2,-23
4238,3,-1,-14,-4,0,0,7,50
4238,3,-2,4,0,-1,-2,-4,-26
4259,2,-2,0,0,-2,-1,0,1
4259,-4,-2,1,-1,-1,0,0,-2
4261,-3,-3,-2,-2,-4,-4,2,-11
4261,1,-3,-4,-2,-2,-1,-2,-19
4281,-1,-2,-12,-1,-1,3,-2,-33
4281,-5,-6,-3,-2,-1,-2,0,5
4283,5,5,6,3,2,1,1,4
4283,3,0,-1,0,-1,-2,0,0
4297,6,1,-5,-2,-2,0,1,-19
4297,-12,-5,0,-2,-3,-2,-3,-2
4298,5,3,4,1,-2,2,1,2
4298,2,1,-5,0,1,-1,1,-18
4319,0,-2,-4,-1,-3,-1,-1,10
4319,-5,-1,-4,-2,-1,-1,1,10
4320,-5,-1,6,-1,-1,-2,2,3
4320,-7,-3,-6,0,-2,-3,-5,-16
4342,-3,0,6,0,2,-2,-3,3
4342,-5,-1,1,0,-1,-2,-1,23
4342,0,2,3,2,3,3,0,-6
4342,0,-1,2,-2,-2,-1,-3,-5
4357,7,3,-8,-3,-1,1,1,-16
4357,3,-3,6,-1,1,-1,-3,8
4358,-8,-4,-11,-3,-2,-1,-6,-50
4358,-3,-2,-11,-3,0,0,-2,7
4380,-2,-1,3,0,0,-2,-3,7
4380,7,3,-6,0,3,2,7,45
4387,2,2,-4,-2,-3,-4,-7,-37
4387,-6,-4,6,-1,0,0,4,63
4402,-5,-2,2,1,0,2,0,-1
4402,-7,0,-4,0,-3,-4,-7,-28
4409,-2,-3,-13,-3,-2,-1,0,21
4409,-7,-2,14,0,-2,-3,-7,-34
4417,-9,-3,3,0,2,-3,-4,15
4417,5,2,4,-1,1,3,4,-2
4418,3,-1,-1,1,0,0,3,2
4418,-4,-1,-5,-1,-3,-2,-3,-23
4447,4,1,6,1,-1,1,3,8
4447,-1,-1,0,0,-1,-4,-3,-16
4448,-1,0,3,5,0,-2,-3,4
4448,-11,-4,-1,-8,0,0,-1,-6
4461,-12,-1,5,1,1,-1,-1,1
4461,0,-3,-7,-3,-3,-3,-1,-9
4463,-2,1,6,-1,-1,-1,4,13
4463,-2,-3,-14,0,-3,-2,-1,-8
4485,1,-1,-1,-1,-6,-3,-3,-16
4485,-7,0,-2,-1,-2,2,-1,12
4486,-2,-1,6,0,1,0,1,24
4486,9,1,-2,0,-2,-4,-5,-7
4500,1,0,2,-1,-2,-1,-2,1
4500,-4,-4,-3,1,1,-1,-6,-33
4500,-1,-3,1,-3,-3,-3,0,17
4500,-4,0,5,-2,0,-1,0,11
4522,18,2,-3,-1,3,3,3,38
4522,5,2,14,3,2,-1,6,48
4523,-3,-4,-2,-1,2,-1,2,25
4523,16,7,2,-5,-9,1,2,-3
4536,-15,-5,-3,-1,0,-2,-3,-17
4536,5,4,15,-4,-3,-2,-1,-15
4538,8,-2,0,0,1,-2,-4,-12
4538,4,0,1,1,0,0,0,4
4559,-17,-4,-2,-3,-4,-3,-5,-6
4559,4,1,-8,-2,-2,0,-2,-12
4560,-6,-1,0,2,-1,1,0,-2
4560,0,-1,1,2,2,1,0,-6
4582,-1,-1,-4,-1,-3,-1,-2,-19
4582,-2,-4,-6,-1,0,0,0,-5
4583,-5,-2,1,-1,-3,-1,-2,-2
4583,3,1,-5,-1,-2,-3,-4,-6
4596,3,-1,2,-4,-2,-1,0,2
4596,-2,-2,-4,-1,-2,-2,3,3
4604,-3,-3,-5,-2,-1,0,-1,-11
4604,-2,1,19,0,2,2,3,6
4620,-5,-1,1,-1,-1,-1,-3,-3
4620,0,-1,-2,-1,-3,-1,0,-2
4620,-6,-3,-3,-5,-4,-2,-3,-14
4620,-5,-2,-7,1,-1,-3,-2,-22
4642,2,-4,-6,0,0,0,6,39
4642,-9,-2,0,-2,-4,-2,-7,-43
4642,4,2,1,-1,1,0,2,47
4642,-9,-3,-5,0,0,-4,-5,-13
4657,15,6,2,0,0,0,1,1
4657,-10,-6,-10,-3,1,-3,-9,-20
4664,3,3,4,-1,-2,3,7,-5
4664,-6,-5,-20,-4,-2,-4,-10,-17
4679,-3,1,16,2,-6,-6,-6,-38
4679,-3,-1,-1,1,4,2,7,35
4687,-13,-6,-3,-12,-11,-6,-11,-32
4687,15,3,-11,11,22,1,8,37
4702,0,-5,5,-34,-41,-4,-1,-9
4702,-1,5,0,-1,3,-6,-4,-5
4702,1,-2,2,1,-2,0,1,3
4702,-8,0,1,-4,0,-2,-6,-26
4716,1,1,-5,15,14,1,-2,-1
4716,10,0,2,-1,-4,3,3,-14
4724,2,-2,-4,-4,-2,-2,-1,21
4724,7,2,6,5,1,5,8,-7
4739,-2,-1,-2,5,9,-1,0,10
4739,-23,-13,-22,-7,-11,-6,-21,-68
4740,32,15,32,7,7,4,17,32
4740,1,-1,9,1,-8,-3,3,50
4762,-18,-9,-11,9,4,-3,-6,-18
4762,-1,-16,-4,-6,20,2,1,6
4763,8,10,-7,-3,-28,-6,-13,-28
4763,3,-12,-7,-18,-6,-5,-2,-3
4776,0,20,7,-2,6,3,3,1
4776,3,3,-2,12,6,3,5,26
4784,-13,-3,24,16,11,2,-4,-16
4784,10,16,-13,-22,-13,-2,-2,5
4800,-1,-22,-29,-26,-3,-3,0,3
4800,-20,-47,-18,14,6,4,6,22
4800,-3,-4,-27,-6,7,3,1,19
4800,-11,-4,19,14,-1,-5,-16,-40
4822,22,104,49,22,4,-4,-4,-3
4822,12,-54,35,24,-7,3,7,8
4830,-13,2,-27,-18,-1,-2,-3,9
4830,-14,-25,-20,-5,-1,-1,-5,37
4838,-24,-12,-14,-15,-4,-2,1,-1
4838,41,51,54,26,3,15,18,-9
4844,-16,-5,-5,6,-1,-4,23,-17
4844,5,-22,-9,-3,0,-5,-15,-7
4859,-10,-70,-36,-25,-6,-6,-10,30
4859,-9,46,14,9,-3,-11,0,-17
4860,9,-1,-2,-1,4,1,0,-44
4860,12,70,-19,-10,1,8,20,-5
4882,-4,3,32,12,-3,-3,-12,5
4882,2,-8,-10,-8,-5,-5,-26,-56
4883,-7,-17,-6,0,0,0,8,80
4883,-26,8,-14,-5,-7,-3,-27,-90
4905,44,9,14,15,10,8,38,77
4905,16,42,-6,-14,-3,6,4,25
4906,0,-13,0,5,4,-2,17,-8
4906,-14,-40,-29,-19,-4,0,2,-30
4919,-50,22,45,32,10,4,-1,-51
4919,3,-23,-43,-24,-8,-7,-8,11
4920,0,8,8,-8,-10,-4,-6,-19
4920,47,29,16,13,4,-6,-5,77
4942,-14,-47,-13,-6,1,19,48,54
4942,-7,-20,-32,-24,1,-10,-7,-73
4943,-11,41,22,6,-1,1,-28,-70
4943,-13,-25,2,10,-16,-21,6,39
4965,-6,-27,-13,1,8,27,-29,-57
4965,-17,-6,4,-2,9,-36,10,28
4966,9,-44,-22,-12,-20,24,4,-3
4966,-5,3,21,1,-2,-37,-12,26
4979,-8,-22,-15,-10,-1,38,-26,-23
4979,1,-13,-27,-26,-20,-39,-1,34
4980,7,-16,9,17,21,5,18,-4
4980,-26,-22,33,34,10,42,26,-25
5001,14,1,-35,-14,-3,-51,-9,0
5001,-5,34,7,-12,6,8,-9,10
5002,47,35,23,8,-12,-9,-11,-8
5002,-13,-10,3,-13,-28,-10,-21,-12
5025,13,8,-10,1,12,-2,26,53
5025,-22,13,1,0,2,26,-10,-26
5026,-15,-25,-16,-10,19,30,19,66
5026,25,26,15,19,33,27,5,-93
5039,7,7,1,-2,-10,22,-14,-22
5039,-11,13,3,-3,-5,-7,0,18
5040,-3,-23,-2,-3,-19,-60,0,8
5040,12,-4,6,3,-16,-29,-23,23
5062,0,-16,-19,-10,-14,-45,-16,-26
5062,-4,9,8,5,25,72,-2,18
5063,-22,-2,-7,-11,6,-9,2,-9
5063,-1,-23,-13,-12,-17,34,35,17
5086,5,-11,9,9,2,-42,-20,-18
5086,-2,-22,-2,-5,-32,-5,7,20
5086,14,46,-4,0,0,-4,-55,-16
5086,-9,-21,-3,-1,24,27,17,12
5099,3,-1,-7,-8,-8,-23,9,0
5099,8,-5,10,8,-1,-4,17,11
5100,-17,-31,-5,5,3,-5,-8,-18
5100,16,-2,-5,-9,6,13,4,13
5122,-26,14,6,3,-5,34,12,-34
5122,11,-16,-10,-5,1,-5,-29,40
5122,-6,42,9,6,-16,-38,-13,10
5122,5,15,-3,-6,-4,-8,4,16
5145,-4,-17,-7,-6,4,0,13,6
5145,20,6,19,15,7,17,18,-9
5145,-4,4,-2,14,24,50,-4,2
5145,6,5,-3,-1,4,-17,-4,-30
5158,-10,6,-2,-6,-26,-21,-15,6
5158,-14,-16,-8,-16,-36,-56,-15,-10
5160,2,-14,-9,-5,11,36,10,0
5160,0,0,-7,-2,18,-6,2,-1
5190,-18,-18,16,7,9,7,6,2
5190,33,-6,27,46,21,57,18,-13
5190,6,5,-3,-7,-25,-73,-26,0
5190,-26,-11,1,-2,-6,16,-6,-12
5205,48,0,-26,-18,-6,-7,-8,30
5205,-23,-9,0,-5,-2,-12,-19,-1
5205,3,-15,-2,0,5,37,9,24
5205,-24,-5,-6,-4,-3,-43,11,13
5220,-1,7,7,-6,-8,10,3,-6
5220,31,31,-7,1,11,43,12,3
5221,2,14,7,8,0,-34,3,-36
5221,-4,-15,-11,-12,-22,-18,-20,4
5242,19,-3,-12,-3,-2,-17,-26,-7
5242,-25,19,-5,2,9,7,-2,-8
5243,-12,-24,6,4,11,24,14,-1
5243,-1,6,4,-1,2,9,15,3
5265,18,4,0,7,2,-14,-9,28
5265,-3,2,-14,-19,-12,-17,-11,3
5265,3,-14,-1,1,-1,10,2,-9
5265,-26,-5,9,12,-2,-24,-6,-3
5280,2,25,6,0,-1,36,12,-6
5280,-7,-2,-12,-20,1,-40,-4,8
5280,30,-1,1,-5,3,43,5,2
5280,25,-11,-5,0,-5,-31,-2,15
5302,-38,-9,8,3,2,2,5,-20
5302,11,17,1,16,1,-5,1,5
5302,-20,-45,-1,1,-14,-26,-17,-15
5302,1,-24,-13,-10,5,13,-12,12
5325,-4,17,4,4,9,10,8,-28
5325,-9,-26,-8,-8,-1,14,13,-14
5325,-2,-3,2,-9,0,-9,-6,-4
5325,16,12,10,8,7,18,6,6
5339,-4,-2,1,3,-10,-19,4,-32
5339,-14,-23,1,-5,-15,-18,-14,8
5340,-18,4,-12,-6,6,18,-3,-6
5340,-5,-6,3,-1,6,-9,5,4
5362,7,-14,1,0,11,9,0,-18
5362,20,21,7,4,-4,3,6,21
5363,-9,-24,-20,-31,-21,-26,8,15
5363,12,70,17,15,-1,29,1,16
5385,-10,-21,0,15,7,-17,-18,-14
5385,-2,-11,-6,-6,9,5,-5,-23
5386,1,26,8,-3,-1,-6,8,0
5386,-10,-24,-11,-14,-28,-13,-12,-49
5399,19,3,-3,5,1,18,-11,76
5399,11,0,8,9,-5,-32,8,19
5401,-28,-1,2,3,16,37,10,-23
5401,1,5,-11,-7,-5,-36,7,15
5423,-3,21,2,-2,-10,9,-10,-10
5423,-5,-25,-12,-18,5,24,-2,-23
5423,-14,-3,2,11,3,-16,-2,9
5423,24,18,2,5,-8,1,-6,9
5444,-13,-5,-2,-13,0,-13,-5,1
5444,-3,12,0,3,16,28,6,-4
5446,12,7,2,-1,-3,-6,-1,-13
5446,-35,-20,-8,0,-4,23,10,-30
5460,13,15,6,6,4,32,4,26
5460,-3,17,2,-11,-5,-61,-13,-10
5460,6,-9,1,8,-10,-29,-3,18
5460,-25,1,-3,-4,-14,-33,-27,-29
5482,1,13,-12,-18,-6,8,7,2
5482,-10,-16,8,16,6,33,14,-7
5482,7,13,0,-3,24,54,11,1
5482,10,-13,-5,-13,6,-33,0,18
5505,-6,0,5,11,-15,-4,1,-27
5505,-15,-11,-6,-2,4,-3,-1,11
5505,7,15,-7,-11,-8,-14,-4,-6
5505,8,-10,4,7,3,32,-2,7
5519,9,5,-4,-17,6,8,11,-9
5519,0,12,-2,3,-16,-66,-21,-13
5527,-4,1,-3,-6,-11,-6,-5,22
5527,-16,3,4,9,18,40,4,20
5541,-5,5,1,1,2,-4,7,-19
5541,-14,-17,-3,-10,-3,13,5,15
5543,7,27,-11,3,4,9,13,54
5543,0,-12,3,-9,-6,-15,-12,-13
5565,-13,21,5,6,-11,-46,-12,-33
5565,21,-14,-8,-14,-5,11,-3,-7
5566,16,4,7,7,1,3,7,-17
5566,-8,-10,-7,8,18,20,3,15
5579,21,23,10,11,2,8,5,27
5579,-18,-12,-1,-1,-12,-4,-7,-14
5587,9,10,6,-10,-16,-34,-17,-33
5587,6,26,5,7,20,46,17,64
5602,7,-39,-17,-7,-1,-23,1,-7
5602,-14,27,10,0,-15,-8,-4,-33
5610,-17,-27,-8,-1,-2,25,-9,-19
5610,-1,1,-5,-7,-3,-42,-11,-22
5625,-5,-2,1,3,14,12,7,5
5625,17,6,-3,5,11,12,2,15
5625,-18,-10,-3,-1,-21,-11,-9,-21
5625,2,1,2,-20,-8,-14,-5,-17
5639,-15,-30,-14,-1,4,10,4,9
5639,1,7,4,20,5,11,9,26
5647,4,-5,1,11,3,9,-9,2
5647,12,-3,0,-3,4,3,3,1
5662,0,-2,-2,-20,4,4,8,-22
5662,0,-9,1,8,-14,-4,-3,19
5663,0,6,0,6,-7,-29,-5,-9
5663,-4,-26,-4,-2,1,3,10,-33
5686,-7,-10,-1,-1,5,2,-8,-13
5686,4,20,-4,-6,-5,8,-6,-18
5686,-5,2,-1,-2,-5,-31,-21,26
5686,-1,5,0,-4,1,12,-4,-20
5699,0,-3,7,13,14,47,27,19
5699,-3,-13,6,3,-3,-38,2,-23
5706,-1,5,-6,-6,-13,-12,-5,27
5706,0,-13,-10,-8,-17,-4,-15,-17
5722,-2,10,-1,1,4,-25,-9,17
5722,4,5,3,-1,16,65,8,-38
5729,3,2,6,6,13,-21,23,2
5729,5,-1,-2,3,-10,23,9,10
5745,-9,0,-7,-5,-15,-31,-27,-25
5745,-16,-5,-3,-6,-13,-30,-6,-7
5745,-12,-13,-6,-8,-1,8,-19,-32
5745,7,10,7,11,27,45,20,81
5767,1,1,1,3,-3,-1,20,-15
5767,-7,0,-14,-15,-7,-20,-6,21
5768,-3,-1,13,-4,2,38,-7,-3
5768,12,16,-8,3,-18,-79,-6,-23
5782,-13,4,-5,5,-12,4,-19,-5
5782,4,-14,-1,-1,20,45,9,25
5783,5,-2,-1,-6,7,-3,5,-12
5783,0,12,5,-7,9,24,-5,-18
5805,3,2,-1,-2,-30,-26,7,19
5805,-5,-14,-7,-8,-11,-55,-23,-5
5805,-2,-19,-1,3,-10,-25,-6,-8
5805,15,1,5,-2,3,17,-6,21
5819,6,-4,-8,-4,21,7,12,-24
5819,7,23,5,3,19,61,20,77
5826,-6,-4,-6,6,-1,-22,2,-22
5826,-1,-5,2,-1,-28,-16,5,-13
5842,-2,-7,-1,-10,-11,-17,-30,7
5842,0,-24,0,4,1,1,-1,-14
5843,5,7,-3,-7,18,-7,10,4
5843,-9,-9,-2,3,-13,-5,0,-3
5865,3,1,1,2,-12,-10,-11,-7
5865,-10,-13,-2,0,12,3,10,-14
5865,6,-5,-12,0,23,77,17,31
5865,4,21,8,10,4,-42,12,-13
5888,0,4,4,-2,-8,15,-15,4
5888,-3,0,-7,-1,-28,-65,-17,-25
5888,10,-9,-1,1,-9,13,2,67
5888,-8,7,0,-1,22,22,-14,-70
5902,2,-2,2,0,23,36,22,51
5902,1,3,-1,-9,-6,-10,-1,-12
5903,-5,-9,8,1,-29,-12,7,-22
5903,-1,24,-10,-11,-9,-30,-25,-1
5933,7,0,5,11,31,38,5,-12
5933,0,-3,-1,-6,5,-6,13,-4
5934,-2,3,-6,-10,-27,-83,-12,-11
5934,-10,-28,-10,-7,-9,7,-9,15
5948,5,30,10,4,0,-4,-16,-32
5948,1,-10,3,5,15,33,5,44
5948,-5,5,-4,-5,2,44,37,-13
5948,-7,-24,-7,6,3,5,-16,-23
5961,4,28,1,-7,-7,-77,-8,65
5961,-4,-1,0,-5,-38,-42,-25,-32
5963,-2,-1,-2,-3,14,10,-13,1
5963,-2,-9,4,-1,12,49,30,20
5984,-3,-15,-4,2,26,53,10,-8
5984,-6,-23,7,12,11,11,13,7
5993,1,4,-3,2,-31,-62,-6,-26
5993,-4,-1,-6,-8,-25,-38,-23,47
6008,-5,-22,-5,-5,-3,-15,-19,-21
6008,-4,-2,-3,1,12,27,2,-27
6008,-2,1,1,-13,22,56,14,-3
6008,10,5,6,14,15,10,18,5
6021,-8,-16,-6,-2,-34,-71,-12,-6
6021,-2,13,-1,-5,-11,12,-4,-25
6038,3,-3,0,2,16,18,-9,57
6038,-5,5,3,-7,-4,-26,9,-17
6046,5,-3,-2,-2,1,31,11,-3
6046,1,7,0,6,5,-15,-16,-39
6046,-5,4,0,3,7,80,9,-21
6046,2,-1,-3,-12,-20,-85,-7,10
6066,-7,4,2,2,-5,-12,-1,-2
6066,1,0,1,-1,-1,-7,-6,8
6074,0,-1,-1,6,5,8,-4,-8
6074,-2,-6,1,-4,-1,44,3,6
6082,-2,-1,-1,0,-2,-11,11,-23
6082,2,0,1,-6,11,16,5,39
6083,0,5,-4,7,19,16,-3,-12
6083,0,-23,7,2,-11,-30,1,-7
6112,-2,0,-7,-7,-43,-17,2,-2
6112,0,-1,-7,-5,6,-27,-24,-27
6113,8,10,4,3,1,15,2,-7
6113,-5,5,-1,-5,16,7,5,-9
6127,-2,-12,-7,-8,2,25,2,7
6127,-11,-17,-3,7,-7,-2,8,-2
6128,6,22,2,3,3,-28,6,20
6128,-3,8,3,-3,2,12,-5,-17
6141,-3,-16,-6,-1,-15,-12,-17,-4
6141,-2,-15,-5,-13,-9,-3,13,5
6150,-4,4,3,14,14,-5,-9,-29
6150,3,0,-1,3,-4,42,-3,31
6172,-3,-7,-2,-2,6,-20,-3,-6
6172,5,8,-6,-10,2,14,0,30
6174,-12,-10,4,-8,-8,-19,8,-1
6174,11,14,1,11,11,1,3,-5
6188,0,0,-5,1,-9,-2,-6,-13
6188,4,8,-3,-1,-12,-13,-7,5
6189,-4,-5,-1,-5,-8,-17,-8,-19
6189,-9,-7,-10,-12,10,27,-1,-9
6201,5,7,6,4,24,33,11,19
6201,2,-6,7,19,-4,-34,9,-14
6210,10,35,-1,-8,-30,-39,-28,34
6210,-10,-20,-5,2,-19,12,-3,-19
6225,4,6,0,-1,24,11,16,0
6225,-4,7,2,-6,2,51,12,-3
6233,-2,-15,2,10,-1,-26,-4,-11
6233,-4,-10,-7,-4,-7,-29,-14,-9
6247,-3,-11,-4,-7,-12,-3,1,7
6247,-2,8,-4,-5,2,14,-18,-21
6249,-3,-15,2,10,19,-9,14,-35
6249,7,15,5,6,19,64,10,74
6262,-9,-19,-5,-12,-34,-73,-5,-6
6262,2,1,-2,-4,-4,5,8,10
6270,-2,-14,8,3,-5,10,-3,-36
6270,1,15,-1,17,7,4,-11,4
6292,4,5,3,-5,0,-2,-7,-4
6292,3,-6,-1,-2,-8,0,3,14
6294,0,0,-12,-14,5,25,0,-5
6294,-3,-7,9,-1,15,-13,20,-20
6308,0,1,2,9,-11,3,-8,-5
6308,5,23,-4,-10,-10,-10,-24,-8
6309,-2,-19,-9,-5,-3,-18,-3,-20
6309,-1,4,-3,-13,-4,-1,-9,-20
6321,-4,-11,4,12,9,19,16,16
6321,-1,-1,3,12,17,42,7,-6
6330,-4,0,-3,-2,-5,-43,-10,30
6330,4,-3,-4,-7,-12,-17,-12,-9
6353,-5,7,-3,-13,-5,17,9,-14
6353,3,-2,-3,10,4,-7,2,8
6355,-5,-10,-2,-1,-17,5,-11,10
6355,-2,-1,-1,5,1,-28,-4,-31
6368,0,-1,0,1,12,9,-9,-3
6368,5,3,1,0,12,-14,8,6
6369,3,0,0,-10,-5,18,10,35
6369,-1,9,5,8,-29,-14,11,-2
6381,0,4,-10,-1,2,-8,-25,-49
6381,-1,5,4,2,11,16,9,26
6398,-7,-5,0,-1,8,26,6,-20
6398,-3,-15,-1,-5,-17,-56,-15,5
6405,-1,20,0,-1,7,13,-14,-16
6405,5,-12,-7,-7,2,6,15,28
6406,-5,2,-2,-6,4,12,8,9
6406,14,16,2,6,18,84,12,11
6428,0,-1,7,14,1,-14,11,-7
6428,-12,-25,-4,2,-35,-93,-42,46
6428,-2,2,-3,-7,5,12,2,-22
6428,-3,-2,-2,-4,-7,-11,-7,-9
6442,-3,-2,-3,-12,15,44,-7,14
6442,-4,6,7,2,11,-15,25,-13
6450,3,-4,-5,-2,-14,-8,-3,3
6450,-2,8,-2,2,-5,-16,-14,-12
6465,3,-3,1,2,2,1,4,66
6465,5,6,0,-6,1,15,3,-24
6466,0,-3,-1,4,19,64,8,8
6466,3,7,3,-9,15,-35,8,-1
6488,-9,-27,-8,-13,-41,-50,0,-39
6488,3,-1,-2,15,-21,-24,-30,62
6494,-2,3,5,7,14,9,-1,-36
6494,2,-5,-5,-2,12,8,11,13
6501,-10,-12,-4,-5,-4,15,-4,-24
6501,-1,22,1,-13,-5,-23,-4,-10
6509,12,10,2,5,2,-7,-2,0
6509,-6,-8,0,4,15,54,17,3
6532,0,7,3,-4,-11,-29,-1,7
6532,-9,-16,-7,-11,-19,-47,-25,-75
6535,1,0,-5,6,-7,-26,-11,41
6535,-2,-1,0,-3,14,23,1,-23
6548,5,8,4,8,7,33,15,23
6548,-9,-5,-8,-16,-9,16,4,-36
6549,-5,-16,-10,-19,-5,-20,-11,12
6549,1,8,4,25,4,5,2,6
6561,-5,-6,3,11,8,21,2,-21
6561,5,8,3,-1,7,-23,2,-1
6570,-2,-1,1,-18,-34,-35,-14,-6
6570,-8,-19,-11,-5,-7,17,-3,-29
6585,13,28,3,1,21,24,-5,40
6585,0,-1,4,10,5,15,15,-6
6586,-4,7,0,-2,-16,-45,-1,2
6586,-9,-8,-5,-13,-5,0,-23,-46
6607,7,6,1,2,-2,-14,14,67
6607,-3,-17,-1,6,9,23,10,-2
6610,7,11,1,8,26,71,4,-19
6610,-6,-11,4,-1,-20,-49,1,13
6630,1,3,-7,-11,-3,-12,-4,-51
6630,2,16,2,1,-3,15,-2,54
6632,1,-7,2,11,8,53,11,8
6632,4,9,-3,-4,-3,-47,-15,15
6644,-9,-19,-1,-1,-11,-34,-12,-51
6644,6,32,3,-4,6,40,6,-21
6647,-7,10,-3,0,1,-8,5,-9
6647,8,-11,-5,-3,-14,-5,-10,33
6668,-6,-6,2,4,13,4,3,-17
6668,-6,-15,-4,-7,-2,13,-1,-16
6669,-5,-2,5,2,18,55,5,10
6669,4,7,0,-8,-8,-77,4,20
6680,-2,-5,-1,10,-19,6,2,12
6680,-8,-14,-7,3,3,0,-22,-30
6698,4,-2,2,-1,-2,-23,-10,55
6698,-5,-1,-1,4,19,41,13,2
6705,2,5,1,-4,5,9,9,2
6705,-11,-31,-5,-13,-22,-35,-6,-2
6711,7,3,-4,-1,-16,-31,-4,-64
6711,0,-4,1,0,22,34,-2,-1
6736,2,6,2,3,11,2,13,27
6736,-1,-6,-2,5,-23,-41,-9,-29
6737,-13,-18,-12,-23,-14,-22,-5,-5
6737,4,8,14,18,-2,1,-15,20
6740,-6,-17,-3,7,8,11,5,-33
6740,4,15,4,0,17,38,9,8
6765,-6,-7,-4,-1,-9,-16,-6,-5
6765,-6,6,-7,-7,-13,-10,13,9
6766,-5,-15,4,-9,7,20,0,-19
6766,5,1,-6,-5,-10,-24,-12,-4
6768,5,6,10,-3,-22,-46,-15,-29
6768,2,17,-5,14,26,48,10,26
6788,-4,-3,1,2,-4,-26,-8,-19
6788,4,-2,-1,-3,-18,-2,21,73
6789,-4,-1,-3,-1,5,-13,-9,-3
6789,7,-5,-4,-5,-5,-1,-3,-30
6809,-1,5,-5,-6,7,30,0,10
6809,-4,4,6,0,3,-13,3,-11
6812,5,14,3,-1,-7,-22,-2,8
6812,-6,-33,-8,0,-3,28,8,11
6825,0,13,-4,0,6,-14,-29,-15
6825,-1,-1,-3,-4,21,66,17,39
6827,-3,-8,2,6,11,-8,10,-23
6827,-2,6,4,3,-44,-68,-10,-33
6847,0,-2,-5,-10,-13,-26,-12,12
6847,-7,-8,-8,-6,-1,-3,-6,-18
6849,-6,-8,1,5,20,45,14,5
6849,18,11,1,-6,7,20,12,-1
6870,-8,-5,-2,0,-17,-16,-17,-1
6870,0,7,2,4,6,-7,-11,-7
6871,-3,-8,-7,0,12,23,19,25
6871,-16,-6,-6,-15,-16,8,-6,-54
6886,16,9,2,11,8,-18,13,95
6886,-5,-7,-9,1,-3,-28,-10,-28
6887,-8,-22,-6,0,-31,-22,-28,-32
6887,4,15,1,-6,12,16,1,-1
6908,-5,-8,-2,-15,-1,15,3,-22
6908,5,7,2,9,12,40,13,5
6909,2,2,-4,5,0,-54,-1,23
6909,-10,-17,-3,-5,-14,4,-3,3
6930,1,13,-3,-20,3,7,2,-32
6930,4,-3,6,17,9,12,1,35
6932,1,-4,4,6,2,4,-3,3
6932,-6,-12,-5,0,5,26,2,7
6945,-1,-3,-2,0,-7,-22,1,-17
6945,-6,-1,2,-7,-14,-23,-12,-25
6946,0,-4,-5,-2,17,76,2,-10
6946,10,27,2,4,14,-67,0,31
6982,-1,-5,-1,-5,-25,0,-14,-37
6982,-5,4,-3,-10,-20,-4,1,-16
6984,-5,0,0,0,12,15,2,-30
6984,-2,7,4,0,0,-1,7,34
6990,0,-14,0,6,-2,-2,-9,6
6990,5,-4,-3,-3,11,-9,-3,-13
6996,1,12,4,8,-4,-7,3,-3
6996,-6,-7,-4,2,2,17,-4,-21
7013,-3,-9,0,4,-5,-19,2,17
7013,2,-8,1,-6,1,18,5,-6
7014,0,-9,-4,-8,8,3,16,18
7014,7,18,-2,-1,3,-19,-19,-50
7026,-7,2,0,-1,-18,-8,4,31
7026,-3,-3,-3,-11,-26,-32,-27,-4
7042,3,2,-3,1,-11,-53,-14,10
7042,-1,-8,2,9,28,77,18,10
7050,1,11,1,0,23,18,16,-29
7050,-1,7,-4,-8,-5,8,2,34
7051,-1,10,0,0,-36,-53,-12,2
7051,-7,-16,-1,-7,-8,-14,-16,6
7064,-2,-3,-2,4,18,49,6,-37
7064,7,-2,3,12,38,30,34,61
7071,0,13,0,-7,-18,-26,-9,-1
7071,-4,-11,-7,-13,-29,-18,-35,0
7088,-4,3,2,-13,-17,-40,3,1
7088,6,15,1,12,11,5,2,-12
7089,0,-12,-4,8,17,30,6,20
7089,-2,-2,0,-2,-8,-21,-11,-9
7110,-4,-17,-3,-2,0,21,0,4
7110,2,-2,0,-9,-5,-5,7,-20
7111,-1,-2,-2,2,4,-10,9,-8
7111,-2,11,5,5,5,28,9,-21
7124,1,2,-1,6,-4,-19,-12,16
7124,-8,-7,-6,3,3,55,-7,-25
7131,2,-4,-4,-14,-19,-85,-4,5
7131,-2,-15,-4,-5,-12,-2,6,3
7147,6,21,1,6,13,14,-12,-5
7147,2,11,7,0,5,-3,9,26
7148,1,26,-1,-3,-2,40,-1,-13
7148,-2,-4,-4,9,1,-20,-6,-2
7170,1,6,4,5,9,-16,9,-1
7170,1,-9,-2,-3,-14,-23,-7,10
7172,-8,-9,-4,-17,-9,-2,-3,-3
7172,-4,-12,-2,-3,-5,3,10,-18
7185,6,7,5,14,12,32,1,19
7185,-5,-5,1,2,18,11,5,-30
7191,0,-7,3,3,-14,-40,-9,19
7191,-10,-7,-5,-16,-23,8,-16,-17
7208,-6,-14,-7,-4,15,8,-1,2
7208,10,22,3,4,1,0,14,3
7209,0,4,-4,-9,2,49,-4,-32
7209,-2,7,5,7,-1,-46,-7,21
7230,-5,-12,-7,-1,-13,-13,-14,-6
7230,-8,-7,-1,-1,-6,5,-1,-23
7232,0,-4,-4,-6,7,-7,5,-8
7232,1,6,-1,5,10,31,13,10
7245,-9,-20,-2,0,-2,25,11,18
7245,9,7,1,-2,-15,-57,-10,-35
7267,3,-4,1,5,16,20,-14,9
7267,-3,-9,-3,-3,-3,-8,8,20
7275,3,12,0,-14,-13,-17,-10,-26
7275,-12,-13,-10,-11,-24,-25,-18,-14
7291,0,-6,1,5,1,9,3,46
7291,5,5,8,12,14,-5,12,10
7291,-2,-4,-2,3,11,6,4,-21
7291,-4,-6,-4,-5,-6,-6,-5,-8
7294,1,-1,1,-6,-15,-7,0,-1
7294,-4,-3,-5,-14,5,-5,-4,-57
7307,4,15,3,11,-1,12,10,7
7307,1,-5,2,7,11,16,-3,4
7313,-6,-1,1,1,12,20,7,-5
7313,-9,-25,-2,0,-15,5,-7,-11
7335,20,18,-5,-13,-12,-58,-10,56
7335,-2,2,5,8,-1,0,-1,6
7342,-5,-7,-2,5,6,33,1,-16
7342,-3,2,-1,-5,13,42,13,11
7350,-3,-1,-1,-16,-20,-49,-1,9
7350,-1,-4,-3,7,6,16,-12,-13
7351,1,-9,-1,6,13,5,12,7
7351,1,9,4,3,2,13,-1,-3
7364,-4,-8,-2,1,-13,14,5,-19
7364,0,-1,-4,-10,4,-53,-9,-4
7373,-3,6,4,-2,-20,-12,-17,0
7373,1,4,-2,1,3,-11,-5,9
7386,-8,-24,-5,-2,-3,0,-6,-24
7386,4,26,2,-1,4,51,17,12
7396,3,2,0,4,20,-27,2,-3
7396,2,5,2,-5,-29,-49,-2,3
7410,-7,-1,0,-3,-4,18,-8,9
7410,-4,-24,-8,-1,22,21,-6,-20
7411,16,26,-1,10,-11,-6,15,39
7411,-1,-5,6,8,-17,-10,-20,25
7433,4,-3,-2,2,12,-20,-2,20
7433,-3,-7,-1,-2,10,44,14,22
7439,-4,-7,-1,-4,15,21,7,-36
7439,5,2,-1,-3,-17,-23,-5,-2
7448,-6,2,-1,-4,-8,-9,-3,5
7448,-1,0,1,-5,-3,-27,-2,0
7449,-2,-26,-6,-7,-5,31,-5,0
7449,4,24,-4,-4,24,-13,12,-18
7479,-1,-4,-1,6,-6,-1,7,-20
7479,1,3,0,-6,-39,-41,-34,-11
7481,-5,-15,-1,3,0,11,3,8
7481,1,-5,-4,-6,14,-11,3,12
7483,3,30,8,2,31,56,9,-13
7483,-1,-18,-3,3,-12,-4,3,-10
7493,-6,3,0,-3,-16,-23,-18,-10
7493,-4,-11,-3,-1,-2,13,-7,22
7508,0,3,-1,1,8,0,2,-11
7508,1,-6,0,-4,-1,29,18,51
7509,0,3,1,1,-6,-43,-14,-5
7509,-6,0,-8,-11,10,17,9,-1
7530,-3,-19,0,2,2,19,5,-18
7530,9,-9,4,18,-4,-12,-1,46
7531,-5,1,-4,-6,-23,-44,-20,-6
7531,-3,-6,-1,-5,-11,-24,-8,-4
7544,-7,-8,-6,-6,2,24,0,-4
7544,-4,-9,-2,1,27,80,18,-27
7553,7,34,10,6,13,-46,14,3
7553,-5,-7,-2,-2,-19,-12,-19,-30
7567,0,-25,-9,-8,-23,-28,-21,68
7567,7,6,-1,-5,5,-13,4,-29
7569,-6,-7,-5,-5,7,39,9,-6
7569,0,5,4,9,7,23,7,-1
7590,-5,5,-5,-6,5,-8,14,-8
7590,-3,-1,3,1,-2,-6,-2,-12
7592,5,4,0,6,-10,-8,-15,11
7592,-4,-8,-5,-4,-10,-13,-6,-12
7603,2,0,0,1,3,9,9,5
7603,-10,1,-7,-10,-6,12,0,-3
7620,0,0,2,-3,9,-24,-3,-20
7620,-2,-2,1,0,3,15,-9,-29
7628,9,1,-2,-5,-17,-22,1,28
7628,-4,1,-2,-4,1,-13,-8,-7
7630,-7,-3,-2,5,4,21,15,-7
7630,13,16,2,-1,1,4,-10,-3
7650,-2,2,8,3,7,14,7,-16
7650,-1,2,-4,-7,-1,-20,1,-7
7651,-2,-6,-2,1,-5,48,3,15
7651,-8,-14,1,3,-2,-64,-4,-38
7664,5,13,4,3,-1,7,-3,36
7664,-5,-15,-9,-9,-4,-15,-10,55
7673,7,25,5,5,4,11,-5,-10
7673,-1,-10,-3,1,7,36,15,16
7687,-3,-1,0,-2,-2,-13,-9,-25
7687,-10,-1,2,2,-12,-40,-14,-18
7695,1,-11,-3,-12,2,3,5,12
7695,2,-1,-2,-2,-4,15,6,4
7711,2,5,-1,4,5,-2,-7,31
7711,-5,1,-2,-3,-7,-12,-5,-15
7713,-3,-9,-6,-9,1,37,5,-8
7713,2,-2,4,3,2,-17,7,15
7723,2,5,-3,2,-8,-16,-14,-22
7723,-2,-9,-3,-1,-6,6,6,4
7733,-4,-12,-2,-2,-1,-4,-8,-9
7733,4,4,-3,-1,6,19,5,12
7746,-5,-6,-2,-4,2,10,8,-30
7746,4,12,0,1,6,-20,-11,34
7753,2,-7,0,-6,-26,-5,20,58
7753,-6,-4,-4,-2,6,3,-7,9
7770,7,4,4,8,6,-10,-3,-5
7770,0,3,4,9,4,3,3,-23
7776,-7,-9,-4,-4,-17,-33,-8,-18
7776,0,3,-3,-7,-12,-11,-21,7
7792,-7,4,-3,-3,4,19,5,-16
7792,4,-7,4,4,14,16,8,-6
7794,6,15,3,7,23,83,8,-3
7794,-1,-2,-1,-2,-23,-54,9,3
7807,-4,-2,-4,-9,-8,6,-20,-7
7807,-10,-17,-6,-9,-8,-34,-8,-20
7814,4,0,1,1,-9,-21,-9,-4
7814,6,22,0,4,20,40,9,15
7830,-2,-9,-4,-4,8,9,1,-3
7830,5,11,6,3,-11,4,12,-15
7832,-6,-12,-6,-5,-8,-27,-7,38
7832,1,4,3,-1,7,5,-7,-51
7852,-1,-2,-2,1,-3,-16,9,29
7852,1,9,-1,0,7,35,0,-10
7855,0,-2,-3,-6,1,-60,-3,5
7855,-1,-10,-1,3,-23,-13,6,1
7867,-6,-14,-3,-3,-5,5,-18,-15
7867,-5,-8,-2,-1,4,-4,-3,-9
7874,-2,-2,-1,-2,6,13,-4,-11
7874,-5,-3,4,2,13,41,10,-2
7906,4,-2,-2,-1,-12,-30,3,35
7906,-7,15,0,-4,-5,-8,-6,-14
7907,17,36,6,22,21,17,6,56
7907,-6,-20,-1,7,-4,-21,-11,9
7920,1,-4,1,0,-11,-10,-7,-19
7920,3,10,-1,-6,-2,-5,-4,-12
7921,-8,-3,-5,-10,5,34,9,-19
7921,-2,-14,-4,-9,1,-14,-7,2
7926,5,23,3,-4,-20,-29,-2,-14
7926,1,-7,-5,-6,-11,-24,-14,8
7935,-9,-12,-1,2,18,41,-2,-27
7935,-2,2,0,2,0,-24,9,16
7950,-5,-8,-4,-4,0,12,-8,-14
7950,9,8,0,1,3,4,1,-8
7952,1,-5,1,1,-1,14,5,-32
7952,-4,-5,-3,-7,-6,-12,4,-3
7972,-4,-1,-3,-5,-1,-11,-2,4
7972,-1,-5,3,2,-1,4,-3,6
7974,-5,-4,-1,7,-4,-6,0,-13
7974,-6,-32,-10,-9,4,24,-5,8
7986,18,33,8,11,18,8,5,-3
7986,-6,-11,-5,-4,-16,-20,0,-3
7995,-5,-11,-3,-11,-8,-4,-10,-11
7995,2,8,1,2,-8,-25,6,10
8009,-8,-14,-7,0,0,8,-10,-5
8009,1,12,1,-2,9,28,-12,11
8017,9,9,2,-6,-12,-64,8,-8
8017,7,30,4,4,-9,6,-16,3
8033,-5,-12,-3,3,9,12,11,-3
8033,-2,0,1,4,3,16,9,8
8034,-9,-11,-12,-15,-5,-20,-8,-16
8034,1,-15,5,4,14,40,8,18
8046,3,17,4,13,11,58,13,-6
8046,-1,-9,0,1,-12,-69,-3,10
8056,-8,-10,-4,-5,-7,-7,-22,-6
8056,2,4,-4,-7,1,7,-2,-6
8070,-10,-10,-2,-5,-5,2,7,-16
8070,4,7,-4,-5,2,16,5,44
8072,11,7,4,9,15,54,13,59
8072,-3,-6,1,3,-14,-51,2,11
8092,-4,-3,-2,-3,-13,-22,-8,-19
8092,-2,0,-4,-4,5,12,-3,-13
8100,-5,-8,-1,-3,-5,-16,-7,-24
8100,-1,7,-2,4,19,64,7,13
8106,-3,-33,-4,-6,-1,-24,9,11
8106,5,-3,-4,-5,-8,-4,3,-12
8116,-4,-3,9,8,-8,5,-18,-8
8116,4,6,0,3,7,-4,5,-16
8130,-9,-14,-5,-6,-16,-16,-13,-11
8130,-2,-7,-4,-8,1,-9,-1,-12
8132,-5,-4,-1,-6,7,37,6,-9
8132,-9,-7,-3,1,2,-11,-2,-5
8153,6,-8,-6,-1,4,-9,2,4
8153,3,13,13,12,1,5,6,-8
8154,3,12,-4,-4,-19,-32,-9,13
8154,-3,7,-2,-5,1,22,-10,-11
8175,-5,-5,-2,-2,4,-4,11,18
8175,0,-4,-1,3,5,22,1,-8
8176,0,-4,-3,-8,-4,-22,-4,-14
8176,0,-13,-5,-6,-8,-7,-6,4
8190,-1,9,1,1,2,7,3,8
8190,4,0,0,7,3,-4,-4,4
8191,3,9,1,2,-1,-6,6,5
8191,-10,-3,-2,-5,-1,0,-13,-18
8213,2,2,-3,1,22,100,5,2
8213,-7,-18,1,-5,-19,-103,3,-10
8214,6,4,-3,3,-6,0,-9,-2
8214,-1,-13,-7,-5,-16,-31,-21,-41
8226,13,14,11,2,-7,-9,-4,8
8226,-11,-13,-7,-3,13,50,3,-15
8235,-2,1,1,1,7,-2,11,6
8235,-7,-2,-1,-4,-3,-4,10,-4
8249,-2,-19,-8,-1,0,-9,-7,-2
8249,1,62,13,8,-1,14,0,10
8265,-3,-12,-1,2,-3,-14,-2,-20
8265,20,23,8,5,3,9,9,21
8273,-14,-13,-9,-7,1,-16,-11,-14
8273,1,-2,-5,-5,-16,-36,7,12
8274,-8,0,-3,-1,0,6,-9,-42
8274,3,4,-2,-2,-3,8,5,36
8295,-3,3,2,1,0,-1,4,-1
8295,1,-31,-7,-7,3,21,-5,22
8296,-12,25,4,2,-3,-7,1,-6
8296,11,12,-3,-1,5,24,5,-9
8310,2,0,7,3,-4,-52,-17,-2
8310,5,23,3,4,3,27,4,15
8311,-5,-21,-5,-4,1,15,8,-7
8311,-17,-11,-7,-8,-3,-11,-1,7
8340,-16,-13,-8,-6,-11,2,-1,-4
8340,27,9,-1,-1,-4,-27,-7,-4
8341,-5,47,22,7,1,0,-2,15
8341,10,43,2,-2,4,3,6,-19
8346,-10,1,-1,-7,0,0,1,-5
8346,-24,-41,-5,5,0,15,-2,-10
8355,16,-9,-7,3,-2,-11,1,-8
8355,2,-11,1,1,-1,-11,-9,16
8370,-15,6,-8,-9,-5,22,9,18
8370,-9,-49,-18,-5,-1,-18,-4,0
8372,25,-9,4,6,3,-16,-2,0
8372,13,-1,12,7,1,11,-8,-12
8395,14,51,7,3,-3,-9,-7,-12
8395,-12,-4,-4,-4,1,25,1,-2
8396,-15,-27,-14,-8,-2,-6,-3,8
8396,-11,-19,-7,-3,-5,-12,0,3
8417,21,25,-1,0,2,4,23,26
8417,7,-11,8,8,2,0,-10,-50
8418,18,31,4,-3,-1,-2,8,76
8418,-8,-11,-3,-3,-3,-2,-6,-1
8430,-15,-3,-1,-1,-2,-8,-11,-38
8430,-2,0,-11,-15,-2,0,2,38
8431,-2,-16,2,1,3,3,3,-16
8431,-9,-35,-9,-2,4,5,1,5
8453,19,45,26,19,4,-7,1,-6
8453,-15,-9,-3,0,-2,-2,-11,-9
8454,9,-5,-4,-7,-2,4,-7,-4
8454,-4,-13,-5,-4,-3,0,3,-12
8466,-12,-30,-9,-6,-5,-11,-9,-10
8466,6,4,-6,-9,-3,-1,4,12
8477,-16,-2,-2,7,1,0,-3,-3
8477,-8,-18,-3,-2,-2,-5,-2,-12
8499,3,-14,-5,1,-2,-6,-7,-11
8499,-3,2,4,1,1,7,4,47
8500,-12,-20,-10,-8,-3,0,2,-13
8500,-11,7,-3,0,-1,1,4,-3
8513,-7,-38,-6,-2,-1,-2,0,15
8513,11,0,2,4,-1,-1,-12,-30
8514,-16,-20,-3,1,-2,-2,0,-7
8514,14,27,9,7,0,3,4,8
8526,-3,6,0,4,1,2,-1,-25
8526,-8,-20,-7,0,0,0,-5,23
8535,-6,0,-7,-4,-6,-5,5,-5
8535,-20,-44,0,3,-2,-3,1,2
8549,21,59,-3,-2,-4,-8,-6,3
8549,7,16,8,6,0,3,5,-5
8556,-2,-23,-4,-3,-4,2,-6,-21
8556,6,70,2,-8,-1,-3,-8,-12
8573,-5,-30,-9,-5,-2,-3,-1,11
8573,-18,-23,-5,-4,-4,0,-7,6
8575,16,27,4,6,0,-5,-2,-6
8575,3,-8,9,5,5,1,3,-7
8596,-1,-17,1,2,1,2,-1,0
8596,-10,14,-6,-5,0,1,0,-42
8597,-15,-22,-10,-9,-2,4,6,39
8597,14,-5,0,-1,-2,-2,3,5
8609,2,-2,-2,2,1,-8,-8,6
8609,-10,-6,0,-3,-3,-6,-1,-17
8616,28,59,15,6,-2,-2,-9,4
8616,1,2,-4,-3,-3,4,-4,-32
8632,-8,-32,-5,-4,-1,6,3,-4
8632,7,13,0,-2,0,6,14,17
8633,0,-7,-1,-3,-2,-8,-3,-13
8633,-6,0,-7,-10,-7,-7,-5,1
8646,-8,-21,2,1,0,2,-2,-8
8646,-4,15,-3,0,-4,-13,-13,-9
8655,-2,1,-2,-4,-1,4,5,-5
8655,-6,-7,0,2,-1,-2,-1,3
8670,1,-7,4,1,1,0,1,3
8670,-1,-2,1,-1,0,4,4,-6
8676,-1,-14,-4,-3,2,1,-2,-18
8676,-2,13,-2,-1,1,-3,1,46
8691,2,8,0,-2,-1,3,5,7
8691,-9,-1,0,0,-3,1,-4,-9
8700,-28,-49,-23,-16,-3,-4,-4,-8
8700,25,63,16,12,4,4,7,4
8714,16,8,8,8,2,1,4,9
8714,-2,3,0,0,0,-3,-8,-16
8717,-11,-11,-3,-6,-6,-6,-5,-18
8717,-12,-25,-15,-10,-6,-3,0,10
8730,-10,-3,0,0,-1,-3,1,6
8730,15,5,2,5,1,2,-5,-9
8737,1,-4,2,2,1,2,-2,-1
8737,-4,-7,-3,-4,0,-1,-2,-4
8752,3,6,-3,-7,-3,-3,1,1
8752,3,-3,-2,-1,-1,3,3,4
8754,-5,-9,-6,2,0,2,2,18
8754,9,-11,4,-1,-2,-1,-2,-9
8775,1,3,2,0,-1,-2,-5,0
8775,0,1,2,-2,0,0,4,3
8777,-3,7,0,0,-1,-3,-2,0
8777,-6,-20,-7,-1,-1,-3,-3,-4
8789,-3,-8,-7,-4,-2,-3,0,1
8789,8,7,2,-2,-2,-1,2,2
8797,7,20,4,3,1,2,-2,1
8797,-6,-8,-2,-1,-2,-2,-8,2
8813,-1,12,3,-1,-2,-1,-1,-6
8813,6,1,-7,-4,-1,0,1,0
8815,1,2,9,7,3,0,3,7
8815,-6,-7,-4,-1,0,-1,-3,-9
8835,-10,-6,-8,-3,-3,-3,-4,-10
8835,2,2,0,-1,-1,-3,-1,-4
8837,3,4,1,-1,0,0,0,-1
8837,2,-4,-1,0,1,-1,1,5
8848,-2,-5,-3,-2,1,0,-3,-6
8848,-3,-6,-2,-2,-3,-2,1,2
8858,-3,-1,-1,-1,-2,-1,-5,-8
8858,0,1,1,1,-1,-2,1,8
8873,-1,-4,-4,-2,-2,-4,-7,-21
8873,5,6,2,2,2,1,12,59
8874,1,1,-1,1,0,-1,1,0
8874,-4,-7,-3,-2,-2,-1,-2,-9
8895,4,3,-8,0,-2,-1,0,0
8895,-1,1,21,8,-1,0,-1,-10
8897,0,-7,-1,-4,2,-2,-4,3
8897,-9,-2,0,-9,-2,2,-3,-19
8908,-1,-1,2,-2,-1,2,2,9
8908,-2,-1,-7,-1,0,1,-3,-15
8918,-5,-5,-5,-3,-4,-1,-4,-7
8918,-6,-2,0,2,-2,-6,-16,-68
8933,6,5,2,1,3,7,29,106
8933,-2,-3,-15,-4,-4,-2,3,45
8934,-15,1,16,4,-6,-9,-10,-75
8934,23,-5,-7,-3,-2,-7,-7,26
8955,-3,20,-5,5,1,3,12,-33
8955,13,7,40,3,3,13,11,36
8956,1,-10,-15,-4,-3,0,5,-37
8956,0,2,2,-3,-3,-7,6,97
8968,1,-2,14,2,7,-4,-8,-24
8968,4,6,-11,-5,-11,-4,-4,-20
8978,-2,1,-3,-6,-2,0,-7,-20
8978,-11,-5,-2,-4,-1,-2,-6,-18
8992,5,-3,-1,0,-2,-5,-4,-4
8992,-14,0,-7,5,5,0,-8,-32
9000,6,-5,-3,2,-1,-1,-4,24
9000,5,2,-3,4,-3,-1,3,-8
9015,3,-3,0,1,1,1,4,1
9015,-2,-5,-6,0,-1,-4,-8,-38
9016,2,-1,-5,0,-1,1,12,109
9016,-12,7,4,8,8,11,1,-50
9038,32,4,2,-4,-6,-1,2,-18
9038,1,-6,-7,-8,-2,-6,-3,-9
9039,-5,0,0,0,6,3,0,5
9039,-3,0,-5,-3,2,3,10,9
9052,-11,-11,-6,-6,-4,-4,-15,-3
9052,0,-3,-7,-2,-2,-3,3,6
9054,4,1,-2,1,-2,-2,2,3
9054,-3,-3,-2,-1,-3,-2,1,19
9075,-17,-6,-3,-2,-4,-4,-22,-21
9075,-1,2,0,0,2,-3,20,-11
9076,-17,-7,-3,-2,-2,0,10,40
9076,3,-1,1,-1,-2,-2,3,-1
9089,-6,-3,-1,0,0,-1,-20,9
9089,-10,-3,-3,0,-1,-4,-1,-13
9098,1,1,-1,-2,-2,-2,-6,-32
9098,-4,-2,-2,0,0,2,-7,-14
9112,-2,-1,-1,1,0,2,8,13
9112,-5,-4,-3,-2,0,-1,-7,-18
9114,1,2,0,0,-1,-3,-7,-10
9114,2,1,0,0,-1,-2,-7,-12
9135,-8,-3,-2,-3,-3,-4,0,-11
9135,4,-2,-2,-2,0,-1,-6,-26
9136,4,2,1,-1,0,0,6,40
9136,1,-1,0,-2,-2,-2,-2,-6
9148,-6,-5,-2,-3,-3,-2,3,1
9148,-5,-4,-3,-1,-2,-2,-5,3
9158,8,2,0,1,1,2,-3,-15
9158,2,0,0,2,0,1,2,5
9172,-5,-3,-1,-3,-1,0,-1,-7
9172,-3,-2,-2,-1,-3,-1,-4,5
9174,1,1,0,-1,-3,-2,-7,-23
9174,-3,-3,-1,-3,-2,-2,-1,3
9195,5,0,-2,-2,0,0,5,22
9195,2,1,1,0,2,-1,-7,2
9197,5,2,0,1,1,0,-1,-6
9197,-1,0,-1,-1,-1,-1,9,7
9208,0,-2,0,-1,-1,-1,-6,-18
9208,-1,0,-1,0,0,1,4,6
9218,0,-1,-2,-1,0,-3,-5,2
9218,-2,1,-1,0,0,-1,-3,-13
9233,-6,-3,-2,0,-1,-3,-4,-9
9233,-2,-2,-1,0,0,0,-2,12
9234,-3,-1,-2,-2,-2,1,0,-4
9234,-5,-4,-2,-1,-2,-1,-2,-2
9255,3,-2,-1,-1,-2,-1,4,19
9255,0,-1,1,-1,-1,1,-2,14
9256,-3,-1,-1,1,0,0,-2,-9
9256,0,0,-2,-1,0,0,-1,-1
9269,-4,-1,-1,0,-1,0,1,-9
9269,-2,0,-2,-1,-1,-2,-4,-16
9278,1,-1,0,-1,-2,-2,-1,0
9278,-1,0,-1,-1,-2,-1,-2,9
9300,-2,0,-1,-2,-1,0,3,-11
9300,0,0,-1,-2,0,1,1,1
9306,-5,-2,-1,-2,-1,0,1,-3
9306,-1,-2,-2,-3,-1,0,-1,4
9315,-3,-2,-2,-1,-1,-2,-5,-3
9315,1,-2,-2,0,0,-4,1,34
9317,-1,-1,-2,-1,-1,-3,1,2
9317,6,1,0,1,0,-2,-3,-2
9329,-2,-1,-2,1,-1,0,2,5
9329,-3,1,0,-1,-3,0,-2,-9
9337,0,-1,-1,0,-2,-2,0,-8
9337,-1,-2,-2,0,0,0,0,5
9352,0,-1,-1,0,0,-1,-1,-9
9352,2,-1,0,0,-1,-2,-2,-10
9359,0,-2,-1,-1,-1,1,0,-2
9359,-3,-3,-1,-2,-2,-1,1,-7
9375,-1,1,-2,-1,-1,-1,0,0
9375,0,0,-1,-2,0,1,-1,-9
9381,-2,0,-1,-1,-2,-2,-2,3
9381,-4,-1,-3,-2,-1,-1,0,2
9389,-2,-1,-1,-3,-2,-1,-3,-3
9389,-2,-2,-3,-2,-3,-2,-4,-2
9405,1,-2,0,1,-1,-1,0,-3
9405,-1,-1,1,-1,-1,-1,2,-1
9411,0,-1,0,-1,-2,-1,0,-2
9411,-2,-1,-2,-3,-1,0,0,-8
9418,-1,-2,-2,-2,-1,0,0,-2
9418,-7,-2,-2,-1,-1,0,-1,-1
9435,3,1,0,-1,0,-1,1,0
9435,-1,-1,-1,1,-2,-3,-1,-2
9436,0,0,-2,0,-1,-1,-3,-1
9436,-2,0,0,-2,-2,0,-1,-2
9458,-2,-2,0,0,-1,2,1,-1
9458,-2,-1,0,0,-1,-1,-3,0
9459,-1,-1,-1,-1,0,-1,-2,1
9459,1,0,-2,-2,0,-4,-2,0
9472,-3,-2,-1,0,0,-1,-3,-2
9472,-2,0,-2,0,0,-3,-2,-4
9479,-1,-1,-1,-1,-1,-1,0,-2
9479,2,-1,-1,2,-3,-2,2,1
9495,-1,0,0,1,0,-1,-1,-2
9495,-1,-1,1,1,-1,-2,0,-2
9497,-3,-1,0,-1,0,-1,0,-1
9497,1,-2,0,0,-1,0,0,-1
9518,-2,-1,0,0,-2,-2,-1,0
9518,-4,-1,-1,-1,-1,-2,0,-3
9519,-3,0,-2,0,-1,-1,-2,-1
9519,-2,1,-1,0,0,-1,-2,-1
9532,-3,-1,-3,-1,-1,0,-3,1
9532,-1,-2,0,-1,-1,1,-2,-6
9539,0,-1,-2,-2,-2,0,-2,-7
9539,1,-2,-1,-1,1,0,-1,-3
9554,1,-1,-2,-2,-2,-4,-2,1
9554,0,-1,-2,-1,-1,-1,-2,3
9562,1,-1,-2,-2,-1,-1,-2,3
9562,-1,0,-1,0,-2,-4,1,1
9577,1,-1,-2,0,1,0,2,1
9577,0,-1,-2,1,-1,1,0,-1
9580,0,-1,1,-1,-2,-1,1,1
9580,2,1,-1,-1,-2,0,-2,2
9591,0,-1,-1,-2,-1,-3,1,0
9591,0,-1,0,-2,-1,-2,-2,-3
9601,0,1,-1,0,-1,2,0,0
9601,-2,-1,-2,-3,-2,-2,0,-2
9615,-3,-2,-2,-2,-1,-1,2,0
9615,-1,0,-1,-2,-2,-2,0,-2
9617,0,-1,-1,-1,0,-2,0,-1
9617,0,-1,-1,1,0,-1,-1,-2
9645,0,0,-2,0,-1,0,-1,-2
9645,-1,-2,-1,0,-1,1,-3,1
9646,-2,0,-1,-1,-1,0,-1,1
9646,-1,-1,-1,0,-1,-1,-1,0
9651,-1,-1,-1,-3,1,-2,-1,-2
9651,-2,-1,-1,0,0,-1,0,1
9660,1,0,-1,1,-1,0,1,-1
9660,-4,-1,-2,0,-2,-1,-2,-2
9682,-1,-1,0,-1,-2,-1,-2,-1
9682,-2,-1,-2,-2,0,-1,-1,-1
9684,-3,-3,-1,-2,-3,-4,-2,-2
9684,-1,-3,1,-1,0,-3,1,-3
9698,-1,-1,-1,-3,-2,-1,2,-1
9698,1,1,-1,-2,0,-1,1,-2
9699,-1,-1,0,-1,0,-1,-2,-2
9699,1,0,-1,-1,0,-1,0,-1
9711,-1,-1,0,0,-3,-2,-1,-2
9711,0,-1,1,0,-2,-1,-2,-2
9720,-2,-1,0,-1,-2,-3,-1,0
9720,-1,-1,-1,-1,-1,-2,-3,-1
9735,0,-2,-3,0,0,-1,-4,0
9735,-1,1,-2,-1,-2,-1,-1,-1
9736,0,0,-2,0,-1,0,-1,-2
9736,-2,-1,-1,-1,1,-1,-2,0
9765,0,-1,0,-1,-1,-3,-1,0
9765,-1,-1,-1,1,1,-2,0,0
9767,0,-1,-1,-1,1,0,1,1
9767,0,0,-1,-2,1,-1,0,-2
9770,-2,-2,-2,1,-1,-1,0,-1
9770,-2,0,-2,-1,0,-2,1,-2
9780,-1,0,-1,0,-2,-2,0,-2
9780,1,0,-2,0,-1,1,-1,0
9795,0,0,-2,-1,-1,0,-1,-1
9795,2,0,-2,-2,0,0,-2,-2
9797,-1,-1,-1,1,-1,0,-2,-3
9797,-1,-1,0,-2,-2,-1,-1,-1
9818,1,-1,-1,-2,-3,1,0,0
9818,-2,-2,0,-2,-1,0,0,0
9819,-2,0,-2,-3,-1,0,0,0
9819,-1,-1,1,0,-1,0,-3,-1
9831,-1,-1,-1,-1,-2,-2,-1,0
9831,-1,-2,-1,0,-2,-1,-1,-1
9840,1,-2,0,-2,-1,-2,-2,-1
9840,0,0,-2,-1,-1,0,0,0
9855,-1,-3,-1,0,0,0,0,0
9855,-1,-1,-1,-1,1,1,1,0
9857,-1,-1,-2,1,-1,-1,-1,2
9857,-2,-3,0,0,0,-1,-2,-2
9877,-1,-1,-1,1,0,-2,-2,-3
9877,-1,-1,-1,0,-1,-2,-1,-2
9879,0,-1,-1,-4,-1,-1,-1,-2
9879,-1,-1,-1,-1,0,-2,-1,-2
9891,-1,0,-1,-2,-2,-1,-1,-1
9891,0,-2,-2,-1,-1,-2,0,0
9900,-2,-1,1,-2,-1,1,0,-1
9900,-1,-1,-2,-1,-1,0,1,-1
9915,-2,-3,0,-2,-1,0,-1,0
9915,-1,-1,-1,-1,-1,0,0,-2
9917,-1,-2,0,0,-1,-1,0,-1
9917,0,0,-2,-1,-1,-1,0,0
9937,0,0,-1,0,0,-1,-2,-1
9937,-1,0,-1,0,-1,0,-1,1
9939,0,1,-2,-1,0,-1,-2,-1
9939,-1,-2,-1,-2,0,-1,0,-2
9951,-1,1,0,-1,-1,-3,-4,-1
9951,1,0,-1,-1,-1,-1,-2,-3
9961,-2,-2,-2,-2,1,-1,-1,-3
9961,-1,-2,-2,1,-1,-1,1,3
9975,0,-1,-2,-1,-2,-1,1,-1
9975,-3,-1,0,-1,1,-2,-1,1
9977,1,-3,-1,1,0,-3,-1,2
9977,0,-1,0,-2,-1,0,-2,0
9998,-2,0,2,-1,-1,-1,-2,-1
9998,0,0,-1,-1,-1,-1,-2,-2
0,0,0,0,-1,-2,-1,0,-2
0,-1,-1,1,-2,-1,-1,-1,-2
11,-2,-2,-1,0,1,1,0,1
11,-1,-1,-1,-2,-1,-1,-1,0
21,-1,-2,0,-2,-2,-1,-1,-10
21,-2,0,-1,-1,-3,-1,0,12
35,0,-1,-1,-4,-2,-1,-1,-3
35,-1,-3,-2,-2,-1,0,0,-1
37,-1,-1,-3,-2,0,0,-2,-6
37,0,-1,0,-1,1,1,1,-4
58,-1,-1,-2,0,-1,-2,-2,-9
58,-1,-1,-1,0,0,0,0,13
60,0,0,1,0,-1,-2,-1,0
60,-2,-2,-1,-2,0,-2,-5,-4
71,-1,-2,-2,-4,2,-2,-4,-10
71,-2,-2,-2,-2,-1,-1,8,-15
97,-1,-1,-3,0,-1,0,1,12
97,-1,-1,-2,-1,-2,-1,0,-26
98,1,-2,0,0,-3,-1,-9,22
98,0,0,1,0,-2,-2,13,3
109,0,-1,0,-1,-2,-4,-1,-8
109,-2,-2,-2,0,-2,-1,2,3
117,-2,0,-2,-1,1,-1,-9,-24
117,-3,-1,-1,-2,-1,-3,0,7
119,-2,0,-1,-1,0,-1,1,13
119,-1,-2,-1,0,0,-1,1,-13
132,-2,-1,-1,-1,-1,3,-4,17
132,-3,-2,-3,-2,-3,-4,-13,-25
140,1,-1,-2,0,-1,0,9,50
140,0,0,1,0,0,1,-1,11
155,0,0,1,-1,-1,-1,6,-10
155,-1,-1,0,0,0,1,-5,0
157,-3,0,0,-1,-1,-2,-10,-24
157,0,1,-1,0,0,-1,-1,0
178,-2,-1,-2,1,1,0,4,4
178,4,0,0,-2,-1,1,-4,10
179,-1,0,-2,-2,-1,0,8,-4
179,0,0,1,-1,-3,-1,-4,0
192,-3,-1,-1,-1,-3,-2,1,-18
192,0,0,-1,0,-1,-1,1,32
201,-3,-2,0,-1,-3,0,-6,-46
201,-1,-1,-2,-1,0,0,5,24
215,0,0,-1,-3,-2,-2,-3,-11
215,-1,-1,-1,1,1,0,-15,-11
217,-1,-1,-1,0,-1,-1,5,-8
217,-3,0,0,-1,-2,-2,4,-1
237,0,-1,0,-1,0,-3,0,6
237,-3,0,-1,-3,0,0,4,-14
239,-1,0,-1,-1,-1,-2,-6,-2
239,-4,0,-2,-2,0,-3,-18,-13
251,0,1,0,1,1,1,16,22
251,-2,-1,0,0,-2,1,-3,-2
260,0,-2,-2,-1,-3,-3,-11,3
260,-5,-2,0,1,-1,0,-5,-31
275,3,-1,-2,-1,-1,-1,7,43
275,-1,-1,-1,-1,-1,-1,5,-13
276,-1,0,-1,-1,-2,-1,-1,13
276,-1,-4,-4,0,-3,-6,0,9
298,-4,-3,-2,-1,0,-2,-10,-22
298,0,-1,0,-1,0,-1,9,-5
299,-1,-2,-1,-1,1,3,-5,-5
299,2,-1,0,0,0,0,1,6
311,-3,-2,-2,1,-1,-1,3,-10
311,1,-1,-1,-1,1,0,-7,7
321,-1,0,-3,-2,-2,-2,-5,-10
321,1,-1,0,-2,-1,-1,5,20
342,-1,0,-1,0,-1,0,1,-6
342,0,-1,0,1,-1,-2,0,18
344,-2,-1,0,-1,-1,-3,-6,-3
344,1,-1,-1,0,0,-2,1,-7
358,-7,-1,-1,-4,-3,-1,-11,-8
358,-1,-1,-1,-1,-1,-1,-3,5
361,5,2,0,0,0,2,5,19
361,-6,0,-1,-1,-3,2,-5,-6
371,-3,-2,-1,0,-1,1,-5,3
371,-4,-4,-3,-2,-2,-5,5,-32
381,-5,-2,-2,0,-1,1,19,30
381,5,1,-2,0,-1,-2,1,-3
395,-1,-2,-2,0,0,-1,0,10
395,0,-1,-1,4,0,2,-20,-21
400,-2,0,-1,-2,-3,-8,-5,-1
400,-2,-2,-2,-2,-1,2,8,-20
417,-1,-1,-2,-2,-2,1,8,79
417,-3,0,-1,-2,-2,0,-5,-13
419,10,0,0,0,-1,-2,-7,-23
419,7,-2,-2,-3,0,-4,-13,-57
431,5,5,2,1,2,3,16,30
431,8,-1,-3,-2,0,-3,10,86
440,-9,-1,0,-1,1,1,3,-34
440,-1,2,0,0,0,1,-23,-22
454,-2,-2,-1,-1,1,-3,2,8
454,0,1,0,0,1,0,2,0
461,-4,-3,-2,-3,-3,-4,-8,-16
461,1,1,-1,-1,-3,0,8,38
478,-5,1,0,0,-3,-2,-14,-64
478,0,-1,-2,-2,0,-2,0,-24
479,0,-2,-2,-1,0,0,2,-8
479,-1,0,-1,-1,0,1,7,13
491,-4,-3,-1,0,-1,-5,-16,-39
491,-9,-3,-2,-2,-3,-3,-10,-67
500,3,0,0,2,1,5,-4,50
500,-2,-3,-1,-3,-2,-3,-3,-4
514,3,1,-1,-1,1,3,13,7
514,-1,-2,-2,-3,-4,-3,-12,-35
522,-10,-4,-4,-2,-3,-3,-3,-33
522,12,1,-2,1,2,1,10,123
537,0,-1,-1,2,-2,-1,-3,-12
537,-4,-2,-4,-3,-3,-3,-3,6
539,2,0,-1,2,-1,1,2,28
539,-4,-2,1,-1,2,-1,3,-26
551,3,0,0,-2,0,-4,-13,-47
551,-5,0,0,-1,0,0,8,11
576,-2,-6,-4,-4,-4,-4,2,-1
576,1,0,0,0,0,1,-5,-32
576,-18,-3,-2,0,1,0,-3,6
576,2,-2,1,-3,-1,-1,2,-23
581,-11,-3,-2,-1,-1,-5,-12,-23
581,10,0,-11,0,0,1,0,4
598,5,1,14,3,1,2,17,44
598,-5,-1,-1,-2,-4,-4,-15,-23
599,2,0,-3,-4,-2,-7,-16,-42
599,-5,-3,8,2,3,8,26,27
620,10,-2,-1,-1,-3,-3,-19,-51
620,-26,-12,-4,0,-1,-2,-5,-38
621,45,9,3,0,-2,2,10,35
621,-8,3,0,0,-2,1,3,-21
635,-6,-2,-2,-2,0,2,20,24
635,5,-3,0,-1,-1,2,7,17
642,-8,-2,-3,-1,0,0,-13,-10
642,-17,-5,-2,-2,-4,-8,-29,-1
657,4,-4,-5,-2,1,-1,7,-12
657,0,4,-3,0,1,3,6,21
658,-2,-2,-1,-1,0,-1,6,-11
658,-18,-1,-1,-3,-3,-4,1,-19
680,4,-1,-9,-3,-3,-3,-10,17
680,6,1,-1,-1,-2,-3,-4,-11
681,-7,-1,-1,-2,-1,4,2,21
681,-2,-2,-1,-2,-1,-4,-4,-59
695,16,-1,-4,-1,0,1,15,97
695,-2,5,-12,-1,2,1,-1,29
701,-5,-1,10,3,3,3,-2,-46
701,-4,1,1,0,-3,-1,-5,4
717,0,-3,0,1,-3,-2,16,28
717,11,-3,-3,1,-3,-4,-13,-28
718,-13,-1,-2,-1,-2,-1,7,8
718,24,5,-1,0,5,4,-8,-22
741,-28,-5,-2,-1,-3,-3,-14,-65
741,10,3,5,-1,2,4,30,85
743,-10,-5,-13,-5,-2,-3,-14,-53
743,1,-6,-6,-4,-2,-5,-3,-29
754,2,0,-1,-3,-3,-3,2,58
754,-9,-3,3,-1,-3,-4,-26,-77
763,-3,1,-1,-3,-2,-2,5,99
763,11,-1,-1,0,1,2,26,-24
778,-21,1,1,2,2,1,-6,-95
778,-1,-2,2,-1,-4,-2,-12,21
779,3,1,1,1,2,3,-1,6
779,-9,-2,1,-4,-4,-7,-25,-62
800,-5,-13,-11,-3,-5,-7,-14,-55
800,9,5,13,4,4,3,22,85
801,-3,-4,-1,-2,-1,-3,-21,-20
801,10,-9,-5,-4,-5,-1,18,64
814,-21,9,-1,0,-1,1,-20,-25
814,23,7,1,0,3,5,55,2
830,28,-5,10,-2,-3,-8,-33,-60
830,-27,-3,7,-1,-5,-5,31,58
838,14,0,-3,5,7,10,2,108
838,48,7,2,-1,-2,-2,-28,-24
839,-6,6,19,0,-1,2,19,68
839,9,2,-10,6,6,0,-2,42
860,-10,-3,0,-6,-9,-7,-6,-82
860,-22,-10,-7,-3,-2,1,11,12
862,5,-7,-23,-4,-5,-7,-7,-83
862,-5,9,5,2,3,8,10,-16
874,-7,15,7,2,4,1,-31,-110
874,-25,-12,8,-1,-1,2,-3,-41
883,59,15,1,4,1,3,23,70
883,-19,-9,-7,-6,-2,-1,3,-25
897,10,0,-1,2,-2,1,14,-6
897,-24,-1,-6,-3,-6,-7,-22,-101
899,-8,0,-2,0,1,-3,-12,5
899,-2,-4,2,-1,0,1,-16,-39
920,27,-3,0,-7,-3,-4,14,56
920,-13,-2,-5,2,2,2,16,120
922,-40,-10,-8,0,3,2,0,-62
922,25,7,-1,-2,-9,-6,12,107
934,18,3,-2,-1,-2,-2,2,-46
934,-12,-3,-3,2,1,2,-1,-3
943,-32,-4,-5,-6,-9,-4,28,-21
943,44,6,3,1,2,2,-22,50
958,-60,-11,-4,-2,-7,-17,-47,-95
958,43,-3,-1,6,11,15,62,95
959,-17,21,4,-3,-2,2,-6,-28
959,-10,-22,-7,-5,-4,-6,-6,-10
980,18,-1,1,-2,1,-1,-12,-34
980,-4,3,-8,-2,-1,-6,-17,41
982,2,-4,-11,-1,0,2,10,17
982,-9,-3,2,-3,-3,-2,-9,-65
994,2,-11,-11,-7,-5,-8,-26,-45
994,19,11,6,3,3,5,5,47
1003,8,-4,-11,-2,-3,1,24,-51
1003,-45,2,-8,-3,-1,1,-11,30
1018,85,-3,7,0,0,2,12,127
1018,-15,-1,-9,-2,-4,-6,-12,-61
1019,11,5,9,6,5,9,11,2
1019,9,-13,-14,-8,-13,-12,-27,-16
1041,-35,-1,-3,2,4,10,15,-57
1041,-17,-6,-6,-3,-6,-14,-35,-128
1043,53,6,3,-2,10,10,-5,29
1043,-11,-19,-15,-14,-23,-15,-21,-33
1054,48,11,10,-1,1,1,44,-7
1054,-5,-1,-4,-9,-6,-5,-9,-31
1070,-72,-33,-40,-3,-5,-11,-35,-27
1070,42,-4,-8,8,8,14,39,56
1077,-23,33,51,5,-2,-9,-39,-19
1077,-8,-6,-17,-8,-8,-2,-37,-80
1079,-38,-7,3,-4,-1,-8,19,-28
1079,-3,8,15,6,1,-2,-24,56
1100,11,-20,-27,-4,-8,-7,13,74
1100,20,2,-6,8,9,8,-5,65
1101,20,-15,9,-7,-6,1,30,78
1101,-2,19,-1,3,3,0,11,37
1114,-51,4,-4,-4,-4,3,34,-44
1114,68,3,1,-1,-2,-7,-1,-1
1123,26,-8,1,6,7,5,-8,-58
1123,-5,16,-1,2,5,6,6,-41
1137,-38,-22,-16,0,0,-6,-41,-77
1137,5,1,-3,-2,-3,0,12,-18
1139,51,21,43,7,6,4,15,92
1139,-1,10,17,4,1,3,31,-23
1160,15,-5,-1,4,10,5,-3,-44
1160,-47,-24,-4,0,-9,-7,-23,-79
1162,-1,6,-4,-4,-6,-7,-33,-101
1162,-22,2,-2,-10,-4,-3,-18,-27
1174,4,-6,-2,-9,-12,5,27,39
1174,6,6,9,0,6,-2,15,39
1183,-55,-2,-7,-6,-6,-11,-42,-23
1183,12,-4,4,-5,2,-1,-1,-57
1197,-14,0,-7,8,7,12,36,81
1197,-50,-6,-7,5,-1,1,-9,-105
