0,-1,-2,-2,-1,0,0,2,-2
0,2,-1,-1,-1,-1,-2,-1,12
1,-4,-1,-1,-1,0,-2,0,0
1,1,-2,-1,-1,-2,-3,-2,0
3,-2,0,1,0,0,-1,-2,-20
3,1,0,0,1,-1,-1,-1,1
5,-1,-1,-1,0,-1,0,3,21
5,-1,-2,-1,-1,-2,-2,0,-4
10,-1,1,-1,-1,-2,-3,-10,0
10,-4,-3,-3,0,1,-1,-7,-20
17,0,-1,0,-1,-3,-5,1,-1
17,0,1,-1,0,0,1,2,-7
31,0,1,-2,-1,-2,-3,3,5
31,-2,1,-1,-1,-1,1,-4,-7
43,0,-1,-1,1,1,0,-5,3
43,-1,-1,0,0,-1,0,-1,2
54,-1,-1,-1,-2,-2,0,1,-1
54,-3,-3,-1,-1,-1,-2,-3,-5
71,-1,-2,-1,-2,-3,0,2,-1
71,1,-1,-1,-3,-1,0,-1,-3
72,-1,-1,-3,-1,1,1,-2,-1
72,-1,1,-1,-1,0,-1,3,7
117,-3,0,-2,-1,1,-1,-8,-30
117,2,-1,-1,-2,0,2,8,53
119,-2,-1,-2,-3,1,-1,-8,0
119,-2,-2,-2,-1,-1,-2,4,3
122,1,-1,0,0,-1,0,4,12
122,-4,-3,-1,-1,-1,-1,-5,-25
123,1,-1,1,-1,-2,1,0,4
123,-1,-2,-2,-1,1,-2,-4,-1
128,-2,0,1,0,-2,-2,-4,-2
128,1,0,-3,-3,0,-1,1,4
137,0,0,-1,-1,-1,0,1,-9
137,-2,1,0,-2,1,-2,-2,-6
143,-1,-2,-2,-2,-3,-3,-1,2
143,-2,-1,-1,0,-2,-2,-3,-9
159,0,-1,-3,1,-2,-3,0,-4
159,0,0,0,-2,-2,-1,-1,-1
165,-2,0,-1,1,0,1,-1,2
165,-2,-1,0,-2,-1,-1,-1,-3
190,-4,-2,-2,-1,0,0,-2,-1
190,0,-2,0,0,-2,0,-2,-3
192,0,-3,0,-1,-2,-2,-1,6
192,-2,-1,-2,2,0,-1,-2,-10
203,3,1,0,1,-2,1,1,-1
203,1,-1,-1,0,-1,-2,-1,1
220,-1,0,-2,-1,-3,0,1,0
220,1,-1,-14,-3,-3,-1,0,-5
227,-4,-6,0,-1,2,-3,0,2
227,-1,-1,-3,0,-3,0,-2,0
228,0,-2,1,-1,-1,-2,1,-1
228,-1,-2,-1,-1,1,-1,-1,-3
249,-2,0,0,1,-2,-2,-1,1
249,-1,-1,-2,-1,-1,-1,-1,-4
251,-1,-2,-4,-1,0,0,0,2
251,-1,-2,2,0,0,0,-1,-6
264,-1,0,-1,-1,0,1,-3,0
264,-3,-2,1,0,0,-3,-3,-2
271,-2,0,-1,-2,-1,-1,-2,-1
271,3,0,-11,-3,-2,-2,-1,-2
287,1,0,15,2,-1,0,0,-2
287,1,-1,-3,-2,-2,-1,1,-2
288,-1,-1,0,-1,-1,0,0,0
288,-2,-1,-1,0,-1,-2,-1,-2
310,-2,-1,-7,-3,-2,-1,-2,0
310,2,-2,-1,-1,-3,0,-3,3
311,-1,-3,1,-1,0,0,0,0
311,1,0,7,2,1,0,-2,-5
323,-2,-1,-2,0,0,1,-2,-2
323,-4,0,2,0,-2,-1,-3,0
332,3,-3,-4,-1,0,-1,0,-1
332,0,-2,0,-1,-3,-2,0,1
348,-2,1,-3,-1,0,-2,-2,-8
348,-3,-2,-3,0,1,0,-1,9
349,-2,1,-2,-1,0,-1,-1,-5
349,-3,0,-2,-1,-1,0,-1,-1
371,0,-1,1,0,-1,-2,-1,0
371,5,1,1,-3,-2,-1,-1,-3
372,0,1,0,-1,-3,-1,-2,-1
372,1,-1,2,-1,-1,-2,-1,0
392,-3,-2,-6,-2,-2,-3,-2,-15
392,2,0,-2,1,3,1,5,27
394,0,-1,1,-1,2,0,0,0
394,0,-1,-10,-2,-2,-1,-3,-5
407,4,2,17,1,-1,-1,1,3
407,0,0,-1,0,-1,-1,-3,-22
408,-1,-2,-2,0,-1,-2,-2,13
408,-5,-2,1,-1,0,-1,-3,-10
429,2,-1,-8,-3,-2,1,5,45
429,-5,-1,0,-2,0,-1,-3,-11
430,-2,-2,1,-3,-1,-1,-1,-2
430,8,2,5,0,0,0,1,1
451,-4,-1,-6,0,-1,0,-3,-11
451,-4,-3,-3,-2,-1,-3,-4,-1
452,-4,-3,-7,-3,0,-1,-2,1
452,-7,-1,2,-1,-1,-2,-2,-4
466,3,-3,-4,-3,0,-2,2,-3
466,-12,-2,-4,-1,1,0,-4,7
467,8,5,1,1,-2,-1,2,-21
467,4,1,3,1,-2,-2,2,5
497,-2,0,-3,-2,-1,-2,-5,-13
497,0,-3,-2,-1,0,0,1,17
498,-1,-1,1,-1,-2,0,-2,0
498,-2,0,-1,-1,-1,-1,-3,-8
511,-5,-1,-2,0,-1,-2,0,3
511,0,-1,0,-3,-2,0,-4,-16
512,5,1,-9,-1,0,2,-3,-2
512,-6,-3,4,-3,-2,-2,-4,-12
526,-2,-2,-5,-2,-1,0,6,13
526,2,0,2,1,-2,-2,-1,-7
527,1,0,-1,-1,-2,-2,-1,3
527,-2,-2,-2,-1,0,1,-2,-9
549,-4,-3,-3,0,-1,0,0,-9
549,-3,-4,-5,-1,-1,-2,-3,-29
549,0,1,3,0,1,1,2,61
549,4,0,-2,-2,0,-3,-1,-22
588,1,-2,-2,-1,0,-2,0,37
588,3,0,-4,-3,-3,-2,3,-1
589,0,-2,0,0,-1,-3,-1,-29
589,-5,-2,0,1,-1,-1,-3,0
591,1,0,-3,-2,-2,0,-1,-12
591,-4,-1,2,-1,0,1,-3,-4
593,-5,-2,2,-2,1,-1,-2,-1
593,1,-3,-4,-1,-1,0,4,16
609,-6,-5,0,-2,-2,-2,-7,-18
609,4,1,-13,-1,-1,1,-1,11
610,-3,-2,7,-2,0,-1,1,-15
610,0,-2,-3,-3,0,1,3,0
631,-10,-4,-2,-3,-2,-5,-9,-27
631,8,3,0,0,0,2,12,39
639,-3,-2,-4,-1,-2,-1,1,3
639,1,2,-3,-1,-2,-1,1,2
647,-3,-4,0,0,0,2,-2,-3
647,1,1,1,-4,-3,-3,-6,-16
662,-1,-2,-2,-2,1,-3,-2,-9
662,-3,-4,2,-1,0,-1,-1,5
677,4,2,1,-1,-1,-1,1,-4
677,-7,-3,4,0,-2,-2,-4,-4
678,19,6,1,-1,-2,-1,3,3
678,-5,-1,-4,-2,0,-2,-3,-11
691,9,3,2,0,0,1,-1,-6
691,-9,-7,-7,-2,0,1,0,-1
693,-10,-6,-1,-1,-3,-4,-7,-9
693,8,2,6,1,1,2,5,17
706,3,0,-6,-3,-2,-2,2,1
706,-8,-6,-11,-3,-2,-2,0,-23
707,-10,-3,0,-4,-2,-2,-7,-8
707,1,0,-4,0,0,3,11,42
729,5,8,16,1,1,2,0,-5
729,2,1,-4,1,1,0,-5,-27
730,-6,1,0,-1,1,-1,0,-17
730,8,-2,1,-1,-5,-4,-3,-13
752,-9,-5,-9,-1,-1,-4,-2,18
752,3,0,8,1,1,-3,-3,11
752,-3,1,-1,1,1,1,-7,-27
752,-12,-7,-13,-3,-2,-1,-4,-5
774,-4,-1,-4,1,3,-1,4,3
774,8,5,9,5,-1,0,4,9
775,6,-8,-9,-8,-11,-4,-1,7
775,1,0,-2,-2,-1,-4,-10,-15
789,1,-2,-3,0,-3,0,2,-55
789,4,5,5,2,4,2,11,59
790,-2,-1,-1,7,0,0,-3,-25
790,1,1,4,-2,0,0,-3,-15
811,-6,-8,-26,-6,1,-3,-6,12
811,3,-2,14,-2,-3,-2,-5,-16
812,-2,-1,-2,3,7,2,3,11
812,-11,3,4,13,-4,-1,-6,-11
826,-5,-10,-9,-7,-3,0,-4,0
826,20,3,-2,-3,-1,0,6,12
827,-5,-4,-5,-2,-1,-1,0,17
827,-5,-1,-12,-6,-1,-5,-2,-17
849,13,4,4,1,-2,1,1,10
849,-23,0,-3,0,-4,-3,-6,-6
850,-7,5,10,4,6,4,0,-3
850,0,-3,-3,-3,-1,-2,-2,-22
872,3,4,6,1,0,-1,1,9
872,-1,-3,-5,-5,0,-2,-9,-42
879,8,0,-5,1,0,1,14,58
879,5,-1,5,-1,0,-2,0,13
886,-13,-7,3,2,-2,-1,-2,-2
886,-5,1,3,-1,1,1,-2,-28
887,2,-2,-1,-1,-2,2,-1,-29
887,-2,-4,1,-2,-1,1,-2,12
909,3,2,4,4,2,-3,-5,-6
909,29,8,1,2,4,3,9,23
910,-8,-2,-1,-6,-5,-3,-6,-12
910,-8,-4,0,-1,3,0,1,5
932,-6,-3,-2,-2,-5,-4,-3,-5
932,-11,-4,-17,-2,-1,1,1,-5
932,4,-5,2,-2,-4,-2,1,13
932,5,4,1,-1,-3,-1,2,3
946,0,1,1,2,-3,1,0,-4
946,-5,-6,-5,-3,-3,-1,-4,3
948,12,2,1,-2,-1,-6,-3,-6
948,-9,-4,-2,-5,1,1,1,8
978,2,0,1,-2,-6,-1,-6,-3
978,4,0,2,1,0,2,6,13
978,-13,2,14,-2,0,-1,-2,-4
978,25,8,9,2,1,0,2,3
991,-5,-2,-2,-5,2,-1,2,2
991,-14,-8,2,6,4,-3,-4,-7
992,19,9,2,-4,-2,1,2,6
992,-11,-2,-2,7,-5,-1,-1,-4
1007,-14,-2,-4,-5,1,-1,-5,-23
1007,9,-29,-11,-3,-2,0,4,45
1008,-10,15,-2,1,2,-1,-11,-8
1008,14,2,3,1,5,3,19,42
1030,14,6,4,1,1,3,8,24
1030,-5,-1,0,-4,-5,-7,-5,-29
1032,-23,-8,-9,-6,-3,-2,-3,-8
1032,-8,2,7,7,1,1,-3,-3
1052,6,2,2,2,-1,0,-2,-33
1052,8,11,0,-2,1,6,5,7
1052,-1,-12,-4,0,-3,1,2,1
1052,-7,1,-7,-5,-2,-5,-11,-14
1067,-20,-9,-3,-2,-2,-5,-14,-81
1067,7,5,2,17,13,1,8,85
1068,26,6,-5,-40,-36,1,17,61
1068,-2,-6,-5,0,0,-2,-6,-14
1090,-7,-4,-5,-7,-7,0,0,11
1090,-3,1,0,-4,-2,-5,-4,-44
1097,-22,-13,-5,11,9,-5,-13,-40
1097,30,8,-2,-5,-2,4,-4,39
1112,4,-10,5,1,4,4,-1,4
1112,6,16,0,0,-2,-2,16,-4
1112,11,-3,6,14,8,2,22,-3
1112,1,1,-1,-8,-5,-9,9,-20
1134,19,12,7,11,7,-1,4,44
1134,-24,-21,-17,-16,-8,-1,-8,-26
1135,1,-5,4,1,1,-2,-7,-3
1135,-23,-33,-8,0,1,-1,-11,-11
1148,8,27,-3,9,-2,-2,5,8
1148,19,8,28,-2,0,5,-6,-2
1157,-10,15,-13,-5,-1,-5,-11,-17
1157,-19,-31,-6,3,-5,-4,-2,-11
1172,3,-11,8,10,6,5,7,23
1172,-12,-16,-41,-40,-4,1,-11,-29
1173,-16,-10,42,44,5,-5,-12,-18
1173,19,-18,2,21,9,7,11,14
1194,-10,23,14,3,-10,-6,-6,-1
1194,5,1,16,15,-2,2,0,7
1195,-32,-17,-52,-35,-2,-5,-1,-21
1195,-12,-38,-11,-28,-12,-13,-13,4
1217,13,-5,15,20,8,0,-10,2
1217,10,9,-11,-6,0,1,21,-5
1218,15,2,1,-13,6,8,-58,12
1218,-19,-22,-34,-11,1,-8,74,24
1232,9,44,8,-1,-3,6,-37,-5
1232,2,20,31,3,-5,-9,-18,-7
1233,9,-13,-23,-7,-10,-15,29,7
1233,4,-5,-13,-9,-8,-3,-31,-16
1254,-22,-60,5,-5,3,0,-26,-2
1254,13,26,-41,-28,8,6,-6,9
1254,11,17,50,24,10,11,31,5
1254,-8,30,24,26,7,6,-10,-16
1278,-7,-10,4,12,0,11,31,-7
1278,-34,-36,-15,-4,-9,-22,-10,-27
1278,17,33,-10,-12,-10,-11,42,8
1278,-8,-1,-31,-32,-14,-3,-8,-20
1292,-6,3,16,-4,-4,-11,28,9
1292,10,40,-45,-14,3,5,-36,-4
1293,1,12,59,49,19,27,18,12
1293,-2,16,21,5,-4,4,-13,-2
1314,53,11,-8,-7,4,13,-8,-8
1314,-55,-33,-10,-8,1,10,10,0
1315,37,7,-15,-13,5,-5,-28,0
1315,-18,4,16,-3,-35,-41,-11,-20
1338,2,31,-25,-8,-19,-47,-15,-2
1338,-3,-7,-2,-10,-6,8,-2,-16
1338,-11,-9,22,35,18,19,4,-1
1338,-36,-25,2,1,17,20,-10,-14
1351,-19,-1,-18,-16,0,6,23,-8
1351,7,-15,21,22,4,-1,29,20
1352,-28,16,-23,-13,-4,2,-3,7
1352,25,20,3,6,12,21,-2,-22
1374,-23,-31,-3,10,11,-10,-1,15
1374,0,15,30,2,-11,-3,6,29
1374,-1,-34,-26,-19,-23,-26,-26,-71
1374,-12,32,-10,-24,-12,-22,-6,34
1397,41,23,12,11,1,13,-11,31
1397,-26,-31,11,17,9,7,2,-20
1398,14,5,6,0,4,15,-33,-46
1398,24,15,-3,6,9,2,30,52
1411,-69,-26,-38,-35,-21,-22,-9,-27
1411,25,10,30,27,-7,-21,2,15
1412,-30,-20,-41,-35,1,-3,3,5
1412,33,1,22,24,19,38,-10,-12
1434,30,-13,4,13,2,-7,14,7
1434,-34,-13,-2,-10,-1,3,-12,-8
1435,7,-5,2,14,1,8,12,23
1435,3,46,6,2,3,-21,-3,2
1458,-9,-24,-2,-8,-7,46,-10,-3
1458,-25,-10,-10,1,-1,-44,15,-18
1458,24,-22,-20,-14,1,-31,-5,15
1458,12,15,20,8,-8,6,-9,2
1472,2,10,2,-8,1,12,1,-6
1472,11,-4,-23,-11,-13,6,-32,-16
1472,41,1,29,28,10,9,3,26
1472,-16,-23,-4,6,-3,-33,-4,-13
1494,-13,27,-2,-4,7,16,1,-5
1494,26,0,-5,-7,5,16,8,7
1495,-13,-13,-4,-6,-13,2,4,-25
1495,12,6,-4,4,13,45,8,19
1517,-11,-11,3,-8,-4,-64,8,16
1517,-20,-4,-1,4,-14,5,-19,-21
1518,-3,-1,4,3,-10,-23,-11,14
1518,3,-25,-13,-15,20,34,-8,-18
1532,2,-17,-15,-6,21,39,47,-20
1532,-25,-3,2,4,-24,-20,-18,15
1533,1,8,8,5,-7,-28,-14,-1
1533,5,7,3,3,-8,-24,-10,-15
1554,-6,-22,-5,2,-13,-13,-6,-1
1554,2,5,-1,-1,17,44,12,-14
1555,21,-17,-13,-18,6,-6,-1,13
1555,-42,18,3,-5,-2,22,44,-4
1577,23,16,4,8,-11,-49,-29,11
1577,4,2,4,4,-4,-10,-12,-17
1578,-34,-17,-15,-11,7,43,-15,-1
1578,14,19,14,4,8,-17,19,14
1592,-3,0,-15,-16,-17,2,0,11
1592,-16,-17,14,11,-11,-22,-3,-25
1592,25,13,-12,16,0,-7,3,-9
1592,25,-7,-4,-5,-3,-14,-12,5
1614,-3,-1,-10,-17,0,41,0,10
1614,5,6,9,19,28,15,14,9
1615,-16,-7,-3,-5,1,2,25,-1
1615,-6,-14,-8,-11,-11,8,-27,-8
1638,-1,11,-2,-5,-19,-51,-19,-6
1638,15,1,6,7,-5,-28,0,0
1638,-24,-11,-5,-1,5,11,0,5
1638,-1,3,-2,-6,3,30,13,4
1651,-5,25,13,17,47,30,10,-29
1651,-18,2,4,-5,-47,-23,1,49
1659,11,22,-2,-9,-10,2,2,11
1659,-15,-14,-11,2,3,-6,1,-17
1674,-8,-21,1,2,-10,-28,-9,-5
1674,15,12,-5,-15,6,-13,-21,-9
1675,-18,0,7,11,0,17,-6,3
1675,2,-6,1,2,21,35,8,6
1697,1,-1,0,-10,3,-27,13,1
1697,15,-7,0,11,-22,-21,-3,6
1698,-16,-11,-8,-25,-21,-12,-13,-1
1698,16,0,-2,9,8,21,8,6
1712,-11,-13,2,-3,18,39,14,-4
1712,8,15,6,18,15,40,18,-17
1712,-28,-11,-7,-2,-7,37,-10,0
1712,8,-16,-2,-3,-22,-125,-33,-30
1735,-17,-3,-5,3,-6,14,-7,27
1735,35,5,-3,-17,15,30,-3,4
1742,-3,-6,7,10,16,20,26,5
1742,-5,-9,-11,-5,-25,-5,-3,12
1757,-15,8,1,-2,-9,3,-7,-22
1757,2,-4,-9,-12,11,-9,-9,1
1758,5,12,4,-11,-5,-15,1,26
1758,-19,-21,-4,19,-3,-4,-27,-34
1771,4,9,4,9,4,-27,2,-1
1771,33,9,-5,-4,-4,25,15,3
1772,-12,-2,4,-9,9,-29,-6,-4
1772,20,9,-6,-17,-10,3,4,14
1794,-15,-10,7,14,-14,4,-10,-4
1794,8,13,-2,4,25,20,18,-23
1795,7,8,3,-4,-6,-12,13,39
1795,-15,-6,4,-5,-35,-34,-5,-11
1818,15,-2,-1,0,-6,-15,-37,0
1818,-19,-18,-18,-33,6,2,3,-5
1818,-14,1,7,23,9,20,16,-15
1818,6,-1,3,20,27,27,4,5
1832,-26,16,1,-3,-10,-13,8,-4
1832,-5,-14,3,-5,-20,-9,-1,12
1833,8,9,-9,-3,8,-5,-5,0
1833,-3,1,4,-11,9,55,7,-9
1854,2,-10,-4,1,14,35,17,-6
1854,9,2,6,-1,-10,-60,-19,6
1855,14,7,-4,1,-31,-5,-10,-12
1855,-4,-3,-2,-1,-3,-54,-21,2
1877,8,-20,-13,-6,11,36,5,4
1877,5,23,12,6,41,114,38,18
1884,2,-10,2,0,11,-67,19,-1
1884,-3,2,-6,-3,-50,-39,-19,-8
1891,5,-15,1,-11,-29,-72,-54,-15
1891,-6,8,2,4,14,13,14,-6
1898,10,-5,-6,5,16,34,4,-1
1898,-13,-2,4,12,19,42,28,5
1914,7,-3,0,1,-4,16,12,2
1914,-21,-15,-9,-8,-38,-70,-39,-7
1914,21,10,1,-1,4,3,-12,-11
1914,-1,-14,-6,-4,15,-4,6,8
1937,28,27,6,4,8,60,19,15
1937,4,-4,2,6,21,-2,0,-7
1937,-15,5,-3,-16,-36,-37,1,-16
1937,-9,-2,-5,-6,-6,-1,-19,5
1950,15,-3,3,17,29,56,12,-1
1950,-8,-5,-8,-6,-26,-41,6,1
1959,-29,1,3,0,-7,-8,-21,-9
1959,2,-13,0,-19,-12,-44,-6,8
1974,3,3,-11,3,9,23,8,2
1974,0,-1,5,7,4,-27,-7,-7
1975,-3,-10,-2,3,-11,-1,-2,-4
1975,-2,7,0,-11,7,18,1,-7
1997,-13,-12,-6,-31,-1,12,8,3
1997,1,17,5,41,30,1,2,5
1998,-11,-15,3,5,1,9,7,-5
1998,5,1,-10,-6,-11,47,0,-3
2011,-17,10,5,-9,-47,-128,-28,-5
2011,-11,-17,-15,-21,-19,24,-11,-10
2019,-1,-3,1,1,21,18,-16,-16
2019,-5,7,1,6,26,39,18,10
2034,2,-13,-1,-1,3,24,21,4
2034,5,4,5,2,9,35,0,3
2035,3,2,-2,1,4,15,10,-2
2035,-9,-10,-2,6,-23,-78,-27,-7
2056,19,12,-4,-5,9,58,9,3
2056,-10,6,2,-3,-6,-71,-2,-7
2064,6,-13,-1,3,-21,9,-10,10
2064,3,7,-3,-6,-3,-31,-14,-11
2079,-4,2,5,3,8,-4,-10,-5
2079,-7,0,-5,-4,-5,20,18,3
2081,18,1,2,0,-12,-2,-13,9
2081,-3,16,3,5,15,-36,7,2
2094,-7,-10,1,14,17,29,-2,-1
2094,-1,-12,1,-10,-2,8,7,1
2095,6,-1,-7,-15,-30,-45,-10,-4
2095,-6,10,-1,2,1,24,-14,-13
2118,1,-12,1,-1,16,-6,-1,0
2118,5,18,10,5,11,23,14,10
2118,-5,-9,-4,2,-1,0,15,2
2118,5,-14,3,7,-4,-28,-31,-4
2131,1,4,-2,-3,-10,5,7,2
2131,-3,-17,1,-17,-13,-24,-14,-4
2139,-3,7,-3,8,5,8,9,-7
2139,4,-6,-19,-10,16,31,0,2
2162,6,19,10,1,-26,-56,-6,-2
2162,-4,-12,-8,0,-9,21,-10,-4
2162,22,6,8,-4,40,64,21,16
2162,22,5,3,-4,0,-5,16,13
2177,-7,-8,-4,5,-36,-54,-34,2
2177,-2,-3,-4,-5,0,9,-9,-7
2178,-10,4,-2,-9,20,21,7,3
2178,-5,-15,4,6,3,16,16,4
2192,10,10,-3,-2,-7,6,1,-12
2192,4,5,-3,4,-5,-35,-12,10
2199,-18,-9,-2,9,5,-3,-16,-14
2199,7,15,4,1,27,74,35,18
2222,-1,-13,-1,-10,-34,-58,4,4
2222,0,1,-3,-1,-17,-18,-26,-4
2223,-14,-5,-4,-3,0,-30,-21,-7
2223,4,15,5,-4,13,57,18,-1
2244,3,-1,5,13,42,64,20,6
2244,-3,-7,-5,4,5,-39,4,-1
2246,4,1,0,-12,-66,-73,-19,-7
2246,0,-4,-9,-10,-24,-40,-38,-10
2251,-7,-5,2,6,23,45,14,-1
2251,1,-5,-1,5,30,64,21,2
2259,2,13,-1,0,37,62,21,7
2259,-13,-3,11,11,-42,-33,12,-4
2274,1,-2,-10,-12,-25,-103,-51,-8
2274,-4,-7,2,3,12,-26,-5,-5
2274,-2,-1,-5,-2,-21,4,7,-3
2274,-11,-15,-6,-13,-16,-24,-26,-5
2297,29,13,2,6,33,93,28,8
2297,-1,4,4,5,7,1,15,3
2298,-1,0,1,-18,-19,-13,0,-2
2298,-7,-4,6,7,-2,-39,-21,-7
2311,-12,-9,-15,6,1,-3,1,-4
2311,2,4,1,-2,-7,11,-8,-3
2319,4,0,1,8,24,22,17,-2
2319,1,8,4,-3,2,-21,13,17
2334,-2,-1,-2,-15,-12,-27,-12,1
2334,2,6,-1,5,-15,7,-10,-2
2335,-7,-3,-3,0,-1,-31,-26,-11
2335,4,4,1,4,24,30,14,-6
2357,-11,-5,1,-2,-11,2,19,7
2357,-6,-8,-4,-8,-23,-55,-12,-3
2358,-1,-1,0,2,15,86,-3,1
2358,3,5,-4,-9,1,-72,10,7
2379,-7,-6,-5,-1,-17,-32,-24,-3
2379,-1,-10,-5,-12,-12,4,-14,-9
2380,2,10,-4,1,3,19,11,3
2380,5,0,4,16,28,67,3,0
2401,-8,4,7,13,29,46,34,0
2401,3,-6,-2,-11,-34,-72,-2,3
2409,-6,0,4,-17,-20,-72,-45,-6
2409,-2,-17,-12,-13,-3,33,17,3
2417,-2,1,-3,14,25,73,10,-2
2417,6,16,5,9,30,11,6,2
2418,1,-5,2,2,-30,-28,-1,5
2418,-5,-2,-3,-9,-43,-99,-27,-17
2440,-2,-4,1,-4,8,54,-6,-1
2440,0,-1,-4,0,29,25,21,7
2441,-1,1,1,1,1,5,-4,-1
2441,-5,-1,0,5,19,1,2,-1
2454,3,-2,-4,-12,-35,-56,-11,-5
2454,-6,0,-3,-4,-26,16,-9,-12
2455,2,-5,0,1,20,9,4,25
2455,1,6,3,13,44,74,26,12
2478,3,0,2,-5,-22,-70,23,0
2478,-9,-12,-6,-8,-48,-53,-47,-10
2479,11,23,0,-4,4,-15,-3,-6
2479,-2,-4,1,11,26,67,16,2
2506,-7,-5,-2,3,33,31,12,2
2506,-1,-5,-1,1,-26,16,0,0
2508,-3,-7,-6,-8,-21,-81,-28,-13
2508,1,7,4,-8,-4,18,-2,-6
2514,-1,-1,7,-8,-10,-30,-11,-5
2514,-1,-13,-7,17,38,88,27,3
2530,1,18,8,9,17,48,24,5
2530,-7,-16,0,-10,-30,-20,3,-5
2537,3,7,-9,-15,-32,-70,-69,-17
2537,-5,-3,-2,3,-15,15,-4,-3
2538,-4,-16,-4,5,19,9,20,-1
2538,3,10,3,9,39,79,15,-11
2560,4,11,-1,-10,-16,-14,42,20
2560,-2,4,1,-13,-13,-36,-33,0
2560,-3,-14,-10,6,13,-21,1,-7
2560,-4,-9,-3,-1,-23,-24,-14,-6
2575,2,-3,-3,2,4,-23,0,-5
2575,0,3,2,-4,-2,-7,-7,3
2575,-3,-6,-8,-5,1,39,8,-1
2575,0,6,1,-3,5,10,1,1
2598,1,-4,0,9,9,34,-4,2
2598,-1,2,5,5,17,37,26,10
2598,1,-15,-6,-7,-35,-72,-12,-13
2598,-4,17,-1,-1,-9,21,-35,-11
2620,-8,-11,-6,-4,1,-3,-5,22
2620,0,-3,3,6,11,36,15,-1
2621,3,1,1,3,14,54,12,2
2621,1,0,-2,-10,-19,-79,4,0
2643,-3,-1,5,5,-1,101,-21,-9
2643,-2,-3,-2,-7,10,-72,27,1
2643,1,-2,-1,4,-36,-38,-31,3
2643,0,0,-4,-6,-11,-58,-26,-9
2664,-9,-7,-5,-2,13,33,13,-10
2664,2,-6,-3,4,45,94,14,10
2665,9,18,12,6,-14,-50,21,4
2665,0,4,1,2,-16,16,-17,1
2679,-5,-7,-1,-4,17,-18,-3,-8
2679,-1,4,-2,3,-6,10,5,0
2687,-11,-21,-4,-15,-7,-27,0,-18
2687,4,19,4,12,-11,-19,-29,14
2694,7,7,5,4,16,-12,13,5
2694,1,3,1,-4,-27,-21,5,-8
2695,-8,5,-3,-10,-5,-6,-14,-8
2695,0,-11,-3,3,14,45,24,4
2717,-8,-11,-6,-11,-12,-70,-17,-7
2717,-3,1,-4,1,-3,22,-9,0
2718,7,7,2,5,33,35,-4,3
2718,6,14,1,-2,-17,7,25,-2
2740,-2,-1,1,-10,-7,-3,-3,-5
2740,5,2,-1,10,38,48,2,4
2740,-5,0,-4,3,-27,-71,4,-1
2740,-12,-24,-13,-35,-65,-86,-53,-11
2754,5,0,7,21,17,30,-7,-11
2754,-2,5,1,7,14,6,4,1
2754,1,-2,4,7,37,77,12,2
2754,1,-5,-1,2,8,-7,22,7
2785,-5,-11,-4,-6,-23,-35,-5,2
2785,-1,1,1,-7,5,23,4,1
2785,-4,0,-1,1,-3,4,0,9
2785,-4,-14,-4,-9,-5,-51,-9,-2
2799,6,7,0,-3,-8,24,-8,-2
2799,-4,-10,-1,6,-15,-62,-19,-19
2801,2,10,-7,-17,-20,2,-11,5
2801,-6,-11,-5,5,17,43,14,-5
2813,-3,-2,0,7,17,38,17,3
2813,9,3,-3,-19,-17,-48,-5,-7
2830,-6,-21,2,10,-1,29,-18,-1
2830,6,14,4,8,46,87,35,5
2837,0,6,0,-6,-33,-61,4,2
2837,-9,-7,-9,-16,-57,-114,-49,-5
2851,1,2,-3,-12,8,13,-1,-4
2851,3,2,-1,18,25,49,3,2
2867,-2,0,2,10,32,49,28,7
2867,0,0,2,-3,-4,7,18,9
2868,9,9,-5,-9,-19,-30,-14,-1
2868,-9,-11,-7,5,4,-35,-20,-9
2874,-9,-13,-6,-2,-12,-12,-7,-12
2874,7,12,3,0,-9,11,3,14
2875,-2,-1,1,10,48,82,26,7
2875,3,4,4,-15,-30,-46,1,-3
2898,-9,-12,-10,-5,-21,-39,-24,-5
2898,-3,7,2,0,-1,4,-5,-3
2899,1,14,0,11,11,28,20,-3
2899,0,-2,0,-3,-17,-21,-21,0
2920,0,-1,-2,-5,11,-7,0,-6
2920,-1,-3,2,5,34,59,11,-6
2920,2,-7,3,3,-9,7,13,-1
2920,0,0,-1,-2,-1,7,13,2
2942,3,3,3,1,-15,-31,-5,8
2942,-3,-4,-5,-3,9,21,-11,-6
2942,0,10,3,-1,6,6,2,-1
2942,-5,-10,-5,-10,-41,-69,-26,-4
2958,-1,-7,-6,1,5,56,0,-7
2958,0,8,2,5,24,-33,6,-1
2958,-4,-2,-1,-10,-31,-18,-19,-4
2958,-4,-9,4,-7,7,15,30,5
2980,7,14,-9,11,20,-5,-2,7
2980,-1,12,1,-4,-10,0,1,-3
2981,-3,-9,-2,2,-19,-17,0,-2
2981,0,1,5,4,15,16,-14,-1
2993,-4,-2,4,-6,2,40,4,-8
2993,13,-1,-1,1,32,71,21,27
3002,-2,1,-1,-10,-43,-128,-11,-2
3002,-6,-2,-7,7,-8,44,-27,-6
3018,2,-6,8,-1,32,21,17,1
3018,-7,-9,-4,3,-43,-62,-8,-10
3018,2,1,-3,0,15,40,-18,-2
3018,5,0,-1,-1,26,25,18,2
3040,-4,-8,-2,-13,-36,-44,-4,11
3040,-4,-7,-1,9,-2,-8,-13,-4
3040,-4,-3,-3,5,17,11,11,0
3040,-1,7,6,0,-3,-3,6,-5
3062,8,19,-8,0,14,84,3,-3
3062,1,-7,6,0,-23,-86,6,-4
3063,-6,-12,-6,5,8,12,-14,-6
3063,0,-2,4,6,30,90,4,6
3084,0,13,4,-19,-11,-76,11,-7
3084,-5,-11,-10,-4,-50,-27,-18,-1
3086,-1,-7,-8,-2,15,-3,-17,-6
3086,7,12,0,0,7,-20,-5,-2
3100,-2,-10,0,0,-9,28,6,8
3100,-2,0,0,2,21,14,2,-13
3101,-2,-4,-1,-13,6,13,17,5
3101,1,-3,-2,1,-22,-59,-5,1
3113,-8,-12,-6,8,-20,-6,-17,-7
3113,1,-11,-1,5,59,111,19,10
3129,8,18,5,0,-11,-24,14,-6
3129,-1,-1,-3,-9,-57,-81,-22,-5
3137,0,-4,-2,-7,1,-36,-23,-5
3137,-11,-13,0,6,18,35,8,-3
3138,6,9,4,1,-5,-2,18,4
3138,-2,-1,-2,1,11,25,-15,-2
3160,2,0,1,3,-9,-45,0,-6
3160,-3,2,-4,-2,7,27,-1,-11
3161,-1,-23,-2,5,35,108,16,31
3161,0,31,3,1,-34,-123,18,2
3173,-2,-5,-3,-4,-36,-3,-51,-13
3173,-1,-3,-4,-10,8,-36,-7,5
3182,0,2,2,1,2,7,1,-6
3182,-3,-13,-7,-8,12,48,5,-6
3197,3,1,1,8,13,11,19,9
3197,4,4,0,-1,-6,1,4,-6
3199,-2,0,0,-6,-23,-64,-15,-6
3199,-4,-22,-5,-4,18,51,2,5
3219,9,10,5,8,4,-30,7,0
3219,-6,-2,0,-12,-44,-80,-31,-4
3220,0,-5,-8,-2,12,39,8,-5
3220,-3,-4,-4,5,11,20,2,-1
3234,-1,1,5,6,21,-3,2,4
3234,-1,-5,-2,-2,-8,49,4,0
3242,-4,10,-2,-4,-16,-73,-16,-17
3242,2,-3,0,-9,-6,-1,-13,-25
3272,3,5,-1,0,9,20,8,7
3272,-1,2,2,2,2,11,15,-2
3274,-4,-6,0,5,9,27,7,12
3274,-3,-4,-1,-1,5,19,11,-5
3287,6,8,2,-4,-10,-4,4,1
3287,-1,13,-3,6,-3,-24,-16,-1
3289,-3,5,0,-5,-22,-38,-12,-26
3289,1,-8,1,-1,17,21,0,22
3302,-10,-10,-8,-7,-5,39,15,4
3302,4,-4,-2,-2,-5,-58,1,-1
3303,-3,-10,0,1,-4,10,-17,0
3303,2,4,-1,-4,-3,-10,-3,-2
3316,0,3,-4,-1,13,34,3,0
3316,3,1,-1,0,17,17,6,9
3324,-6,-2,2,3,-9,-1,2,-6
3324,-5,-8,-3,0,3,30,6,9
3356,-6,-5,0,-6,-19,-91,-4,1
3356,4,8,0,-3,-22,-9,-17,-3
3357,2,-6,-2,-5,18,-6,6,6
3357,-2,-1,-1,9,9,25,6,-2
3378,-2,-2,-2,-3,4,17,5,-6
3378,-4,0,-1,-6,0,10,2,-2
3380,0,-1,3,-7,-8,-4,-6,-9
3380,6,7,-6,4,5,-4,0,49
3380,-1,-5,3,12,13,-10,1,0
3380,-2,-10,-1,-1,-27,-32,-17,-2
3402,2,16,-2,-3,-7,23,-2,-4
3402,2,1,2,-6,5,-46,7,-13
3402,-2,-2,1,-4,-24,-25,-16,-1
3402,-3,-14,-5,-1,18,59,3,-2
3406,2,13,4,0,8,-7,-3,2
3406,2,2,-2,6,-10,-9,10,1
3422,-4,-7,-3,-7,-5,-7,-23,-1
3422,2,2,1,1,-1,-18,4,-9
3423,-5,-13,-3,-2,-3,20,0,7
3423,-2,-4,-3,4,18,13,9,-8
3435,6,16,3,0,-4,13,7,-1
3435,-9,6,3,-8,-9,-25,-1,-2
3445,-2,-9,-4,-2,-15,-35,-8,1
3445,-3,8,1,-2,-11,8,-13,-21
3467,0,-11,-3,5,9,7,3,0
3467,8,7,1,2,22,33,10,4
3469,4,1,3,9,15,53,12,7
3469,-4,-2,2,-8,-13,-62,5,-12
3482,-7,-8,-3,-6,-22,-27,-22,-3
3482,-2,3,-4,-4,-11,1,-16,0
3484,-9,-23,-8,-7,5,-7,1,-7
3484,4,26,3,6,7,38,2,2
3496,3,6,2,9,25,43,21,5
3496,7,7,1,0,-8,-16,-6,-1
3505,-5,-4,-2,-1,-9,-18,-6,2
3505,-6,-24,-1,-7,-11,-9,-1,-5
3520,4,16,2,-4,3,13,-2,-2
3520,-2,-4,-1,7,17,33,15,0
3521,4,6,0,-1,-20,-61,-8,-3
3521,-14,-8,-3,-1,8,36,-15,-2
3549,6,-2,-1,0,-4,-30,2,-6
3549,-2,-6,-2,-2,-6,2,-12,1
3551,0,-1,-1,6,14,11,5,1
3551,3,1,1,2,4,27,13,4
3555,-9,-19,-4,-2,3,-13,10,1
3555,-3,6,0,-8,-12,-29,-8,-4
3565,-3,-2,5,-15,-18,-24,-10,1
3565,6,-9,-14,10,-7,-23,-25,-14
3579,4,17,-2,-1,6,33,9,8
3579,-2,-7,1,5,18,21,13,3
3582,-6,-4,-1,1,-2,-35,3,10
3582,-1,0,1,-9,-6,18,1,1
3602,-5,-9,0,-10,-15,-21,-10,-12
3602,-3,0,-2,-3,-9,-29,-12,-4
3604,2,-4,2,13,17,41,2,2
3604,0,-4,-2,-6,-1,2,9,2
3616,-4,2,1,9,20,71,13,2
3616,11,8,4,-1,-16,-60,3,5
3656,0,-10,-7,-4,-12,-5,-20,-4
3656,4,18,2,-4,-10,-43,-7,0
3657,-9,-9,-4,-9,-6,13,-16,-7
3657,-7,-8,-2,-2,14,40,20,3
3658,3,5,-2,10,17,60,14,2
3658,-2,-6,-2,-8,-12,-39,7,6
3662,0,-7,2,2,-6,-31,-9,0
3662,-2,-4,-2,3,-13,-7,-13,-7
3663,8,6,-3,-4,-10,-1,1,0
3663,-2,1,0,4,15,31,-1,-9
3684,-4,-15,-2,-4,-5,-14,14,20
3684,4,1,-3,-6,7,-6,-12,5
3686,-3,1,3,-2,-9,1,-4,-5
3686,-10,-14,-3,-8,-6,8,-3,3
3715,-1,-3,-5,6,11,24,-2,-5
3715,7,14,1,-2,-8,-27,2,-2
3716,-1,-1,2,-2,3,20,2,1
3716,-8,-11,3,7,10,-10,-10,0
3722,1,7,1,-1,-12,-21,13,-8
3722,-8,-8,-6,-5,-18,-13,-9,-2
3724,-6,-2,-3,-2,6,-20,-6,-10
3724,8,4,1,3,8,40,7,4
3736,-1,-1,-3,0,-7,5,8,0
3736,-7,-4,3,1,12,7,-11,2
3745,-4,-1,-1,0,-7,-13,-7,-3
3745,-4,11,-2,-11,-28,-41,-12,-15
3760,3,-7,4,-1,4,1,-9,3
3760,3,18,-4,0,11,59,17,-4
3761,7,-3,-4,2,17,26,1,13
3761,-4,-8,3,15,-13,-52,12,8
3782,-14,-2,2,0,-4,-12,-20,-40
3782,-3,-22,-5,-5,0,7,2,-4
3783,3,13,3,0,13,61,8,1
3783,-6,-20,-9,-19,-8,-38,-1,8
3796,14,41,8,8,-9,0,-5,12
3796,0,-9,1,8,3,-37,-6,-5
3804,1,-3,-3,-4,-12,0,1,8
3804,1,-2,-3,-7,6,23,6,-1
3828,-7,-12,-4,-4,1,8,2,1
3828,-4,-21,-2,0,-2,1,2,0
3829,13,13,5,5,1,-3,1,-5
3829,-4,10,-2,6,3,-22,3,-1
3842,-1,-27,-7,-5,-15,-24,-19,-8
3842,-5,40,2,-4,-1,36,6,-3
3844,3,-25,-6,-12,-10,-42,-2,7
3844,-2,1,1,6,2,29,3,-3
3856,-4,-16,-5,-4,13,2,5,1
3856,-7,-18,-5,3,-10,-21,2,-1
3865,-50,-3,2,3,-1,15,-11,-22
3865,19,27,4,-1,2,-2,-6,4
3879,-5,1,-4,-4,0,-3,4,2
3879,6,-1,-1,-2,3,9,-3,5
3882,7,-9,-3,4,-4,-33,-10,0
3882,0,4,5,4,0,25,7,5
3903,-7,1,-4,-1,5,-5,3,12
3903,4,1,2,3,2,18,5,-6
3904,1,0,-3,-2,-5,4,14,9
3904,0,-9,2,1,-12,-58,-24,-17
3916,1,8,-1,-13,-10,-4,1,1
3916,-9,2,-5,-2,3,-2,-13,0
3964,18,8,-2,0,-7,-8,-3,-3
3964,8,-4,-3,2,3,38,6,7
3965,-3,-7,1,1,9,15,0,4
3965,17,4,2,2,14,20,10,-2
3978,4,29,6,6,-16,-20,3,-2
3978,4,6,-4,-6,-12,-35,-10,1
3979,-3,9,3,-2,5,19,-22,-11
3979,-18,-30,-11,-5,-2,-26,13,-2
3980,-4,-3,-2,2,-9,-7,-3,-12
3980,-6,-5,-2,-9,-6,5,-10,0
3985,-16,-25,-10,-7,8,-23,5,-11
3985,-2,5,0,1,-8,0,7,0
4000,5,-4,0,0,-1,-12,-2,14
4000,-5,5,1,-7,-4,23,-7,-4
4001,-20,-24,5,5,-1,-19,4,2
4001,10,10,-10,5,18,42,-8,3
4022,19,22,4,5,-7,-38,0,-1
4022,-7,-8,0,3,-13,-24,-6,0
4024,0,-5,-9,-14,-3,-10,-7,5
4024,-9,-15,-5,-11,-5,11,-2,-5
4036,3,6,-3,1,11,27,10,3
4036,15,28,5,4,-1,-3,3,-5
4044,-13,-18,1,3,10,-7,13,0
4044,11,10,-3,-5,-21,-20,-15,-3
4059,-33,-16,-12,-6,-13,-16,-9,-19
4059,8,-2,4,-3,1,0,-1,13
4066,-9,-12,-12,-11,3,31,4,9
4066,-13,-27,7,25,16,8,13,-1
4082,8,33,2,1,-4,-3,2,-3
4082,-16,-5,-6,2,1,13,3,-10
4083,14,3,1,-5,-5,-28,-7,-5
4083,0,-13,0,-2,3,18,-1,6
4104,2,-8,2,6,-5,-30,-5,14
4104,-5,0,-4,-3,5,21,9,-8
4112,-8,-6,-2,-2,4,4,1,-4
4112,-3,16,-2,-20,-9,-4,-5,0
4120,6,-18,1,6,0,-10,-7,2
4120,-7,-9,1,8,-8,3,1,8
4126,-11,-19,-10,-3,-8,-36,-10,-24
4126,5,25,10,4,5,10,6,3
4142,7,18,2,2,8,26,4,1
4142,5,-2,-1,-6,4,4,-5,6
4143,3,4,1,5,-3,-9,1,4
4143,-9,-10,-6,-11,-3,-6,-2,-7
4172,-24,-27,-11,-12,-4,-1,8,-5
4172,21,-11,-5,-3,-3,-12,4,7
4173,4,9,2,9,3,28,8,-6
4173,-6,8,7,6,5,-10,-10,-8
4179,19,7,6,-1,1,2,9,13
4179,-6,8,4,3,0,-8,-17,-2
4186,-5,-5,-3,-7,-2,10,5,-14
4186,-11,-14,-6,-8,-1,-14,8,-7
4203,6,2,-6,-6,-1,15,-4,3
4203,-13,-34,-3,4,3,-7,-5,8
4204,18,37,11,1,0,4,-10,18
4204,-5,-7,0,2,-2,-4,7,-6
4216,9,0,-3,-1,0,2,-3,2
4216,-8,-6,1,-7,-3,-8,6,2
4225,6,9,-3,-4,-7,2,-5,7
4225,10,24,-2,-1,1,3,-2,4
4239,-11,-33,3,3,0,2,-3,-11
4239,-8,4,-4,-4,-1,-11,-8,-9
4246,-5,-14,-3,2,2,10,3,8
4246,0,-10,-4,-10,0,-4,-2,-5
4262,5,32,10,7,3,-2,6,-19
4262,1,1,0,-1,2,0,8,22
4263,2,-22,-5,-8,0,5,-8,9
4263,20,9,4,6,2,0,3,7
4284,-15,-20,-5,3,0,-3,-12,-8
4284,10,10,0,-5,-1,-1,-3,-16
4286,-12,-1,-4,-4,-2,1,1,4
4286,-6,-38,0,2,0,-2,13,1
4299,11,15,-2,-5,-2,-3,11,-9
4299,3,18,9,11,0,-2,-9,-2
4306,-19,10,-1,0,-4,-3,-5,0
4306,12,5,3,2,-2,2,-5,-13
4323,16,7,-3,-4,-2,5,-2,4
4323,9,15,-2,-6,-2,-2,6,3
4324,-9,-5,-3,0,1,0,-11,-5
4324,-12,-6,-1,-2,-1,-3,2,-5
4345,-5,-14,-3,-3,1,1,2,17
4345,-10,-12,-5,-2,-1,-4,0,-8
4346,3,2,1,0,1,3,0,-3
4346,-11,-13,-12,-4,0,-2,-5,10
4359,5,4,10,9,0,1,-4,0
4359,13,-1,4,1,1,1,1,-7
4367,7,11,1,0,-2,0,5,-28
4367,1,-4,-7,-8,-3,-6,-17,20
4383,-31,-14,-12,-9,-5,-2,12,-1
4383,-12,-19,-3,-5,-2,-1,4,-2
4385,22,-9,-3,1,-2,3,2,11
4385,12,53,1,1,2,-1,-1,-9
4404,12,-1,13,14,4,3,-10,-1
4404,7,-7,-2,-4,-1,-1,0,12
4406,-21,-13,3,1,-1,1,0,-7
4406,-18,-11,-10,-8,-3,-2,0,-18
4418,-9,-8,-7,-9,-2,-2,-5,6
4418,-4,-18,-1,8,-1,-5,2,0
4427,6,35,12,4,2,1,-1,-7
4427,33,8,6,6,3,2,2,15
4442,-8,11,-5,-7,-3,-2,-1,0
4442,-3,10,-4,-5,-2,-1,-3,-14
4444,-9,-23,-4,2,-1,-4,-8,5
4444,-5,16,1,-7,-5,-3,4,4
4464,8,6,7,6,3,3,4,-1
4464,-4,7,-14,-6,0,1,0,-9
4467,-2,-7,17,20,4,1,-5,2
4467,8,-4,0,1,1,-2,-7,-5
4478,-11,-8,-4,-5,-4,-1,-1,-4
4478,5,14,-4,-5,-2,-3,-2,8
4486,-6,-14,-12,-10,-3,-1,2,-4
4486,-7,-4,2,2,-1,-1,-1,9
4502,5,24,-1,-2,2,1,3,-26
4502,-4,-8,7,2,0,-1,-4,13
4504,9,33,6,-1,-3,-2,5,3
4504,-25,-32,-8,0,-4,0,-3,-14
4524,17,21,-1,-5,-1,-3,-1,14
4524,18,-4,10,7,3,3,2,2
4527,4,-14,-5,1,0,-1,-6,-6
4527,-11,-4,-1,0,0,0,-5,4
4538,-11,-15,-7,-7,-3,-3,-4,-3
4538,-1,5,-1,0,-4,-5,-2,-22
4547,-2,-7,-5,-6,-1,-3,4,44
4547,-1,-3,-5,-5,-1,-3,0,-7
4562,-1,-17,-6,-4,0,0,0,4
4562,-5,20,12,13,0,1,-3,-7
4563,-8,-29,-5,-3,-2,-1,-3,-10
4563,20,16,1,1,0,2,1,4
4584,-6,-4,-3,-2,-2,-1,-1,-1
4584,-8,-6,-9,-13,-2,0,1,1
4586,-20,-28,-19,-10,-4,-2,-3,-12
4586,38,4,26,22,11,3,5,9
4598,10,0,3,2,2,0,-4,0
4598,-5,-6,-6,-3,0,-1,0,5
4608,-6,-7,-3,-5,-2,-2,-4,-19
4608,-21,-12,-10,-8,-4,-4,-4,-7
4622,-2,2,3,2,-1,0,1,4
4622,3,-4,-3,-5,-2,2,-1,5
4623,-1,12,2,2,-2,-1,0,1
4623,-3,4,4,4,-3,-1,-1,-9
4644,0,-3,0,-1,-3,0,4,2
4644,-4,3,-2,-3,-2,-1,-3,-15
4646,2,3,-1,-2,0,1,7,35
4646,-3,1,-2,-3,-2,-3,-1,-16
4659,-8,-11,-1,-1,0,-2,-2,-31
4659,-6,-5,-4,0,1,-1,-2,12
4666,8,11,3,2,1,-2,1,11
4666,-3,-5,-14,-4,-3,-2,-1,5
4683,1,1,24,1,-1,-2,-3,7
4683,-6,0,0,1,-1,-2,-10,-35
4684,10,6,2,5,6,-1,-4,-46
4684,-10,-2,-3,7,-4,0,8,55
4705,10,-5,-15,-12,1,-1,-1,-4
4705,2,2,-9,-3,-10,-1,4,15
4706,-11,-1,19,-13,-8,-5,-16,-64
4706,-28,-10,-13,-8,-3,-13,-34,-87
4719,40,12,1,14,18,13,51,105
4719,-7,3,4,4,-4,5,-13,-78
4728,-3,-3,-12,-4,-1,-8,-11,35
4728,14,9,8,5,3,10,16,-26
4742,-19,-10,-5,-4,-5,-8,-21,-16
4742,12,2,-2,0,8,2,26,70
4744,5,4,-4,5,0,1,-13,-55
4744,-31,-16,-7,-13,-14,-26,-49,-60
4765,20,4,-3,0,-6,3,4,-1
4765,11,14,15,8,5,6,1,-55
4766,-13,-6,-5,-4,-12,-6,1,-71
4766,-13,-4,0,-1,4,0,2,79
4779,16,-3,-5,-5,-6,-7,10,-7
4779,-23,-6,-4,-2,-1,-1,-22,-47
4787,8,3,-1,1,4,8,2,14
4787,-2,-2,-2,-6,-5,-11,23,5
4802,-40,-14,-8,-2,-1,-2,-15,-40
4802,6,-2,-2,-8,-3,-6,16,59
4810,6,3,-2,3,2,1,-9,-5
4810,-11,-1,2,0,1,7,3,-23
4824,-8,-2,0,2,-6,-1,-14,-9
4824,19,4,3,3,2,0,-10,4
4826,-16,-3,-6,-1,-6,-5,19,19
4826,10,4,2,0,2,6,4,15
4839,-5,1,-1,-2,1,1,13,10
4839,-3,-9,-6,-4,-4,-6,-20,10
4847,8,0,-2,-3,-1,0,7,37
4847,-4,2,3,0,1,4,1,-20
4862,-11,1,1,-1,-2,-5,-32,-61
4862,-25,-9,-3,-2,-1,-1,11,24
4868,18,6,1,0,-1,1,11,-20
4868,18,6,3,2,1,7,12,43
4885,-4,-1,-1,-2,-2,-4,-12,-11
4885,-6,-2,-3,-1,-1,-5,-6,-24
4886,-14,-2,0,0,1,-1,-1,-4
4886,1,0,-1,-1,-2,-1,-10,-13
4898,-3,-1,-1,-3,0,0,10,1
4898,2,-2,-1,-4,-1,-3,11,12
4913,0,-3,-1,-4,2,-2,-3,11
4913,6,0,-1,-2,-1,4,-2,-28
4921,-6,-2,-1,0,-3,-2,-5,11
4921,-2,-1,-1,0,0,1,-1,-14
4924,8,3,0,1,0,-1,-6,3
4924,6,-1,1,0,-1,1,4,9
4945,-4,-2,-1,0,-1,1,3,-3
4945,3,-2,-1,-1,0,0,-2,-8
4946,-2,-1,-1,0,-3,-3,-7,-23
4946,4,1,0,0,1,-1,5,21
4958,-6,-1,-1,-1,-3,-3,-4,-15
4958,2,-1,1,-1,-1,-2,7,25
4967,0,0,0,-1,0,3,-6,3
4967,2,0,-1,-2,-1,-3,12,-3
4982,-13,-4,-3,-1,0,0,-4,-20
4982,13,4,-1,1,-1,-4,-3,-12
4983,-2,1,-2,1,1,2,-3,18
4983,-1,-3,-2,-2,-3,0,-5,-9
5005,-2,-2,-1,-2,-1,1,0,11
5005,0,-2,-1,-1,0,2,1,14
5006,-2,-1,0,-1,1,-1,4,12
5006,7,2,0,1,0,-1,-6,-12
5019,1,0,-2,1,-1,-1,-1,1
5019,-1,-1,-2,-1,-1,0,-5,-10
5028,1,-3,-1,-1,-3,-1,-1,3
5028,-7,-3,-1,-2,1,-2,0,-2
5042,-2,-1,0,-1,0,-2,-2,0
5042,-4,-1,0,-1,-3,-2,-3,-4
5049,3,1,-1,0,0,0,1,2
5049,-1,0,-1,-2,-2,0,-4,-7
5064,1,-1,-2,-1,0,-1,-2,15
5064,-2,-1,-1,0,0,0,0,-5
5066,-5,-1,-1,0,0,1,0,4
5066,-1,-1,1,0,-1,0,0,7
5079,2,0,-1,0,-1,0,-2,-3
5079,1,-1,1,-2,-3,0,-2,-2
5095,0,0,-1,0,-2,-1,-3,5
5095,-1,1,-1,-2,0,-1,-2,0
5101,-1,0,-1,-1,-1,-3,-1,-4
5101,-3,-1,-1,0,0,-1,-1,-4
5108,-1,-2,0,-1,0,0,-5,-2
5108,0,-3,-2,0,0,-1,7,-1
5125,6,2,2,0,0,-2,1,1
5125,-1,-1,-1,-2,-1,1,-2,-5
5126,2,0,-2,-2,-1,0,0,-1
5126,-2,-1,-2,-1,-1,0,-4,-2
5139,-3,-1,-2,0,-1,-1,-4,-4
5139,-1,0,-1,-1,-2,-1,1,-2
5147,-3,-1,-1,-1,-2,-1,0,-2
5147,-1,-1,-1,-1,1,1,0,0
5161,-3,0,-2,-2,-1,-3,-1,-1
5161,-1,-1,-2,0,-2,-1,-6,-3
5169,-2,-1,-1,0,0,-1,0,2
5169,1,0,-1,1,0,1,1,2
5193,0,-2,-2,0,-1,-2,1,-1
5193,-5,0,-1,-1,0,-1,-1,-2
5194,2,-2,0,0,-1,1,5,1
5194,-2,0,0,-2,0,1,-1,-1
5215,-1,-1,1,0,-2,-1,0,0
5215,-3,0,0,-1,-1,-3,-1,0
5216,-2,-1,-3,-1,-2,-3,0,1
5216,-1,-1,0,-1,-2,-2,-3,-1
5221,1,-2,-1,-1,-1,-1,-1,0
5221,1,-1,-1,-1,-1,-3,0,-1
5230,-3,-2,0,-2,-2,-2,-2,-1
5230,0,-3,-1,0,-1,-3,-2,0
5245,1,-1,-1,-1,-1,0,-2,-4
5245,-2,-1,-2,0,0,0,1,-2
5246,-1,0,1,-1,0,-1,0,-1
5246,-2,-1,0,-1,-2,-2,0,0
5267,-2,-2,-1,-1,0,1,-1,-2
5267,-3,-2,0,-2,-2,0,0,0
5268,-1,-1,0,-2,-1,-1,-2,2
5268,0,-1,-3,-1,-1,-1,-2,1
5281,-4,-2,0,-1,-1,0,-2,-1
5281,2,-1,-1,-1,-2,-1,-3,-1
5290,-1,-2,-1,0,0,0,-1,-3
5290,2,-1,-1,0,-2,1,3,2
5305,-2,-2,-1,-3,-2,1,-2,-2
5305,-1,1,-1,-1,-1,0,1,-1
5306,1,0,-2,-2,-1,-2,-3,-2
5306,-7,1,-3,-1,-1,-1,-4,-3
5327,3,1,-2,0,0,0,4,1
5327,-2,-3,-1,-2,-2,-1,-2,-1
5328,-1,0,0,-2,-1,-2,-2,1
5328,-2,-1,0,-1,0,0,-2,-3
5340,0,-1,-1,-1,0,-2,-2,-1
5340,1,0,-3,-1,1,0,-1,-1
5350,-2,-2,-2,0,0,0,0,-1
5350,0,-1,-2,-2,0,0,-1,0
5365,-3,0,-1,0,-1,-2,-2,-1
5365,1,-3,-1,0,-1,-3,0,-1
5366,-2,-1,-2,-1,0,-1,-1,-2
5366,1,-1,0,-2,0,-2,-2,-2
5387,-2,-3,-1,0,-1,0,0,-1
5387,-3,-1,-1,-3,-1,-1,-1,-2
5389,-3,-1,0,0,-2,0,-2,-1
5389,-1,0,0,-1,0,-2,-2,0
5401,1,0,-1,-2,-1,1,0,0
5401,-2,-2,-2,1,-2,0,-1,-1
5410,-1,-1,-2,0,-3,0,0,-3
5410,1,-1,-1,-2,-3,-3,1,-2
5424,2,1,1,1,-1,-2,-1,-1
5424,-1,0,0,-1,-1,-1,-2,-1
5425,-4,-1,-2,-2,0,0,-1,0
5425,-1,-2,-1,-2,-2,-1,-2,1
5447,-2,-2,-3,-3,-2,-1,-1,0
5447,1,0,-1,-1,-2,-1,-1,-2
5448,-1,0,1,1,-1,-3,-1,0
5448,-2,-1,-1,0,-3,-2,-3,-2
5461,1,0,0,-3,1,-1,-1,-2
5461,2,1,-1,0,1,-1,-1,-3
5470,-1,-2,-1,0,-1,-1,0,-1
5470,-3,1,1,1,0,-2,-1,0
5493,1,-1,0,-1,-1,-2,-3,2
5493,-1,-2,0,-1,-1,-2,-2,1
5494,0,-1,0,-2,-2,-1,-1,-1
5494,1,-2,-3,-2,-1,1,-1,-2
5507,-3,0,-2,-1,-3,-1,0,-1
5507,1,-1,0,-1,0,0,1,-1
5509,0,-1,-2,0,-2,-2,0,-2
5509,-1,0,-1,-1,1,-2,0,-1
5520,-3,-2,-1,-2,-2,-2,-1,-1
5520,-1,-1,-1,-1,0,-1,-2,-1
5530,0,1,-2,-1,0,-2,-2,-2
5530,-3,-1,-2,-1,-2,1,0,-2
5545,2,0,1,-1,2,1,-2,-1
5545,-2,-1,-1,-2,-1,-1,-3,-1
5546,-1,-3,-3,0,0,-3,-2,-2
5546,0,0,0,-1,0,-1,-2,-1
5567,-1,-2,-1,-1,-2,1,-2,-2
5567,-1,-1,-1,-1,-2,-1,0,-2
5569,1,0,1,-1,-2,1,0,0
5569,5,0,1,-1,1,-1,-3,0
5581,-1,-1,-1,0,-2,-1,0,-2
5581,-2,-1,-2,-2,-2,-1,2,-1
5597,-1,-1,-2,0,1,-1,0,1
5597,-2,-2,-1,-1,-2,-1,-2,-1
5604,-2,-2,-1,-2,-1,-1,0,0
5604,0,1,-1,-1,0,-2,-2,0
5607,-1,-2,0,-1,-2,-1,0,-2
5607,-1,-2,-1,1,-3,1,0,-1
5627,-3,-3,-1,-1,-1,-2,-1,-2
5627,-1,-1,-1,0,-2,-1,-2,-2
5629,2,-1,0,-1,-1,-1,-1,-1
5629,1,0,-1,0,0,-2,-1,-1
5650,0,0,-1,-2,0,-2,2,0
5650,-3,-2,-1,-2,0,0,0,-2
5651,-3,0,-1,-2,0,1,-3,1
5651,-1,-1,0,-1,-2,-1,-2,-2
5665,-2,0,-1,-3,-2,-2,-2,-1
5665,-2,-2,-2,-2,0,-2,1,0
5667,4,2,-1,0,0,-1,-1,-2
5667,-2,-1,-2,-1,-1,-2,0,-3
5687,5,0,-1,-1,0,-1,-1,-1
5687,0,0,-1,0,-1,-2,-4,0
5688,-3,-2,-2,-2,-3,-1,-1,-2
5688,-1,0,-2,-1,-2,0,-1,-2
5701,-2,0,-2,-1,0,-1,-2,-1
5701,-2,0,0,0,0,0,-2,-1
5709,1,-1,-2,-1,-1,-2,-1,0
5709,1,1,1,-2,-1,-2,0,1
5725,-1,-4,-1,0,-1,2,-1,0
5725,2,-2,-2,-1,-1,0,-1,0
5726,-3,-1,-2,-1,-1,0,-1,0
5726,-2,-3,-1,0,0,-3,0,0
5748,-3,0,1,0,0,0,-1,-2
5748,-1,-1,0,-1,0,1,0,-2
5749,2,0,0,-3,0,-1,0,-2
5749,-3,-1,-2,-1,-1,0,0,-1
5761,-3,-2,-1,0,0,-2,-3,0
5761,-3,-1,0,-1,-1,-4,-1,-1
5770,-1,0,0,-2,-2,-2,0,-1
5770,-3,-3,-2,-1,-1,-1,-2,0
5784,-5,-3,-2,0,-1,-1,1,-2
5784,1,0,0,0,-1,0,1,0
5791,0,-3,-2,-2,-2,0,-3,-2
5791,1,0,2,-1,-2,-2,-4,0
5807,2,0,-1,-2,-2,-1,-2,-1
5807,-2,-1,-2,-1,-2,0,-1,-1
5809,-3,0,0,-2,-2,-1,0,2
5809,-3,-1,-1,-1,-2,-2,1,-1
5821,0,1,-2,-1,0,-3,0,-1
5821,-1,-1,1,-1,-1,-1,0,-2
5829,-1,-1,0,1,0,-2,-1,-3
5829,-1,-2,0,-1,0,0,0,-1
5845,0,-2,0,-1,1,0,0,0
5845,-2,-1,-3,-2,-1,-2,0,-2
5846,6,0,2,1,0,0,-2,0
5846,-1,-1,-2,-1,0,-1,-2,-2
5867,0,0,-2,1,-3,-2,-2,-1
5867,1,0,-1,-3,-2,-1,1,1
5869,0,-2,-1,-1,-1,-2,0,-1
5869,0,1,-2,-2,-1,1,-2,-1
5881,0,1,1,0,0,-2,1,-1
5881,-1,-1,-1,0,0,-4,-2,-1
5890,-1,-1,-1,-1,-2,-1,0,0
5890,1,0,-1,-1,-1,-2,-2,-1
5905,-3,-2,-1,-1,-1,2,-1,-2
5905,-1,-1,1,1,-1,0,-4,0
5906,-2,0,1,0,-1,-1,-2,-3
5906,1,0,-3,0,0,-1,0,0
5935,-1,-1,-2,1,-1,-2,1,1
5935,-3,0,-2,-2,-2,-1,-1,-3
5936,-3,-1,-1,-2,-2,-3,-2,-2
5936,-2,-1,0,0,-1,-2,2,-2
5941,0,-1,-1,-2,-2,-1,2,1
5941,-2,-1,-1,-1,-1,0,1,0
5956,-3,-2,-3,0,-2,-2,0,-2
5956,-1,-1,-1,0,0,-1,-1,-1
5964,-2,-2,-1,-1,0,1,-2,-1
5964,0,-1,0,-1,-1,-1,-1,-3
5971,-2,0,-1,-1,0,1,-1,-1
5971,-1,0,0,-1,-2,0,-1,-1
5987,-7,-2,-1,-1,-2,-3,-3,-2
5987,6,-1,1,1,-1,0,-1,2
5988,-3,-1,-1,0,-2,-2,0,-1
5988,-1,-1,0,0,-2,-1,0,-1
6001,-3,-3,-2,0,-1,-1,0,-3
6001,-3,-2,-1,0,-1,1,-2,-3
6010,0,-1,-2,0,0,-2,0,0
6010,-2,0,-1,-1,-1,-2,-1,-1
6024,3,2,0,-2,-2,0,-2,1
6024,-3,-1,0,-2,-2,-2,-1,0
6030,-3,-1,-1,-1,-1,0,-1,0
6030,-1,-1,-1,-2,-2,-1,-1,-2
6048,1,-1,-1,-2,1,-1,-2,-1
6048,-2,-1,-2,0,-2,0,0,-1
6049,-2,-2,0,-1,1,2,-4,-2
6049,-2,-1,-1,-2,0,1,-1,0
6061,0,0,-1,-1,0,0,-2,-2
6061,1,0,-1,0,0,-1,-2,-3
6070,0,-1,-1,0,-1,-2,0,-3
6070,2,-1,-2,-2,-1,-1,0,0
6085,0,-1,-1,1,-2,-1,0,0
6085,-1,-2,0,-1,-1,0,1,0
6086,0,-1,0,0,-2,0,-1,-3
6086,-2,-1,0,-2,-1,1,-1,-2
6107,-2,-1,-1,-1,-2,0,-4,-1
6107,1,-1,-2,-2,-1,-1,-1,1
6109,-5,-2,-3,0,-1,-1,-2,-1
6109,4,-1,0,0,-2,-1,0,0
6121,1,-1,-2,-1,-2,-1,2,-2
6121,-2,-2,1,-1,0,-3,1,-1
6129,-2,0,-1,-1,-2,-1,-1,-1
6129,-2,-1,-2,0,0,-1,-3,0
6144,1,-1,0,-2,0,0,-2,-1
6144,0,-1,0,-2,-3,0,-4,0
6151,0,0,0,-1,0,-1,-1,-3
6151,-2,-1,-1,0,-1,-2,0,-1
6167,2,1,-1,1,-1,-1,0,2
6167,-2,0,-1,-2,-1,-1,-1,2
6169,0,-2,-1,-2,-1,-3,-1,0
6169,-1,0,0,0,-2,-2,-2,-1
6197,-3,-2,-2,-2,-2,0,-1,-1
6197,0,-2,-3,0,-1,-1,-2,-1
6198,-1,-1,-1,-2,-1,-1,1,-1
6198,-4,-3,-1,-1,-1,-1,0,-1
6205,0,0,-1,0,0,-2,0,0
6205,-1,0,-2,1,-1,0,-1,-2
6206,2,0,-2,-2,-1,-1,0,1
6206,0,-1,-1,-2,-2,-1,0,0
6235,1,0,-1,-1,-1,0,0,1
6235,-2,-1,-1,-2,-1,-2,0,0
6237,0,0,-2,-1,-1,0,-3,-4
6237,-1,-1,-1,-2,-2,-1,-2,-1
6249,-1,-1,0,0,1,-1,0,-2
6249,0,1,-1,2,-1,-1,0,0
6256,-3,-2,-1,1,-1,-1,-2,-1
6256,0,-1,0,0,0,1,-2,1
6265,-2,-3,0,-1,-2,-1,0,-2
6265,-1,-2,-2,-2,-1,-1,-1,-1
6267,3,0,0,-1,-1,1,0,0
6267,0,1,-1,1,0,1,0,-1
6287,-3,0,0,-2,-1,-1,0,-2
6287,-2,-1,0,-1,-1,-2,2,-2
6288,-3,-2,-2,-1,-1,-2,3,-1
6288,-1,-2,-1,-2,-2,-2,0,-2
6310,0,0,-2,0,0,0,-2,-2
6310,-1,0,-2,0,1,0,-1,-1
6311,2,0,-1,0,-2,-2,-2,2
6311,2,0,-1,0,-1,-2,-1,-2
6324,-1,-3,-2,0,-2,-3,-2,-2
6324,1,-1,-2,-1,-2,-1,-1,-1
6330,-1,1,-1,0,0,1,0,-1
6330,-5,-4,-2,-1,0,0,0,-2
6347,2,-1,-2,-1,-1,-1,-1,-2
6347,-1,-3,-1,-1,-1,-1,-4,-1
6349,-1,-1,0,-1,-3,1,-3,-1
6349,-4,-3,-3,-1,-2,-2,-3,-1
6370,-3,-1,0,-1,-2,1,-1,-1
6370,1,0,-1,-3,-2,-1,0,1
6371,-1,0,1,-2,-3,-2,-4,0
6371,0,0,0,-1,-1,-3,-4,-1
6385,-3,-3,-1,0,-1,-2,-2,-1
6385,0,-1,0,0,-1,-1,-2,-3
6391,-1,-1,-2,-2,0,0,0,-2
6391,2,0,0,0,-2,-1,-3,2
6408,1,-1,-2,-1,-1,-1,-3,-1
6408,-2,-1,0,1,-1,-1,-3,-1
6409,0,-2,-1,-2,-1,0,-1,-2
6409,-1,0,-2,-1,1,1,0,-3
6430,-2,-1,0,-1,-1,1,0,-1
6430,-2,-1,0,-2,-3,0,0,0
6431,-1,0,-2,1,0,-1,-2,-2
6431,0,0,0,-1,0,-1,-1,0
6444,0,0,0,-2,-2,0,-2,-1
6444,-2,-1,-1,-1,1,0,0,-3
6451,-5,-1,0,0,-1,-4,-1,1
6451,1,0,-1,-1,0,-2,0,-2
6468,-1,-2,-2,-1,-1,-2,0,-1
6468,0,0,-1,-2,-2,0,-1,1
6469,-3,-2,-2,-2,-1,1,-3,-1
6469,-1,-1,-2,-1,-1,2,-1,-2
6490,0,-1,-2,-3,-1,-1,-3,0
6490,3,0,-1,-1,0,-1,-1,-1
6491,0,-1,0,-2,-1,-2,1,-1
6491,-1,1,-2,-2,0,-4,2,0
6504,1,0,-1,0,2,-1,1,0
6504,-5,-2,-2,0,-1,-2,0,-3
6511,5,-2,1,0,-1,-2,-1,0
6511,0,-3,1,0,-4,-1,-4,0
6526,-2,0,-2,-1,-2,-1,-1,0
6526,-2,-1,-1,-1,-3,-1,-1,-2
6529,2,-1,-1,-2,0,0,0,0
6529,-1,-1,-3,0,-2,1,-2,-1
6550,-1,-1,-1,-1,0,0,-1,-2
6550,-1,-1,0,-1,-2,0,0,-2
6551,-2,0,-1,-2,0,-1,0,0
6551,-1,0,-2,-1,-1,0,1,0
6563,-3,-2,-1,-3,-2,0,0,-1
6563,2,0,0,-1,-1,-2,0,-3
6570,0,-1,-2,0,0,-2,-1,4
6570,0,-1,0,1,0,-1,-1,-2
6586,-1,-2,-1,-1,0,-3,-1,-1
6586,4,0,-2,-1,1,-1,-2,1
6588,0,0,1,-1,-2,1,-3,-3
6588,-1,0,-2,-2,0,-1,0,-3
6618,0,-3,-1,1,-2,-2,-1,-2
6618,-2,-2,-2,-1,-3,0,1,-1
6619,4,1,1,-1,-2,-3,0,-1
6619,0,0,1,-1,1,-3,0,2
6624,-2,-1,0,-1,-1,-2,0,-2
6624,-2,1,0,-2,-2,0,-4,0
6631,-2,-2,-1,0,-3,-1,-1,0
6631,-3,-1,-3,-2,-1,-2,1,0
6647,0,-2,0,-2,-2,-1,1,-3
6647,-5,-3,-1,0,-1,-2,-1,2
6648,2,0,-1,0,1,1,1,-4
6648,-4,-1,-1,0,-1,-2,-1,-1
6676,-3,-1,0,-1,0,-1,0,-3
6676,-3,-2,-3,-1,1,-1,-2,-3
6679,-4,-1,-2,-2,-2,0,-1,3
6679,-2,-2,-2,-2,-2,0,2,-3
6683,-1,-1,-2,-1,0,-1,-1,-1
6683,-1,-2,-1,0,0,-2,-2,-3
6699,0,-1,-2,-1,0,-2,0,-5
6699,0,-1,0,-1,-2,0,-4,-1
6707,-6,-1,-2,-1,0,-3,-2,10
6707,2,2,1,-1,0,-2,-2,-7
6709,-5,-3,-2,-2,-1,-1,-4,-1
6709,5,-2,-1,-3,0,-1,2,3
6730,4,0,1,-1,0,2,-2,1
6730,5,-1,0,-1,-1,1,-1,-12
6731,-4,-1,0,-2,0,0,1,12
6731,-1,-2,0,0,-2,0,-1,-9
6744,2,0,-2,0,0,-1,-1,8
6744,-2,-1,-2,0,-1,0,1,1
6760,-4,0,-2,0,0,0,-2,-9
6760,1,-1,-3,-1,-1,-1,1,4
6767,5,1,0,1,-1,1,1,-1
6767,-3,-1,0,-1,-1,-1,0,-7
6768,-4,0,-1,-1,-2,-2,0,-1
6768,5,0,0,-2,-2,-2,0,4
6789,1,-1,0,-3,-2,-4,-2,-6
6789,-2,-2,-1,-3,-1,0,-4,-2
6792,3,2,0,0,1,1,-1,-2
6792,-7,-3,-1,0,-1,0,-4,-3
6803,7,0,-1,1,0,-1,-2,2
6803,3,0,-1,2,-1,-2,-1,1
6812,-2,-3,-3,-2,0,-2,-2,-1
6812,-3,-1,-1,1,0,-1,0,0
6827,-7,-3,-2,-1,-1,-1,0,-4
6827,-2,-1,1,-2,-2,-2,-1,8
6828,8,2,22,1,0,0,2,-2
6828,-3,-1,1,-2,-3,-1,-4,2
6851,1,0,-2,-1,-2,0,-3,-12
6851,-4,-2,0,-3,-1,0,-2,11
6852,2,0,-7,-1,-2,-1,-3,-5
6852,0,1,-2,0,0,0,-1,-1
6880,-8,0,4,0,0,-3,-7,-6
6880,5,1,-3,1,-1,0,-3,-33
6882,0,-2,-4,0,0,-1,10,62
6882,0,-1,-1,0,1,0,0,4
6887,2,1,-4,-2,-1,-2,0,-9
6887,-3,-3,-7,0,-2,1,2,5
6889,3,-1,-2,-2,-2,1,-1,-32
6889,2,-3,-1,-3,-2,-3,-5,28
6909,-4,-2,-1,-3,-2,1,7,-13
6909,-1,2,5,0,0,1,1,37
6911,-7,-2,-1,-1,-1,-1,-5,-21
6911,-10,-4,-7,-3,-1,-3,-6,-14
6924,3,1,21,0,0,-2,-4,6
6924,-2,-2,-2,-1,-3,-5,-5,5
6933,-8,-6,-6,-2,-2,-1,-4,-21
6933,1,-1,3,1,1,2,3,4
6947,1,-2,-22,-4,-1,1,-1,10
6947,-5,0,10,-3,-3,-1,2,-9
6948,1,-1,2,1,1,-4,-3,7
6948,1,0,4,0,1,-2,-4,-29
6970,-6,-7,-4,-2,-3,-3,-2,-8
6970,3,2,-1,-1,-1,0,2,12
6972,-7,-14,-23,-3,-5,-1,-5,-17
6972,3,2,2,1,2,3,7,-33
6984,-3,-1,-6,-2,-2,0,-4,-26
6984,9,2,1,1,1,-1,12,82
6992,-9,2,5,-1,0,0,-1,-1
6992,0,2,-2,-2,-2,-5,-1,-13
7015,-3,-1,0,6,3,1,-6,-1
7015,8,1,-20,-2,-3,2,2,-10
7017,-9,-6,4,-4,-2,-2,-6,-15
7017,5,12,0,-3,-3,4,1,10
7030,-3,-1,5,1,0,-1,3,12
7030,-9,-3,3,-1,2,-6,-11,-35
7031,1,0,-9,-1,-1,-2,1,-27
7031,-5,-6,2,-1,0,0,0,20
7044,8,0,-2,2,1,-1,4,19
7044,-5,-2,-6,-1,0,0,-1,-15
7053,-2,2,-1,-2,-3,0,-2,-7
7053,-2,2,-3,2,0,-3,-9,3
7067,-7,-3,29,5,-2,4,6,-3
7067,6,-9,7,-8,-4,-1,0,-2
7074,7,6,8,1,0,-2,-1,1
7074,-8,-3,1,-2,-3,-1,-2,-1
7090,-5,-1,-10,-2,0,-1,-3,-10
7090,-1,2,0,2,1,0,-1,-21
7091,3,1,1,-4,-7,-1,4,19
7091,-9,-5,-8,-4,1,-1,-3,-17
7113,-2,1,-5,-2,-1,-2,-3,4
7113,1,1,0,8,6,0,-2,-6
7114,9,2,-9,-14,-9,0,1,11
7114,0,-3,3,3,1,1,3,1
7127,-6,-3,-7,-3,-2,-1,-1,-9
7127,1,-1,2,0,-2,0,-2,0
7133,10,6,3,5,6,-1,0,9
7133,0,-9,-4,-3,-4,-3,-4,-3
7157,7,6,-1,-5,-1,-2,0,10
7157,-5,-4,-1,-1,-2,0,-3,-6
7158,-4,-4,-4,0,0,0,-1,-2
7158,-1,-5,-1,-2,-2,-3,-5,-4
7172,-5,-7,-6,-2,-1,-1,1,2
7172,-2,7,-6,-3,-3,0,0,-13
7174,9,12,4,1,-1,0,0,13
7174,3,0,1,0,-2,-2,4,-16
7186,7,2,-3,-2,-1,-1,-2,1
7186,-2,-7,-4,-1,-3,-2,-3,-2
7193,-15,-14,-3,3,0,-3,-4,-5
7193,1,22,0,-4,-3,-2,-1,7
7210,-8,-9,-3,-1,-2,-2,-3,-3
7210,-6,-7,-4,-3,1,2,0,-5
7211,-32,-15,-3,0,2,0,-17,-79
7211,43,8,1,1,1,2,11,56
7232,-7,3,-2,-5,-5,-5,-5,-91
7232,-7,1,1,-2,-5,-4,-4,-24
7240,4,-5,-1,1,-1,2,16,112
7240,-20,-7,-4,0,-3,-3,-15,-34
7246,11,3,2,0,3,-1,0,9
7246,4,-8,-12,-1,-9,-2,-3,-14
7255,1,0,10,-8,-4,-2,-3,-27
7255,-17,-13,-30,21,40,-1,-3,-9
7270,8,11,39,9,-18,6,8,35
7270,-13,-12,-15,-35,-24,-9,-10,-23
7271,7,4,0,-4,-1,0,-1,3
7271,11,16,8,-5,-8,2,3,6
7292,-8,-2,-21,11,20,1,-4,0
7292,-2,1,40,14,7,1,1,12
7294,9,9,-19,1,-7,0,1,-4
7294,-8,-25,11,2,-1,0,2,-1
7306,-6,-6,-9,-5,-6,-5,-4,1
7306,5,11,-26,-6,-2,-2,-3,7
7315,-3,-16,5,4,4,-2,-2,-6
7315,5,1,0,-6,-7,0,3,5
7329,-3,-1,-4,-10,-3,-1,2,14
7329,-2,-3,1,2,-1,0,3,11
7331,0,5,-1,6,8,1,4,-7
7331,-3,1,-3,-6,-8,-1,-3,-7
7352,0,-6,-1,-4,-8,-1,0,5
7352,0,11,0,6,10,1,2,-1
7354,-5,3,-5,-10,-7,-5,-8,-17
7354,-4,-16,-1,0,-7,0,-15,-6
7366,9,1,-3,-5,2,-2,22,22
7366,0,2,6,6,8,3,3,-6
7374,14,6,5,2,-1,-2,2,6
7374,-6,9,-2,-6,-5,-5,-2,-4
7390,-5,-4,-10,-10,1,-2,-13,-6
7390,-9,-8,-20,-15,-3,0,-1,5
7392,-8,-6,9,11,-2,-4,-1,-5
7392,5,-1,45,35,6,3,0,0
7412,13,19,3,11,5,6,-7,-3
7412,9,2,-6,-10,-12,-5,0,4
7414,0,-4,-39,-39,-2,2,-4,-4
7414,-14,-15,-21,-10,-1,-4,1,-3
7435,-23,-40,-36,-29,6,-4,4,5
7435,5,13,34,28,6,2,6,4
7437,45,84,61,28,-15,0,-4,1
7437,0,-2,-17,-13,2,3,-2,-3
7450,-12,-20,-49,-40,-12,-1,-6,-9
7450,-3,-12,9,8,13,1,-2,1
7451,-4,6,11,28,8,-1,-3,-2
7451,9,16,9,-1,-9,0,5,1
7472,-2,5,0,-9,-2,-2,-12,-6
7472,-20,-29,-23,-25,-6,-4,2,-4
7473,-6,-6,-4,-2,1,1,6,6
7473,3,0,-3,-5,-5,0,-10,0
7486,8,-4,5,7,1,-3,7,-1
7486,4,-2,-2,0,-10,-6,17,4
7495,-4,-17,12,9,2,0,7,-3
7495,2,22,-22,-14,1,-8,-14,0
7510,2,-1,15,15,-1,1,-7,1
7510,10,20,25,19,6,5,-13,-5
7512,-13,-11,-29,-20,-2,1,3,-5
7512,-22,-34,-41,-39,-4,5,10,-4
7533,21,20,52,26,-2,5,6,8
7533,14,-11,-1,22,7,-3,2,1
7539,-21,-23,-32,-26,-10,-13,-9,-5
7539,8,-2,30,25,7,1,-7,2
7546,-1,36,13,9,1,14,-9,-10
7546,-9,-23,-22,-30,-19,-27,-6,0
7555,-11,-3,-4,-10,3,5,4,-2
7555,8,-10,-1,-3,-11,-6,-8,-5
7570,-1,13,-10,-5,-2,-9,4,7
7570,-2,13,20,17,8,10,6,2
7571,-7,-9,-5,3,0,-7,-5,-2
7571,-11,5,2,-2,-1,-1,7,-5
7592,-5,-9,-2,2,1,2,-2,-4
7592,-1,8,-7,-6,0,5,-4,0
7593,-1,-18,-3,-3,2,2,2,5
7593,-3,15,-2,-1,-1,3,-3,-7
7606,8,-8,7,6,-2,-6,3,0
7606,-8,1,9,7,2,7,-1,-1
7614,-13,-23,-2,1,-4,-1,-7,-4
7614,8,5,7,8,2,0,2,2
7630,2,-1,-8,0,-2,-4,-8,0
7630,-3,-28,-29,-21,-5,-4,4,0
7631,13,54,26,24,7,5,-6,2
7631,-9,-10,4,6,0,2,3,0
7652,-10,-4,3,1,0,-13,-3,-3
7652,0,9,-7,-3,-4,4,-4,-7
7654,-5,-16,-13,-14,-2,-3,-2,1
7654,-2,1,2,2,-2,4,4,2
7666,6,-3,0,9,3,4,3,-3
7666,-3,9,-6,-10,-1,-1,-6,-5
7675,-2,-11,-5,-6,-6,-5,2,6
7675,-6,3,11,12,0,1,-10,0
7689,-3,-17,1,3,6,13,18,6
7689,21,16,-1,-5,-1,-7,-12,-2
7696,-4,-14,-3,-3,0,-9,-5,-4
7696,7,6,-7,-8,-9,-7,-3,-1
7713,-16,-26,0,-7,-6,-5,-5,1
7713,-4,1,-5,-5,6,4,-4,-2
7714,10,10,12,12,3,13,3,-5
7714,-5,-14,-7,1,-2,-5,11,5
7726,-7,-2,-7,-7,-7,-6,-4,-4
7726,2,1,-6,-5,0,4,0,-1
7735,0,-4,2,4,0,-9,-6,-1
7735,-7,-19,-4,-1,-2,-4,5,0
7749,1,16,-2,-1,-2,1,-2,-5
7749,0,-12,9,1,2,12,-1,2
7751,2,-14,-14,-10,1,-8,1,0
7751,-6,-12,5,-3,-4,-6,-5,-2
7773,8,25,4,16,4,1,-2,2
7773,-1,-13,-4,0,-1,3,-3,-5
7774,-10,-1,3,7,-1,1,14,3
7774,-1,4,-6,-10,-5,-6,-5,-4
7785,-8,-8,-15,-17,-3,-10,-16,-5
7785,-8,14,8,6,4,9,2,-4
7795,5,3,7,5,-1,-4,1,-2
7795,9,2,-3,-7,-13,-14,6,3
7810,-4,-2,-2,-2,-2,-2,-2,3
7810,-3,-12,-3,3,-1,-4,-13,-2
7811,0,1,-9,-14,6,11,1,-4
7811,-1,3,10,12,12,16,11,1
7832,1,-11,1,4,-6,1,1,-3
7832,6,12,6,-3,-8,-12,1,3
7833,-7,-5,-5,3,1,4,-3,-1
7833,11,5,-1,-1,8,7,-5,1
7846,-4,0,-3,-1,-2,-9,0,-1
7846,-7,-10,-5,-3,-4,-4,9,2
7854,8,8,-3,-4,-7,-1,-3,-1
7854,-2,-11,-7,-12,-11,-10,2,3
7869,-13,-2,-5,5,18,25,-4,-5
7869,14,5,2,4,-4,-21,-11,1
7875,6,12,2,3,-5,1,-8,-1
7875,-5,-5,-5,-9,-8,-16,-3,-4
7892,-4,4,7,17,0,-8,2,-3
7892,-15,-8,-6,1,6,12,-3,-7
7894,-12,-27,-8,-13,0,7,-1,-6
7894,11,20,5,9,3,9,12,3
7906,8,5,-2,-5,-11,-13,-4,2
7906,-1,-1,4,4,-4,-9,-2,0
7915,-5,-3,-8,-3,3,0,-6,-3
7915,-5,-3,-6,-7,1,8,-16,-4
7929,18,5,3,-1,3,5,17,5
7929,0,3,-4,-3,-6,0,3,4
7936,-3,-1,-6,-15,-11,-16,3,1
7936,-5,0,6,18,6,3,-6,-2
7952,1,-2,3,2,7,7,-13,-5
7952,3,-1,-12,-21,-3,-6,10,1
7954,-11,-8,0,8,5,27,5,1
7954,-3,24,8,10,-5,-43,-8,-3
7966,-8,-7,-2,-9,-7,-6,-3,-2
7966,-4,-1,0,-3,2,10,-1,-3
7975,-10,0,-2,-5,-4,-9,-3,-2
7975,7,-7,-6,-3,8,25,11,1
7989,-6,-13,-6,-10,-6,-10,-6,-2
7989,-23,-6,2,6,1,-6,-7,-5
7996,21,16,1,-1,-2,0,-11,4
7996,-4,-6,2,-1,4,9,9,1
8012,-1,-5,-11,-12,-8,-7,10,4
8012,-3,-3,6,5,-3,3,2,-3
8014,5,2,4,2,4,-3,-2,-2
8014,7,-2,-8,-5,-7,-6,-9,-5
8026,-23,14,6,3,-1,2,11,3
8026,42,9,3,11,-1,-3,-4,1
8035,-5,-3,0,2,-1,-16,0,0
8035,-2,-6,-5,-9,2,17,-5,-1
8049,-5,-2,-3,-4,0,-4,0,-4
8049,-6,-2,4,3,-9,-8,-5,-2
8058,5,1,-6,-5,-3,0,-5,1
8058,4,-12,3,5,7,1,4,-5
8072,1,-4,-3,0,-4,1,-3,2
8072,-7,8,2,-1,4,6,4,0
8073,2,-9,-1,4,7,2,4,0
8073,-8,6,-4,-6,-4,22,2,3
8094,2,-7,-7,-8,-6,-27,0,0
8094,-7,-3,0,4,-11,-27,-9,-3
8097,0,0,1,-5,-5,-4,-4,-6
8097,-5,3,-1,5,0,-4,-10,1
8109,5,-2,1,-2,10,21,-7,-4
8109,14,6,-2,5,10,26,24,12
8124,-6,1,1,4,6,-6,-2,-2
8124,-17,-8,1,-6,-8,-8,10,-3
8132,19,-1,-9,-6,-22,-16,-27,-9
8132,-23,-8,-5,-6,2,-3,1,-2
8134,-4,-3,3,4,7,24,7,3
8134,0,-8,-3,-9,-1,-10,0,1
8155,-8,6,0,-5,-1,2,6,-3
8155,1,8,5,6,-4,3,-19,-6
8156,3,-5,-2,8,-7,-30,-3,-1
8156,-5,-1,-3,-6,-6,-5,2,0
8169,3,2,6,7,7,7,2,-1
8169,4,-6,-6,-4,8,20,10,3
8177,0,13,0,1,-4,-2,0,0
8177,1,-10,-1,2,-1,-4,-8,-3
8193,2,-6,1,0,1,4,-3,2
8193,2,7,1,-6,11,39,5,-1
8194,-6,-16,-11,-16,-9,-51,0,-3
8194,-16,21,4,15,-10,-2,1,3
8222,6,-1,6,11,-5,-22,-7,3
8222,-13,-8,-11,-6,-3,-15,-13,-6
8223,1,-10,7,-1,7,43,2,-3
8223,-5,-1,-9,-13,8,11,5,-3
8228,10,-2,-5,-1,-3,-6,5,4
8228,-9,0,7,2,-2,-11,1,-2
8244,-1,-2,-3,-1,-11,-16,-7,-3
8244,9,-4,-3,-2,-5,-3,-8,-1
8252,-4,3,-3,-2,7,21,4,-3
8252,11,3,-1,-3,-2,-20,-9,-4
8267,4,7,7,7,9,13,18,8
8267,4,3,-3,-6,10,25,-4,-1
8275,-4,-2,-5,3,-12,-27,18,1
8275,-9,-12,-5,-11,-17,-10,-7,-4
8276,-6,4,-5,1,-1,3,-14,-2
8276,17,4,1,-2,7,2,-1,0
8288,4,-10,8,3,5,3,0,-2
8288,-18,-9,-2,4,-11,8,0,-5
8314,4,9,5,7,-5,-18,-2,1
8314,-2,-7,2,-10,-7,-16,-11,-6
8315,-5,-6,-11,-10,9,15,1,1
8315,-4,-5,-4,-3,-1,2,-3,-4
8318,2,12,2,-4,-2,9,3,3
8318,0,-12,2,7,9,12,13,9
8342,-2,2,3,1,0,-10,2,2
8342,3,2,-2,3,8,10,2,3
8344,-6,-3,-1,-7,7,34,3,-3
8344,-1,1,-5,-10,-24,-50,2,-6
8357,-9,-8,1,-4,-18,-24,-13,-2
8357,-7,2,2,3,-17,-38,-31,-6
8359,23,7,2,8,13,23,2,2
8359,-1,-1,-2,3,36,44,9,1
8372,-3,-2,2,-6,-10,-16,11,1
8372,1,1,-10,-8,-22,-32,5,4
8373,-3,-5,-1,-8,-9,-10,-8,-7
8373,-11,2,8,-2,5,22,7,2
8395,5,0,-8,5,19,26,-6,-1
8395,-3,7,4,6,0,-8,2,-3
8396,-6,-14,-8,-3,-23,-24,-15,-1
8396,1,5,-4,-4,5,-2,-8,-1
8408,5,0,5,2,13,48,11,2
8408,4,0,4,8,3,-38,1,3
8418,0,3,-6,-5,-2,10,6,-1
8418,-16,-6,-5,-8,-18,-39,-23,-5
8431,8,8,5,14,-6,8,0,2
8431,1,2,0,6,13,31,4,-5
8448,0,-5,-6,-9,15,10,5,3
8448,-8,1,4,5,-16,-23,-3,-3
8462,19,-3,-12,-9,-20,-20,-12,-4
8462,3,1,6,-1,12,8,-13,-1
8464,-11,-17,-5,1,0,-6,11,-4
8464,11,3,-1,5,10,31,4,2
8468,-7,3,4,-3,18,18,9,-2
8468,9,12,9,1,-19,-7,17,8
8478,-8,-10,-10,-6,-21,-44,-34,-10
8478,-3,-9,-5,3,1,3,1,0
8491,-6,-2,-1,-2,8,24,-1,1
8491,-10,-8,-6,-11,7,-39,-1,-3
8494,17,10,8,11,2,18,14,7
8494,10,1,3,4,-31,-32,-11,-5
8514,-10,-1,-4,-7,3,-1,-6,1
8514,6,-3,2,1,19,59,12,5
8523,-4,-5,-3,7,21,32,20,3
8523,-8,-1,-1,-10,3,-34,-14,-10
8545,5,-3,-6,5,-43,-59,-23,-2
8545,-2,3,0,-3,-6,20,0,-1
8546,-2,5,8,4,15,-6,4,3
8546,1,-1,-6,-3,11,37,22,0
8552,-13,-6,-4,-21,-7,-27,-14,-1
8552,4,5,-3,3,-12,-9,-13,-2
8567,10,2,-1,9,6,22,8,3
8567,4,-2,-2,13,17,12,15,0
8575,-15,7,3,-5,-3,-6,7,-2
8575,4,-8,-12,-13,-15,-20,-16,-6
8576,-7,-1,1,-1,-15,-28,-25,-7
8576,7,-12,-3,7,4,26,-3,-2
8588,11,7,2,2,12,14,15,2
8588,12,-2,0,-2,4,9,16,5
8598,-1,5,1,-4,-3,-5,-9,-3
8598,-2,0,-5,-14,2,-6,6,6
8612,-7,-9,3,21,4,12,-2,-6
8612,-6,-9,-4,-6,-17,-35,-13,-3
8614,-9,-11,-1,-15,-21,-31,-12,-6
8614,2,13,-3,-10,-6,-3,-9,0
8635,3,2,-1,-2,22,36,0,3
8635,-4,-5,3,14,33,22,20,-3
8637,-5,-11,-9,3,-22,-54,9,7
8637,-3,9,1,-6,-24,-17,-25,-4
8649,-7,-7,4,-6,-16,-24,-9,-7
8649,-1,1,-10,-6,13,40,-3,1
8658,2,3,3,3,15,24,9,-2
8658,-6,10,3,8,-16,-45,-10,-3
8672,-19,-23,-6,-11,-8,-3,-15,-6
8672,5,-4,1,-1,2,11,9,4
8674,2,4,3,10,24,43,13,5
8674,9,3,2,2,14,23,10,0
8702,-3,0,-1,-10,-33,-60,-2,-1
8702,-9,-6,-12,-19,-15,-24,-13,-5
8704,-7,-1,1,-4,4,15,3,-1
8704,1,-14,-3,13,9,1,2,0
8708,7,8,4,9,-2,6,-2,1
8708,0,-5,-7,-5,-3,-6,-1,3
8718,-3,28,11,-2,1,29,3,1
8718,-4,-15,-16,-9,-1,-21,-4,3
8733,-1,3,5,8,3,5,1,-4
8733,-25,2,2,4,-14,-49,-23,-9
8738,7,-27,-6,-5,-9,7,-1,5
8738,4,3,5,-3,14,32,12,4
8754,-6,2,-4,-8,20,33,22,5
8754,3,10,2,11,15,68,3,-2
8755,-8,-2,1,4,-27,-105,-11,-7
8755,-1,-5,2,-2,-15,-20,-10,-5
8768,-1,-1,-10,-2,-10,-13,-13,-7
8768,8,2,3,-10,17,28,20,5
8778,5,4,-2,3,15,31,-5,-1
8778,0,0,8,12,-8,-10,2,1
8800,1,1,-3,-2,2,-3,-7,-2
8800,2,-11,-1,-4,-13,-9,2,-1
8802,-1,9,-5,-10,-4,-9,-9,-2
8802,-2,-5,2,9,6,14,-3,0
8814,0,-5,0,3,16,20,15,0
8814,3,-6,0,-4,-8,-23,-2,-1
8822,-2,-5,-4,-11,-10,17,3,-1
8822,-8,1,-5,5,3,-29,-10,-4
8829,-1,-6,-2,4,4,24,-4,-4
8829,-5,8,-1,-1,-12,-36,2,-1
8838,-8,-11,-3,-15,-15,-19,-12,-6
8838,9,0,0,2,6,24,4,2
8852,-4,-1,3,7,17,17,6,3
8852,6,24,6,0,1,25,11,1
8859,-5,-2,0,8,17,13,17,10
8859,-3,-2,-4,-17,-8,-3,-2,0
8881,-1,-5,-4,1,-37,-62,-12,-4
8881,-8,-14,-6,-8,-9,-34,-29,-7
8884,4,9,0,2,11,10,-8,-5
8884,4,4,-5,-12,19,67,15,3
8897,2,4,10,19,5,-15,15,6
8897,1,-8,4,11,-9,-3,-2,1
8898,1,-2,-10,-9,3,9,-3,-4
8898,-6,-14,4,-1,-10,-23,4,-1
8911,9,12,-4,-8,5,35,-6,0
8911,1,-1,2,-11,-16,-51,0,2
8918,-9,-7,-5,8,-4,-15,-12,-2
8918,-2,-2,2,-2,-4,4,-11,-5
8935,-5,-10,-5,-14,12,28,14,0
8935,6,11,0,10,20,64,16,4
8937,-4,12,9,0,-16,-74,-15,-8
8937,0,12,-1,3,-14,10,8,5
8949,0,-5,-4,-2,18,12,-3,-5
8949,-6,-12,-2,-7,-11,-42,-2,-2
8958,2,1,-5,-8,-32,-16,-19,-4
8958,-1,-9,-1,8,3,-15,-14,-4
8979,10,21,7,4,13,8,-5,-3
8979,-8,-8,-4,-3,22,43,12,0
8982,1,-5,-1,-3,-2,9,0,2
8982,-2,-2,0,-3,-14,-42,2,0
8995,-4,-6,-7,6,-3,3,-1,0
8995,1,-1,-2,7,22,76,10,2
8996,3,-1,5,4,11,-23,11,0
8996,-3,1,5,-16,-25,-29,-6,-2
9017,-3,-5,-17,-14,-36,-64,-35,-5
9017,1,0,1,9,4,-12,-10,-6
9019,1,-3,1,-3,17,48,6,-2
9019,-4,2,-2,-12,18,37,28,3
9032,4,10,4,12,1,-10,10,4
9032,-2,-7,0,3,-6,-9,-12,-1
9034,0,-4,-4,0,-8,0,-2,-2
9034,0,0,-1,1,-17,-43,-20,-6
9054,-7,-12,1,-3,-11,-17,-1,-4
9054,10,16,-6,2,21,43,0,0
9056,-2,-3,4,5,18,-1,20,2
9056,-3,-7,-4,3,-6,25,2,5
9077,-2,-2,-1,-12,-17,-28,-13,-3
9077,-1,-1,1,-2,-1,-2,1,-3
9078,-2,0,-5,-12,-7,-2,-14,-9
9078,4,-2,1,11,9,-6,15,9
9100,-3,-5,2,9,18,33,0,3
9100,6,14,4,-2,-13,-19,0,-2
9101,-4,-5,-2,-8,-5,9,2,0
9101,-3,-1,-8,5,-4,7,-9,-5
9114,-5,-12,16,-1,16,30,15,0
9114,1,7,-15,-4,-20,-72,-2,1
9115,1,-9,-1,6,-12,-16,-25,-7
9115,-4,12,-2,-5,1,-2,-15,-9
9137,4,2,0,-4,9,35,18,8
9137,-3,-4,0,1,9,11,14,2
9138,3,1,3,1,3,22,23,8
9138,0,-3,1,0,11,41,-3,0
9160,-2,-4,-9,-2,-24,-79,-22,-6
9160,-4,-12,-3,-4,-7,-4,-15,-2
9161,-1,-1,-5,-2,8,-1,-2,-1
9161,0,0,4,-2,0,-2,9,-3
9182,1,4,-5,-1,13,17,-1,-1
9182,-4,-8,-1,-2,-8,14,9,-2
9183,-3,-4,-1,-2,-13,-23,-12,-1
9183,4,4,-4,-9,5,6,-4,-4
9197,1,0,1,-4,1,3,1,4
9197,-1,-2,1,16,12,8,2,2
9198,-6,-9,-1,2,-16,-13,4,3
9198,1,-2,-2,-5,-21,-43,-20,-5
9212,-6,-2,-3,-6,1,19,0,-5
9212,2,4,-4,-16,10,15,5,0
9212,3,-3,4,11,19,33,11,2
9212,2,-1,-4,12,2,1,3,-3
9235,-5,-8,-5,-4,-18,-8,-2,-2
9235,-2,5,8,-4,9,-5,-1,3
9236,0,4,-7,-3,-4,-25,8,-1
9236,-7,-11,-5,-4,-28,-20,-29,-8
9257,2,1,-5,-7,8,-7,-1,-1
9257,1,-4,1,-4,-2,-8,-5,-1
9257,2,8,4,5,4,22,13,3
9257,1,0,8,0,20,28,27,8
9287,-5,2,-12,-1,-11,-5,-8,-6
9287,-1,-7,1,0,-1,-10,-15,-4
9288,9,18,3,5,5,13,1,1
9288,-2,-7,-1,1,17,42,14,0
9294,-1,5,1,-1,-7,-49,-4,-1
9294,-6,3,-6,-9,-37,-39,-12,-6
9294,-3,-10,-7,-10,-10,-5,-26,-8
9294,2,1,1,2,15,13,13,3
9316,0,6,5,-5,17,31,25,3
9316,-2,-3,-4,8,-4,1,3,-3
9317,-4,-10,-6,-13,-5,20,-8,2
9317,4,12,5,7,-1,-49,-13,1
9332,-1,-2,2,8,-1,14,5,1
9332,-5,-8,1,-2,-2,20,-3,1
9333,-5,-4,-4,4,-2,-4,6,-3
9333,-5,-7,-5,-10,8,-20,-7,-2
9354,5,3,-3,-3,-6,-19,-12,1
9354,0,-7,4,-4,-24,2,3,-3
9355,-3,4,3,-1,12,-5,-8,-5
9355,-1,-6,-9,2,-1,10,9,-1
9377,1,-1,1,-5,-9,-13,-15,-1
9377,2,-2,-7,-3,12,17,10,4
9378,-3,-5,3,7,18,29,6,2
9378,-4,3,1,-2,-29,-45,-6,-9
9393,4,-5,-1,-4,-5,3,-10,4
9393,-3,6,-1,0,24,47,5,1
9393,-1,0,-1,-4,-8,-38,12,2
9393,0,-2,-1,-3,-13,-4,-13,-4
9414,-4,-1,-1,1,-7,-8,-1,-6
9414,-1,1,0,0,-4,-3,-12,-5
9415,-3,-2,-14,2,11,10,1,2
9415,0,-3,4,5,23,39,14,4
9437,3,5,4,-11,-10,-9,-1,-3
9437,-5,-9,-1,8,-16,-37,-13,5
9437,-3,10,3,-2,-6,6,5,-6
9437,-5,-1,-2,-2,0,-13,-6,0
9451,4,10,0,2,19,38,-6,-4
9451,0,1,-3,-5,-5,1,11,3
9467,5,0,1,-2,-7,-7,-6,0
9467,0,-2,-2,1,-4,-10,-3,2
9474,-1,-3,2,1,18,23,17,3
9474,-3,-7,-7,-2,-16,-29,-17,-6
9475,-4,0,0,-4,-21,-17,-15,-3
9475,6,3,3,0,17,30,10,-2
9497,-2,-8,-2,4,6,8,-5,-1
9497,-3,-2,-4,3,13,14,8,-3
9497,-3,-7,-8,-15,-22,-13,-3,-1
9497,-3,0,-3,3,4,15,-4,1
9512,5,4,3,0,-11,-33,0,1
9512,-6,-13,-1,5,1,-18,3,-6
9520,0,-2,1,2,4,0,-11,-2
9520,-4,3,-5,-6,-11,-13,1,-4
9534,-4,-4,-1,-5,11,55,13,2
9534,4,2,1,1,3,-26,-2,-1
9534,1,-3,2,-10,-20,-10,3,3
9534,-1,-5,-7,-2,-6,-12,-14,-1
9556,-3,-5,-1,8,5,-3,-8,-5
9556,0,4,4,-1,8,-2,0,-5
9558,3,-1,0,5,15,58,23,7
9558,-5,-2,1,-6,12,21,4,2
9571,-4,-1,-6,-2,-29,-64,-2,-2
9571,8,13,1,-5,-16,-40,-21,1
9579,0,0,-1,-3,19,46,-5,-8
9579,-3,-4,-1,2,-6,-26,10,0
9593,1,9,1,7,-9,1,-17,0
9593,-2,-4,-2,-18,-3,-6,5,-4
9595,0,1,0,12,4,-11,-2,2
9595,0,-2,-1,-3,1,9,0,0
9616,-2,-5,-4,-2,13,16,11,-1
9616,-1,-7,0,0,0,3,3,3
9617,2,2,1,2,12,21,9,1
9617,-1,9,1,-6,-29,-63,-3,0
9631,-1,-2,-3,-13,-34,-19,-29,-5
9631,-5,-4,-5,2,10,0,-5,-2
9639,-3,3,6,9,27,34,6,-1
9639,2,-4,6,10,14,4,11,0
9654,-5,-12,-10,-1,-24,-37,-9,-1
9654,3,1,2,-10,-2,36,6,-1
9655,3,14,-1,5,4,-26,-5,-5
9655,1,0,0,-2,1,18,-2,3
9693,-3,0,2,-3,17,25,17,1
9693,-5,-3,-3,6,-15,-35,-24,-5
9693,-6,-16,-4,-11,-17,-37,-16,-8
9693,5,-5,-7,-13,-1,-4,-5,1
9696,0,3,3,9,8,24,12,3
9696,0,1,3,8,6,15,15,2
9699,-2,-2,-2,-8,2,13,-2,3
9699,-6,-4,2,5,-7,-47,-5,-5
9714,-1,-14,-13,-4,-4,26,4,-2
9714,4,6,4,3,10,-2,-10,-3
9714,-2,-1,-5,0,-7,-3,-3,-2
9714,-3,-5,-6,-7,-13,-3,-16,-3
9737,0,2,8,-5,2,-5,7,0
9737,-1,-3,-4,-1,-5,-23,6,0
9737,-1,-12,-3,-4,-1,11,6,-7
9737,1,2,-1,2,5,9,-10,-6
9751,2,6,5,6,8,1,3,1
9751,-2,-3,-4,-3,10,54,12,4
9759,1,3,-1,-8,0,-33,2,2
9759,0,1,-1,6,-11,8,9,0
9775,-4,1,4,7,-17,-34,-24,-6
9775,0,0,-3,-6,0,-7,-7,-3
9775,-6,-4,-2,-2,2,10,10,2
9775,4,7,2,6,13,26,4,4
9796,2,4,3,-4,9,9,3,1
9796,-7,-8,-10,-9,-1,-1,7,0
9798,10,16,2,11,-12,21,-4,-1
9798,-3,-3,-2,-5,-16,-64,-23,0
9813,-4,-6,-2,-4,4,-5,-7,-4
9813,-1,2,1,-1,4,5,6,0
9819,-5,-9,-3,-1,-1,12,-4,-3
9819,0,-3,-2,-3,3,22,13,0
9843,4,3,1,5,7,2,5,1
9843,-2,-2,1,-3,-8,-9,-3,-4
9843,-2,-3,-1,-1,-8,-25,-6,1
9843,0,0,1,-1,-6,10,-4,-2
9857,0,6,-4,-12,14,16,6,0
9857,1,-9,3,9,1,4,4,0
9858,4,15,-1,7,-12,-49,-19,-1
9858,-3,-4,0,-6,-2,-4,-8,-5
9879,-2,-6,-4,3,0,12,3,-1
9879,1,-1,-2,-1,-4,1,-10,-1
9880,-6,-2,-1,-4,7,-14,4,3
9880,-1,1,-2,-1,-10,-7,5,-1
9902,1,4,0,1,7,13,0,-2
9902,-1,1,-1,0,8,20,1,-2
9903,-3,-5,-2,-10,-6,-12,-4,-4
9903,-1,-2,-3,-8,0,2,-6,-1
9916,-6,-17,-3,8,-6,-10,-3,-3
9916,6,6,3,5,7,28,10,2
9918,0,-5,-4,-4,-1,-15,-2,-1
9918,2,2,-1,-1,3,32,4,1
9932,-1,0,-3,-4,-13,-39,-12,-4
9932,-1,5,-2,0,-4,-8,-8,-2
9946,-1,-3,2,7,2,28,4,-3
9946,0,-1,1,1,11,19,12,-1
9954,2,1,-2,-4,-17,-38,-8,1
9954,-2,-2,-3,-6,-5,-4,-9,-1
9955,-1,-3,0,-1,5,10,8,1
9955,-2,1,-3,-1,2,1,-12,-3
9977,-3,-12,0,1,2,36,8,-2
9977,2,4,-4,-10,-9,-26,5,6
9977,5,-3,0,6,-8,-23,-9,-1
9977,-4,-3,1,4,7,11,2,-2
0,-1,-1,-1,-1,9,22,6,1
0,-3,0,-1,-1,-5,0,1,-2
1,-7,-6,-1,-10,1,8,3,1
1,8,14,0,5,3,5,1,1
14,0,2,-1,-3,-10,-32,-9,0
14,-2,-4,-1,1,-2,-6,-10,-2
14,3,3,-2,-6,-6,-12,3,-2
14,-6,-6,-4,-2,-7,5,-4,-2
53,-3,0,-1,-11,-5,-15,-3,-2
53,1,-3,-1,5,2,-13,-3,-2
53,-9,-5,2,4,3,14,1,-2
53,0,-4,0,0,7,26,2,0
73,3,5,6,-1,1,7,9,2
73,-3,-10,-6,-2,7,23,2,0
83,5,13,0,5,-17,-46,-3,-4
83,-4,-6,1,-9,-25,-37,-22,-6
85,-2,0,-2,1,12,39,5,0
85,2,2,3,-2,-1,-27,0,0
85,0,-5,0,-3,10,41,0,3
85,-1,0,-7,-11,-2,-14,7,-1
96,-1,-4,1,11,10,50,3,3
96,-5,3,3,4,-2,-37,9,0
98,3,2,2,3,-3,0,-6,-3
98,-3,-5,-3,-4,-20,-32,-7,-9
120,-4,-3,-6,-11,-5,-6,-5,2
120,-4,0,0,1,15,48,5,1
120,-3,-1,-1,-1,-2,-20,5,1
120,2,-2,0,6,7,-21,-7,2
134,3,6,-1,0,-4,-7,-7,-6
134,0,-3,-1,-1,-10,-2,-3,-3
135,1,3,-1,-7,3,-1,1,-3
135,-2,-4,2,-3,3,5,9,1
156,-2,1,-1,2,-2,-5,2,-8
156,2,-9,0,4,-14,-31,-17,-6
157,2,-9,-1,-4,-4,-7,-7,0
157,-3,0,-3,-4,12,35,13,4
179,4,2,3,6,17,12,-1,4
179,1,6,3,-2,-1,-12,7,3
180,-8,-6,-7,-6,-13,-24,3,0
180,1,9,-1,1,-10,-12,-16,-5
194,0,-2,0,-3,-10,-14,-7,-5
194,-1,-3,-1,-2,6,39,-4,-3
195,3,2,1,7,14,17,6,0
195,1,2,1,0,-3,-26,-2,3
216,1,-2,-2,-3,-13,-10,8,2
216,-3,0,-2,-6,-2,-4,-10,-3
218,-2,5,2,6,3,16,7,4
218,-4,-11,-2,0,-1,-3,-8,-3
240,0,0,1,2,3,2,3,0
240,2,5,3,2,12,6,-4,0
241,-2,-5,-2,-4,-17,-5,3,-5
241,-6,-1,-6,-11,-19,-18,-4,-4
254,-7,-16,-3,6,6,-1,-10,-3
254,10,8,4,4,1,-4,19,4
255,-2,-4,0,-2,3,-4,-22,-2
255,0,0,-1,1,7,-1,1,1
277,-5,4,-3,-12,-6,6,3,0
277,-11,-8,-6,-3,7,18,5,0
277,7,0,5,10,15,12,-4,1
277,1,12,1,3,-7,3,-1,-3
313,1,-1,-2,-7,-16,-21,-3,2
313,-3,0,0,-4,-4,-6,-6,-3
331,2,2,-2,-4,-2,0,3,1
331,-1,-4,-1,2,14,40,-3,-1
332,-3,-3,-2,-5,-4,-54,3,-2
332,-3,8,1,0,-17,-20,1,-2
333,-1,-8,0,2,1,-2,-16,-6
333,4,-3,1,-1,15,41,10,-2
338,3,5,-1,-4,2,-5,5,-3
338,-7,-10,-2,-11,-26,-37,-12,-2
339,-3,-1,-7,4,9,4,-1,3
339,7,-12,1,3,2,24,-1,-5
359,-1,-6,5,4,3,-5,6,6
359,-2,-3,-3,-1,-2,-10,-3,-1
359,-2,1,-3,-9,-12,-20,-2,-1
359,-7,-8,-5,-7,2,-1,-2,-1
374,10,-6,0,11,9,24,-2,0
374,5,15,3,5,12,4,10,0
374,-4,-4,-1,-2,-16,-3,0,-1
374,-3,-2,0,-1,-1,-4,4,1
396,-5,6,0,-4,4,-1,-3,0
396,-9,-14,-5,1,-6,0,-4,-3
405,3,-2,-8,-13,-11,-3,-1,-3
405,-21,-4,0,0,1,6,2,-4
419,13,20,5,5,-7,-17,-7,6
419,-22,-2,-2,-3,8,7,-2,2
420,-1,-3,-1,-3,12,27,6,0
420,1,-3,4,-11,-13,-24,-2,-3
435,3,13,-6,12,2,25,0,2
435,-8,6,2,8,9,11,0,-3
435,-23,5,-3,-12,-14,-30,-2,-4
435,35,4,4,14,3,10,-6,16
457,-4,-4,0,-8,-3,-9,-8,-7
457,11,-11,-6,-3,-11,4,6,2
457,-5,-5,2,2,12,22,-4,-3
457,-6,-6,-11,-8,-8,-41,3,-1
479,7,2,1,3,-9,-14,-2,-1
479,0,-3,-2,2,7,15,-7,-2
480,10,2,-1,-9,8,31,10,-3
480,-24,-10,-1,-5,-1,-29,0,-3
494,16,12,0,4,-3,8,0,-1
494,3,-6,-2,-4,-8,-11,-4,-5
495,-8,-8,-2,5,-7,-10,-13,-3
495,12,23,3,-2,5,18,1,3
516,-14,-13,-6,-10,1,-2,-2,-9
516,16,-1,2,6,0,6,4,3
517,1,8,-2,-1,3,17,-6,2
517,8,-16,3,-1,-22,-61,9,1
539,-6,27,4,3,1,0,-6,-3
539,21,8,-6,-10,1,20,-3,6
540,-1,-1,4,-3,5,-15,1,6
540,-7,-8,-3,7,12,31,-1,-2
553,-4,-6,-9,0,-3,-7,-2,-16
553,-5,5,5,-7,-7,2,-6,-4
562,15,-3,-5,5,0,-2,3,3
562,-15,-2,-6,-9,-1,-20,2,-1
577,25,-1,3,-1,-6,5,-4,6
577,-9,-21,-6,0,-1,15,0,0
577,19,5,4,-1,1,-47,-3,3
577,36,3,-1,-1,-10,-4,-4,7
599,-21,-5,2,-1,-6,22,-9,-13
599,-1,12,0,-4,-5,-27,2,-5
600,-14,-6,0,8,5,12,4,-1
600,5,4,1,-3,1,4,1,-3
614,-7,-15,-6,-3,1,-9,2,12
614,-11,1,-2,-2,4,6,-9,-6
622,3,-6,7,14,0,1,3,-5
622,4,20,0,7,9,37,4,15
637,-11,-12,8,-7,-3,0,2,-18
637,-1,0,-4,-2,-4,-15,3,-3
637,-13,-25,-13,-20,-6,-16,-13,-3
637,-1,10,14,14,-1,7,-8,-5
660,9,-11,-7,-2,1,-2,-3,13
660,-4,1,-5,-13,1,2,5,-1
662,-2,-3,5,9,0,6,2,-6
662,-27,-17,2,0,6,23,13,5
674,35,4,-10,-2,3,3,-2,-6
674,-4,-24,2,4,-3,-17,-7,-5
682,22,-9,-6,-18,-18,-31,2,10
682,-5,6,8,8,5,22,-12,-4
697,-25,-2,1,2,3,-36,4,-9
697,22,-14,-10,6,2,6,-4,13
697,8,8,7,6,-3,18,11,-9
697,-9,-5,-6,-5,0,9,-3,-5
719,-16,-2,-2,-8,4,-3,1,5
719,3,-1,2,1,-3,3,-3,1
719,2,4,-3,-5,-4,-9,4,9
719,-5,7,-7,0,-9,-21,1,-11
733,-4,-7,-2,-2,1,6,-2,5
733,1,7,4,2,15,79,16,-13
742,-18,10,4,7,5,-68,-11,-2
742,-8,-4,-6,-17,-16,-30,-4,-5
756,15,-19,-8,-8,-20,-2,-10,4
756,-13,10,6,3,-1,-16,0,3
764,-9,1,4,16,9,44,0,1
764,8,-5,-2,6,12,10,4,-5
779,-19,3,-2,0,0,-6,6,15
779,22,2,-2,-4,-3,-4,-3,1
781,-6,8,-2,-4,-5,8,-7,-21
781,-5,-19,-5,-3,-1,-10,1,6
794,-26,-3,-2,-3,13,46,15,-7
794,13,3,0,2,-7,-84,3,20
801,27,7,-2,-3,-12,5,5,4
801,-1,22,4,8,-9,-9,-30,-18
825,-10,0,-3,-10,-5,2,-8,0
825,-12,8,1,-7,8,12,-6,-5
825,-10,-11,-4,8,10,25,15,12
825,4,3,0,0,11,7,4,-3
839,2,2,0,-1,-19,-37,-3,-6
839,-21,-17,0,1,-8,-14,-14,-4
840,-2,-1,-7,-9,-4,3,-5,-11
840,5,5,-1,2,8,27,4,3
853,3,6,6,5,12,1,2,-6
853,-22,-15,-11,-7,-3,18,6,-6
862,15,-11,3,-5,-8,-19,-5,2
862,8,-7,-8,-6,-1,-14,2,16
877,-15,-21,4,5,-3,-15,-11,-10
877,14,18,1,2,2,11,1,-3
877,-19,-5,3,3,4,21,5,-1
877,-6,-12,-7,-6,-8,-17,-7,-9
899,19,-2,2,0,10,26,9,19
899,-2,5,9,7,-9,-14,4,-8
900,-6,6,-1,-6,-2,-10,-8,-24
900,-8,-2,-5,-10,-14,-31,-5,-10
923,-3,-12,-11,-7,5,63,8,10
923,0,18,7,4,4,-53,-2,20
923,32,33,-1,-6,2,42,7,-8
923,-29,-7,-9,4,-3,-24,9,3
937,4,2,11,10,-10,-6,-10,-22
937,15,12,3,-1,0,3,-11,14
937,-31,-14,-5,-4,-3,-7,-16,-16
937,10,6,-1,-7,4,25,8,-5
959,-21,8,-7,-7,2,-15,-1,-9
959,23,-17,2,16,8,22,7,6
960,-3,1,-7,-11,-2,4,8,0
960,-5,6,5,2,-10,-11,2,2
983,6,11,5,6,-10,-43,-19,5
983,-2,0,-5,-12,-7,20,-7,-24
983,-6,-11,-4,3,13,30,8,44
983,-8,-5,-6,-12,1,-53,-5,-33
997,-10,15,-3,-1,-7,9,9,3
997,-9,12,5,4,1,12,-6,-9
998,-15,6,8,8,-9,-18,-14,-26
998,-7,0,-10,-17,-5,10,-3,12
1019,4,-16,-1,5,4,-2,4,10
1019,-13,-10,-4,6,5,6,3,-21
1020,-15,-13,-9,-11,1,2,-7,14
1020,5,-7,10,12,4,30,10,-17
1042,33,39,5,3,0,-26,4,25
1042,-26,-13,-5,-10,-9,-5,-5,-27
1043,-1,-4,-3,0,-3,-19,-6,22
1043,4,-6,-2,-6,1,9,-11,-8
1056,-4,-8,-2,-9,1,9,4,4
1056,4,-32,-4,4,10,35,1,-9
1058,14,54,10,1,-14,-68,4,47
1058,-11,-10,-5,-4,-4,9,-2,-29
1079,13,16,2,-2,-5,-8,-2,29
1079,-5,-1,-5,-7,-6,-10,-8,-11
1080,-3,-17,-5,-5,4,23,0,-30
1080,17,6,12,21,8,14,6,16
1110,2,-3,-4,2,3,-4,-7,23
1110,-27,0,-4,-5,-6,-16,-7,8
1111,28,-7,0,5,-2,3,6,-4
1111,-9,6,0,-6,-4,-9,-6,5
1116,10,-5,-3,-2,4,11,3,-15
1116,1,14,0,-3,-9,-8,2,7
1124,-13,-11,-1,4,2,1,-3,-17
1124,-2,-5,0,1,0,-1,-3,16
1139,-5,-12,-6,-5,2,2,-5,-21
1139,18,16,3,-1,2,-4,8,15
1139,-2,0,0,3,-2,-2,-2,-16
1139,3,2,4,1,0,5,-3,-5
1163,-6,-5,-2,-6,-4,0,1,-9
1163,-6,-3,-5,-1,-2,-8,3,7
1163,-18,-13,-8,-4,0,3,-2,-1
1163,31,6,4,7,2,2,1,19
1177,-9,-8,-2,0,-3,0,-2,-16
1177,3,-3,-1,-4,-5,-5,-4,-20
1177,-7,-1,-7,-1,0,4,-2,20
1177,2,-4,-1,-6,-2,1,3,13
1199,-14,-3,-2,-5,-2,-5,2,-8
1199,-8,-21,-6,7,1,-2,-1,22
1199,43,46,23,11,2,7,0,-19
1199,-18,15,0,1,1,-3,-5,3
1224,15,15,3,0,-14,-6,-7,-10
1224,-10,-7,-7,-9,-7,-8,-3,9
1225,-14,-15,-7,-13,-4,-4,-3,-15
1225,13,-28,-15,-7,-6,2,1,5
1236,-3,7,8,15,17,8,2,-7
1236,4,7,2,1,7,3,4,3
1237,-19,-11,-1,1,13,2,0,-2
1237,15,9,-8,-2,3,-6,-7,-3
1267,14,-11,-6,-4,-1,2,17,72
1267,2,4,9,0,-3,5,9,9
1268,-7,-10,-11,-4,-8,-2,-8,-9
1268,-29,-8,-11,-2,-2,-8,-25,-108
1283,27,-10,19,15,22,2,22,23
1283,40,30,22,17,11,14,19,-4
1283,1,-15,-20,-36,-59,-11,-5,-31
1283,-3,2,-2,-4,-4,1,0,-68
1296,-22,-6,-11,-12,-13,-6,-15,-4
1296,-15,-6,1,-5,4,-11,-17,-92
1297,-46,-16,4,12,14,-6,-23,-94
1297,13,4,4,-4,-2,0,4,-6
1320,-3,4,2,3,9,3,2,-46
1320,-18,-4,-10,0,-1,-3,0,-49
1321,0,-1,-2,2,1,-3,-1,-9
1321,-12,2,10,3,1,3,2,32
1342,0,1,0,-1,1,0,-2,22
1342,8,-2,-4,-6,-8,1,5,54
1343,-2,-3,-2,3,1,-2,0,16
1343,6,3,6,3,5,3,-13,37
1356,1,-4,-3,-3,-5,2,8,-6
1356,-6,-6,-6,-9,-7,-2,1,-3
1357,14,3,6,6,9,6,21,31
1357,-1,0,0,2,0,3,13,-9
1379,-13,-2,-6,-5,-8,-5,-15,8
1379,-12,-4,0,-3,-1,0,6,7
1380,7,11,6,5,7,-2,5,62
1380,1,2,2,0,1,8,4,-14
1402,8,-3,-4,-5,-7,1,5,-38
1402,-3,-4,-4,-2,-2,-11,-4,3
1403,23,1,2,0,2,1,5,26
1403,-1,-2,-2,-2,-4,-4,-4,5
1417,-24,-3,-5,-6,-2,0,-9,-29
1417,16,3,0,2,1,3,3,30
1424,-6,-3,1,2,2,-1,-9,-25
1424,11,1,0,-2,-1,-5,-3,24
1447,-5,-3,-1,-2,2,1,6,-1
1447,2,-1,-7,-6,-6,-6,-14,-15
1448,-6,7,4,2,4,5,-11,-7
1448,-7,0,2,1,1,1,8,10
1462,-12,0,-1,-2,-3,-4,9,7
1462,-4,-10,-6,-6,-4,-3,-21,-6
1463,-5,-14,-6,-1,0,-1,20,6
1463,-2,-2,-6,-2,0,-1,-1,17
1477,17,20,7,4,-1,-6,3,-11
1477,7,1,7,5,2,1,0,4
1477,1,-8,-1,1,0,2,-5,-3
1477,-3,-1,-2,-2,-3,1,-1,8
1499,-10,-9,-10,-6,-4,-6,-14,-23
1499,-7,1,-1,-1,2,0,3,-2
1500,10,5,1,0,0,0,-5,-9
1500,-2,-7,-3,-2,-2,-2,4,0
1522,1,0,0,1,0,0,1,-6
1522,0,-2,-1,-2,-1,-2,1,-2
1523,-6,-2,-1,-1,0,-2,1,9
1523,-1,1,0,-1,0,-2,-8,-7
1536,3,-7,-3,-1,-1,-2,2,-2
1536,-2,1,-2,-1,-1,0,-1,22
1544,-7,-2,-4,-4,-3,-1,0,-13
1544,-3,2,0,0,-2,-1,3,1
1560,0,-2,-1,-2,-2,1,-10,-40
1560,-11,-3,-2,-2,-1,0,6,29
1560,10,1,1,-1,-2,0,-1,3
1560,-2,-1,1,1,-2,-1,0,8
1582,-10,-6,-1,-1,-1,-1,-4,-23
1582,9,0,-2,-1,0,-1,-1,-15
1583,3,1,1,0,0,-4,1,5
1583,2,-1,-2,-2,-1,0,7,-7
1596,1,-1,-4,-2,-1,-2,-5,10
1596,-2,-1,-1,-1,-1,0,-5,-7
1604,-1,0,0,0,-1,2,2,10
1604,1,-2,-2,-2,-2,-4,1,-5
1619,-3,0,1,0,-2,2,0,4
1619,1,0,-1,0,-1,2,-3,-8
1620,-6,-3,-2,-3,-1,0,5,12
1620,-7,0,-2,-2,-4,-2,-6,-14
1642,0,-2,0,0,-1,0,-2,-1
1642,4,0,-2,1,-1,-1,-18,10
1643,2,-1,-2,1,-1,-2,15,-11
1643,0,-1,-1,-1,1,-2,2,8
1665,9,0,-1,-1,0,-2,-2,7
1665,-2,-2,-2,-2,-1,-3,2,-9
1666,3,2,0,0,0,0,-10,-3
1666,2,-2,0,0,-1,1,0,8
1679,-2,-1,-2,-2,-3,-2,-1,2
1679,-2,-2,-1,0,-1,-1,7,-4
1680,-1,-1,-1,-1,-1,1,-5,-2
1680,0,2,1,0,2,0,-1,1
1702,-3,-2,-2,-2,-1,-2,-5,-4
1702,-4,-2,-2,0,-2,-1,-2,-4
1703,1,0,-1,0,-1,0,-4,-1
1703,-4,-2,0,-2,0,-1,-2,1
1716,-1,-1,-2,-2,1,0,-4,5
1716,4,1,0,0,0,0,4,-2
1724,-2,-2,-1,-2,-2,-3,-5,-2
1724,-1,-1,-1,0,-2,1,-3,-3
1739,-2,0,-1,1,-2,0,-1,-1
1739,3,-2,-1,-2,-2,-2,5,-2
1740,0,1,-2,0,-1,-2,-3,-3
1740,0,0,-1,-1,2,0,-4,1
1762,-3,-1,-2,0,-2,-2,6,6
1762,-4,-2,-1,-1,-1,-2,1,-4
1763,0,0,0,0,-1,-2,-1,0
1763,3,1,0,1,-2,-1,1,3
1785,-3,-3,0,1,1,0,-2,-2
1785,0,-1,-2,-2,-2,-2,-2,-4
1786,2,-2,1,-2,-1,-2,-4,-5
1786,-1,-2,1,-2,-3,-2,0,-5
1800,-2,0,0,-2,-1,0,0,-4
1800,-1,0,-1,-1,-1,-3,-1,-2
1800,-1,-1,-2,-1,0,-2,-2,3
1800,1,-1,0,-1,-3,-1,-2,3
1822,0,-3,2,0,-3,-3,-3,3
1822,-1,-2,-1,-1,-2,-2,-2,2
1823,-3,-1,-2,-1,-2,-1,1,0
1823,4,0,-1,-1,-1,-1,-1,1
1836,8,1,1,-1,2,-1,-6,-1
1836,-2,-1,0,-1,0,-2,2,-1
1852,-3,-3,-3,-2,-1,-2,1,-1
1852,-3,-2,0,-2,0,1,-1,-1
1859,-3,-1,-1,-1,-1,0,-2,0
1859,0,-1,0,0,-3,0,-7,-3
1860,1,-1,-1,0,0,0,-3,-2
1860,-5,-2,-2,-1,-1,-2,2,0
1881,-2,-2,-3,-3,0,0,-1,-2
1881,0,-1,-1,-1,0,-1,-2,1
1888,-2,0,-1,-2,-2,0,-5,-4
1888,1,-1,-1,0,-2,0,2,3
1905,0,-2,-2,-1,-3,-1,-2,-3
1905,3,0,-1,-2,0,0,2,0
1906,-2,-1,1,-2,-1,-2,-1,-2
1906,-1,0,-1,-1,0,-1,-8,-4
1918,-1,-2,-1,1,-1,-1,3,0
1918,-1,-2,-3,-1,-3,1,2,-1
1928,4,2,-2,-1,-1,-2,-3,-1
1928,-4,-2,-1,-1,-3,-3,0,-1
1942,-1,-1,-2,-2,-2,0,-4,-1
1942,-2,-1,0,-1,0,1,-2,0
1944,2,-1,0,0,0,0,3,0
1944,-2,-3,-1,-1,0,-3,-1,-3
1973,2,-1,0,0,0,-5,-3,0
1973,1,-1,1,-1,-2,-3,0,0
1974,-4,-1,-1,-1,-1,0,-1,-1
1974,-2,-1,-2,-1,0,0,2,-4
1987,0,-1,-1,2,-1,1,-2,-2
1987,-9,-3,-3,-1,-1,-1,-2,-3
1989,2,0,0,0,-2,1,0,1
1989,-3,-1,-2,-1,-1,-1,0,0
2002,-3,-2,-2,-2,2,1,1,0
2002,-1,0,0,-1,0,-3,-2,-2
2004,-3,-2,-1,-4,-2,0,1,-3
2004,-1,-1,-3,-2,-2,-1,-1,0
2025,-3,-2,-1,-1,-3,0,-1,-2
2025,3,0,-1,0,1,-1,-3,3
2027,-1,-2,-1,-1,-2,-1,-1,0
2027,2,0,0,-2,-1,-3,-2,0
2038,-3,0,-1,-1,-2,-3,-2,-1
2038,-2,-2,-1,-1,0,1,0,-1
2048,1,-1,-2,0,-1,-1,-4,-1
2048,-3,-1,0,-3,0,-1,-2,-2
2062,-5,-1,-2,-4,0,-1,0,-1
2062,3,0,0,0,0,-2,-1,-3
2064,2,0,-2,-2,-1,-3,0,0
2064,0,-2,0,-1,-1,0,-1,-1
2084,0,-2,0,-1,0,-2,-2,0
2084,-2,-1,0,-1,-2,-1,0,1
2087,-3,-3,-1,1,0,-1,1,-2
2087,2,0,-1,0,1,0,0,-1
2098,1,2,0,-2,1,-1,-1,-1
2098,-3,1,-1,-2,-1,0,0,-1
2107,-3,1,-2,0,-3,0,-1,-1
2107,-2,-1,-2,0,0,0,-2,1
2122,0,1,0,-3,-2,0,1,-3
2122,-2,-2,-2,-1,-1,-2,-1,-1
2124,-3,-3,-1,-2,0,-2,-3,-1
2124,1,-1,0,0,-2,-1,-2,-2
2153,-2,-1,-2,1,0,-2,0,-2
2153,-1,-3,-1,0,0,-2,2,0
2154,-1,-1,0,0,-2,-2,-2,0
2154,-2,0,0,-4,-1,0,0,0
2159,1,0,1,0,0,0,-3,-4
2159,1,0,0,-2,-1,-1,-2,-3
2168,-1,1,-1,-1,-2,-1,-1,-2
2168,-1,0,0,-1,1,-1,-1,-1
2182,-3,-1,-2,0,-2,-1,-3,0
2182,0,-2,-1,-1,-2,0,-3,0
2183,-1,1,-1,-1,0,-1,2,0
2183,1,-1,-2,0,1,-1,0,-2
2204,-1,-1,-2,-2,-1,-1,1,1
2204,-3,-3,-3,0,-3,-1,-1,0
2206,-1,-4,-1,-1,-2,0,0,2
2206,-1,11,4,2,-1,0,-2,1
2227,4,-1,-1,0,0,0,-2,-2
2227,1,0,0,-1,-3,-1,-3,-3
2229,-2,-1,-2,0,-1,0,0,-1
2229,-2,-4,-2,-2,-2,-3,-1,-2
2242,2,-1,-1,-1,-1,-3,-1,1
2242,-1,1,-1,-2,0,-2,0,0
2244,0,0,-1,0,-1,-2,-3,0
2244,-1,-4,-1,0,-2,-1,-1,-1
2273,-2,-2,-1,-2,-3,-1,1,-1
2273,-1,-2,-2,-1,0,-1,4,-1
2274,2,-1,-1,0,-1,-1,1,-1
2274,0,-3,-1,1,1,0,-2,2
2279,-1,-1,-1,-1,-1,0,-2,1
2279,0,1,-2,-1,-1,-2,0,-2
2287,-1,0,0,-2,-2,-1,-2,-2
2287,-1,-1,-3,0,-2,0,-1,0
2302,-3,-1,-1,0,1,1,-2,-1
2302,-3,0,0,-1,0,-1,-3,0
2304,0,0,-1,-2,-1,-2,-1,-2
2304,-2,-3,-1,-1,-2,0,0,-2
2325,-1,0,0,0,-3,0,2,0
2325,2,-1,0,-2,-1,1,-2,1
2326,-1,0,-1,0,-1,-2,0,-3
2326,0,-1,0,-3,-2,-1,0,-2
2339,-2,-1,-3,-1,-2,-2,-2,0
2339,-2,-2,-2,-2,-1,-1,-1,-1
2347,-4,-1,-1,-2,-1,1,-1,-1
2347,1,-2,-1,-1,0,0,-1,-1
2362,0,0,-1,0,-1,-2,-2,0
2362,0,-2,-1,-1,-3,-1,-3,-2
2363,-1,-1,0,0,-1,-1,-3,-1
2363,-2,-2,-2,-2,-2,-1,0,-1
2384,0,-1,1,0,-2,1,0,-3
2384,-2,0,-1,1,0,2,1,-3
2386,0,-1,-1,-1,0,-1,-1,-3
2386,0,-1,-1,0,0,-2,0,-2
2407,-1,-2,-1,-3,-2,-1,0,-1
2407,-4,-1,-1,-2,0,-1,1,0
2409,0,-1,-1,-2,-2,-1,-1,1
2409,2,0,-1,-1,0,-2,0,2
2429,-2,0,-1,-1,1,-1,-2,-1
2429,-3,-3,-1,-1,0,-1,-2,0
2432,4,0,-1,1,1,1,-3,1
2432,-2,-1,-2,-2,-2,1,0,-1
2445,-2,-1,-2,-2,-2,-1,-1,-1
2445,-3,-2,1,-1,0,-2,-2,0
2447,-4,-2,-1,-1,-1,-2,1,-3
2447,-3,-1,-1,0,0,-2,0,0
2459,-1,-1,-4,-1,1,0,-1,-2
2459,-2,-2,-1,-1,-2,0,-3,-3
2467,2,1,-1,-2,-2,-2,-2,2
2467,-3,0,-1,-2,-1,-1,-3,-1
2482,-1,-1,-1,0,-2,-2,-1,-2
2482,-1,-1,-2,-1,-3,-2,0,0
2484,-5,-1,0,-1,-1,-1,0,0
2484,-1,-1,-1,0,-2,-1,-3,0
2504,1,-1,-1,0,1,-1,0,1
2504,2,1,-1,0,0,-2,1,0
2507,0,0,-1,0,-1,-1,-1,-2
2507,2,0,-1,0,-1,-1,1,-2
2519,-3,-1,-2,-3,-3,-3,-2,-1
2519,5,0,0,-2,0,-2,-1,1
2528,-3,0,-2,-1,1,0,0,-1
2528,-3,-3,-2,-1,-1,0,-2,-2
2542,-4,-1,-1,0,-2,0,-1,1
2542,0,1,0,0,-2,-1,0,-1
2543,-1,-2,0,2,0,-2,0,2
2543,4,0,0,-1,-1,-1,-2,0
2565,-1,-1,-1,1,-1,0,-1,-1
2565,-1,-1,-1,-1,-2,-1,-2,-1
2566,-1,-3,-3,-1,0,0,-1,-2
2566,-5,-2,-2,-1,0,0,1,0
2578,0,-1,-1,0,0,-2,2,0
2578,-2,-2,-1,0,0,-1,0,-2
2588,-1,-1,1,-1,-1,-1,-3,-2
2588,1,0,0,-2,-1,-2,-3,1
2601,2,0,-1,-1,0,1,-2,2
2601,-3,-1,-2,-2,-2,1,-1,-1
2609,1,-1,2,-1,-2,0,-2,0
2609,-1,-1,-3,-1,-2,-1,-2,-3
2625,-2,-4,-1,-2,-2,-1,0,-3
2625,-3,-3,-3,-1,-2,-2,-1,0
2626,0,-3,0,-1,1,-1,0,-2
2626,-2,-1,-1,-1,0,-2,-1,-1
2638,-1,0,-1,-1,-2,-2,0,-1
2638,-2,-2,-2,-1,0,0,-4,-1
2647,-3,0,-4,-2,-1,-2,-2,-2
2647,-2,0,-1,1,-1,1,0,0
2662,0,-1,-1,-1,-1,-1,0,-2
2662,2,0,1,0,-1,-1,0,-1
2664,-2,-1,-1,-3,-2,0,0,-1
2664,0,-1,1,0,-1,0,-2,-1
2684,0,0,-2,-2,-1,1,-2,2
2684,-2,-2,-2,-1,0,0,-1,-1
2687,-3,0,1,-1,-1,-2,-1,-1
2687,4,1,-1,0,0,-2,-1,0
2707,0,-1,0,1,0,-1,-3,0
2707,-1,0,0,0,-1,-1,1,0
2709,-1,-1,-1,-1,-1,-2,-2,0
2709,-3,-2,-2,0,-2,-1,1,0
2723,0,-2,-1,-2,-2,-2,-2,-1
2723,4,0,-1,0,0,-1,-1,0
2724,1,0,-2,0,-3,-2,-2,0
2724,-2,-1,-2,-1,-1,0,-1,1
2745,0,-1,-1,-3,1,-1,0,-3
2745,-5,-2,-2,-1,-1,0,0,-2
2747,0,0,0,-1,0,-1,-3,-1
2747,-1,-1,-1,-1,-2,-2,-4,-1
2759,2,1,-1,1,0,-1,-1,1
2759,0,0,0,-2,-1,-1,0,0
2767,3,-1,0,-2,-2,0,-2,-1
2767,-2,-1,1,-2,-1,-1,-2,-2
2782,-3,-1,-1,-1,-2,0,-1,-3
2782,0,-2,-2,0,1,0,2,0
2789,-1,-1,-2,0,-1,0,2,-2
2789,-4,-3,-1,-3,-3,-1,0,-2
2805,0,-1,0,-1,-3,-3,-1,-4
2805,4,0,-1,-1,-2,0,-1,-2
2806,0,0,-1,0,0,-1,-2,-1
2806,0,0,-3,0,1,-1,-2,-1
2828,-1,-2,-2,-1,-2,0,0,1
2828,-2,-1,-1,-3,0,-1,0,-2
2829,-3,0,-1,-1,0,0,1,-1
2829,0,-1,0,-1,0,1,-1,-2
2843,-1,0,0,-2,2,0,-1,0
2843,-1,-1,-1,1,-2,-1,-4,-1
2844,-2,-1,-2,-2,-2,-2,-2,-1
2844,1,-1,-1,0,0,-2,-1,-1
2865,1,1,-1,-2,-1,0,-3,0
2865,-1,-1,-2,0,0,0,0,-2
2866,0,-1,0,-1,0,-1,1,-1
2866,-2,-1,-1,0,-1,-3,0,-1
2887,-2,-2,0,0,-1,-1,0,-2
2887,-2,-1,-1,-1,-2,2,-2,-1
2888,-1,0,-2,-1,-3,0,-2,-1
2888,-1,-2,-2,-1,-2,0,-2,0
2902,-1,-2,-1,0,-2,-3,-2,-1
2902,-1,0,-1,-1,0,-1,-2,0
2904,-2,-1,-1,-2,-1,-1,-1,-2
2904,6,3,0,0,-1,-1,1,-2
2925,-2,0,-1,-2,-1,-1,2,-1
2925,-3,-1,-1,0,-1,-1,1,-1
2927,-3,-1,0,0,-1,-1,1,0
2927,-3,-2,-1,-2,-2,0,0,-3
2947,-1,-2,1,-2,-2,-2,-4,-3
2947,0,-2,-1,-3,-1,-2,-3,-1
2949,-1,-1,-1,-1,-1,0,-3,0
2949,-4,-2,-1,1,-1,-2,-1,-2
2962,0,0,-2,1,0,-1,-2,0
2962,-2,0,-1,-1,-1,-3,1,0
2968,-1,0,-3,-2,-2,-3,-1,0
2968,-2,-1,0,-2,-1,-1,-1,-1
2986,-3,-2,-1,-2,-1,-2,-1,-2
2986,0,-2,-1,-1,-2,-1,1,-3
2987,0,0,-1,-2,-1,0,1,-2
2987,1,-2,-2,-1,-2,-1,-2,-1
3007,-1,-1,-1,-1,-1,1,-3,1
3007,-2,-2,0,-3,-1,-1,-3,0
3009,-1,-1,0,-1,-2,1,-1,1
3009,-2,-1,0,0,-1,0,0,-1
3022,1,-1,-2,-1,-1,-1,-1,0
3022,-3,-1,-1,0,-2,1,0,-3
3028,0,-1,-1,1,0,-1,0,-1
3028,-1,-2,-3,-2,-1,-2,-1,2
3045,-6,-3,-2,-2,0,-1,1,-2
3045,0,-1,-2,0,-3,-2,-2,-1
3046,3,-1,1,0,2,-2,0,-1
3046,-1,-1,-2,0,-1,0,-4,1
3067,-2,-1,-2,0,-1,-1,1,-2
3067,0,2,0,-2,0,-1,0,1
3069,-2,1,1,-1,-2,1,1,-1
3069,-2,-1,-1,0,0,1,1,1
3081,1,0,0,0,-3,1,0,-2
3081,-1,-2,-1,-2,-1,-1,-2,0
3090,-6,-3,-1,-3,-1,-3,-3,-3
3090,0,0,0,0,1,-3,-1,0
3105,-1,1,-1,-3,-1,-1,-1,2
3105,0,-2,-1,0,-1,0,-2,-3
3107,-1,-3,-2,-2,-2,-3,-3,-1
3107,-3,-1,-1,-2,-1,-1,-1,-1
3127,1,-2,-1,0,0,-1,-2,-1
3127,-1,-1,0,-2,-1,-1,-2,-2
3129,3,-2,-2,1,0,-1,-1,0
3129,0,0,0,1,0,-1,-1,-2
3142,1,0,-2,-1,0,-2,0,1
3142,0,0,-1,-1,1,2,3,1
3148,9,1,1,-1,0,2,3,3
3148,2,1,0,-1,0,1,1,0
3164,-3,0,-1,-2,0,0,0,-1
3164,-1,-2,0,-1,0,-1,-2,1
3166,-3,0,-2,-1,-2,-1,-3,-1
3166,0,-1,1,-2,0,-2,-1,-2
3188,1,-1,-1,-1,-1,-3,-1,0
3188,1,-1,0,2,0,-1,-1,-2
3189,-2,-2,-1,0,-1,-1,0,-2
3189,0,-3,-2,-1,-4,-1,1,-1
3202,-3,0,0,-2,-2,-2,0,0
3202,0,-1,-2,-1,-2,0,-1,-1
3209,-1,0,-1,-1,0,0,-2,0
3209,-2,-1,-2,-1,0,-1,-3,-1
3225,0,-1,-1,0,0,-1,-1,0
3225,-2,-1,-1,-1,-1,-2,-1,0
3227,1,-1,-1,0,-1,-2,0,0
3227,0,-1,-1,-1,-2,1,0,0
3247,-9,-4,-2,-2,0,-2,0,-2
3247,4,0,-1,-1,-2,-1,1,-1
3249,-1,-3,0,-2,-2,-2,-1,-1
3249,-1,0,0,-3,-2,0,-4,-1
3262,-3,-1,0,0,0,0,-4,0
3262,-2,0,-1,-1,0,-2,-3,1
3268,-1,-1,-2,-2,-2,2,-4,0
3268,-2,-1,0,-1,0,-1,1,-1
3285,-2,-1,0,0,-1,-1,-1,-4
3285,-3,0,-1,-1,-2,-1,0,-2
3286,2,0,-1,-1,1,-1,-2,-1
3286,-3,-1,-1,-1,-2,-3,-2,-1
3307,0,-2,-1,1,-2,1,0,-1
3307,-1,-2,-2,1,-1,1,-1,-1
3309,-5,-3,-2,0,0,-3,0,-3
3309,2,0,0,0,0,0,0,-2
3321,1,0,0,0,0,-1,-2,-1
3321,-1,-1,-1,-1,0,-1,-4,0
3329,-2,-1,-2,0,-3,-3,-4,1
3329,-3,1,-3,-2,0,-1,0,-1
3344,2,-1,0,0,0,-1,1,0
3344,0,0,-2,-1,0,0,0,-1
3346,-3,-1,-1,1,0,1,0,-4
3346,0,-3,-1,-1,-2,-1,-1,0
3367,1,-2,0,0,-2,0,0,-1
3367,4,-1,1,1,0,-1,1,-1
3369,-1,-1,0,-3,-3,0,1,-1
3369,1,0,-2,-2,-2,-2,-2,-2
3390,0,-1,-1,-3,-2,-1,-4,-2
3390,-1,-1,-2,-1,-1,-3,-4,0
3391,0,1,-1,-1,-1,-2,0,-1
3391,-3,-2,0,-1,1,-1,1,0
3405,-1,-1,1,-1,-1,-1,0,-2
3405,-5,-3,-1,-1,-1,-2,0,1
3406,1,-2,-2,-1,0,-3,0,1
3406,-2,1,-2,0,0,-2,-1,1
3427,1,1,0,-1,-1,0,1,0
3427,-1,-1,1,-1,-1,-1,-2,0
3429,1,-1,-2,0,-1,-1,0,0
3429,-2,-3,-3,-1,-2,-1,-1,-2
3440,3,0,0,2,-1,-1,-2,0
3440,4,0,0,-1,-2,0,-2,0
3450,-4,-2,-1,-3,-2,0,-6,-3
3450,2,-1,0,0,-1,0,-2,-2
3465,-1,-1,-1,-1,0,-1,-2,-1
3465,-4,-1,-2,0,-2,-1,2,-4
3466,2,-2,-1,-2,1,-1,2,-2
3466,-3,-3,1,0,0,-1,1,-2
3488,-2,-3,-2,-2,1,-2,-1,0
3488,-4,-1,-2,0,0,-1,-2,1
3489,-1,0,-1,-1,-2,0,-3,-1
3489,4,1,-2,0,-1,1,1,0
3501,0,0,-1,-3,1,0,1,-1
3501,0,1,-2,-2,0,-1,1,-2
3509,-3,2,2,-1,-1,0,1,-1
3509,-2,-1,1,-1,-2,-1,-3,1
3525,-2,-1,-1,0,-1,-2,-3,0
3525,2,-1,-1,-1,0,-1,0,-3
3527,-4,-2,-2,-1,-3,-1,-1,-1
3527,-3,-1,-1,-1,-2,-1,-1,-3
3548,4,0,-2,1,-1,1,2,1
3548,-4,-3,-1,-2,-1,0,0,0
3549,0,0,-1,0,1,-1,-1,0
3549,-1,-2,-1,-1,-1,-3,-4,1
3561,-1,-2,-2,-3,-1,-2,-1,0
3561,-3,-2,0,0,-1,0,-3,-4
3570,0,0,0,1,0,0,1,-3
3570,-3,1,-2,-3,-1,-1,1,0
3584,-1,-1,-1,-1,-2,0,-1,-1
3584,-3,-1,-1,-3,-2,-2,-3,-1
3591,-1,-2,-2,-1,-2,-1,-2,1
3591,-1,-2,-1,-1,0,0,-4,-2
3607,-2,2,0,-1,-1,-2,-1,-3
3607,-3,-2,-1,-3,0,0,0,0
3608,3,-1,0,-1,0,-2,1,0
3608,2,0,0,0,0,-1,0,1
3621,-2,-2,-1,1,-1,-2,-1,1
3621,-2,-1,-2,-1,-1,-1,0,0
3630,1,0,-1,-1,-2,-2,0,0
3630,-2,-2,-2,-2,-1,2,0,-5
3643,-1,-1,1,-1,-1,0,1,-2
3643,-2,-1,-1,0,-1,-2,-2,1
3651,2,-2,0,-1,-2,-2,-1,-5
3651,1,0,0,-3,-1,0,-1,-2
3667,4,0,2,-1,-1,0,-1,0
3667,0,-2,-1,-2,-1,0,-1,-1
3668,-3,-1,-1,-3,1,-1,-1,2
3668,0,-1,-1,1,-1,-1,0,-5
3689,-1,-2,-4,-2,-1,-2,0,-2
3689,-1,-1,-1,1,0,-1,2,-1
3691,-2,-1,-1,-2,-1,1,-1,1
3691,-2,-3,-3,-1,-1,-3,0,1
3705,-2,-1,-1,-2,-2,-2,-3,-1
3705,5,2,-1,-1,1,-1,0,1
3706,-3,-2,0,-3,0,-2,-1,-2
3706,-1,0,0,-2,0,-2,-1,-3
3727,-1,0,-2,-1,-1,0,-1,3
3727,-2,-2,-2,0,-2,-1,-2,-4
3728,1,0,-1,-1,0,1,-1,-2
3728,0,-2,0,-2,-1,0,1,2
3749,-9,-3,-3,-1,-2,-1,-2,0
3749,14,3,2,-1,1,0,0,4
3752,-4,-1,-1,-1,-2,0,-2,-8
3752,2,-1,-1,-1,-1,-1,-3,-1
3765,-2,-2,-2,-1,1,0,-1,0
3765,-4,-1,-2,-1,-2,0,-3,-1
3766,1,0,-1,0,-1,-1,-2,2
3766,2,1,-1,0,-1,0,0,15
3786,1,-2,0,-1,0,-2,-2,-11
3786,-3,-2,-1,1,-2,-1,-2,-5
3794,0,-2,-3,-2,-1,0,1,-6
3794,-7,-3,-1,-2,-2,-1,-4,-4
3818,4,0,0,0,0,-3,-1,8
3818,-1,-1,0,-1,0,-1,2,2
3819,-1,-2,-1,-1,-2,0,-2,0
3819,0,-1,-1,-1,-1,-1,1,-3
3824,-4,-1,0,0,-1,1,3,-15
3824,-1,0,-1,0,-2,0,3,11
3827,-5,-1,-1,1,-1,0,2,1
3827,-3,-2,0,0,-1,0,-3,-6
3847,-2,-1,-1,0,0,-1,-2,-3
3847,-5,-4,-2,-1,0,-1,-2,-4
3849,0,0,-1,-1,-1,-1,0,0
3849,0,1,-1,0,0,-2,-1,17
3870,2,1,-2,-1,0,2,1,-9
3870,-2,0,-1,-2,-1,-2,-3,0
3871,0,0,1,0,1,-1,1,1
3871,-1,-1,2,-1,-1,-1,-3,-6
3884,-1,-2,-1,-1,-1,-1,-2,2
3884,4,-2,-2,0,-1,1,3,35
3891,5,2,1,0,0,-2,-5,-11
3891,3,0,-2,0,-1,-2,-4,-4
3908,2,-1,0,-2,-3,-3,4,4
3908,-2,0,0,-3,-1,-1,1,-12
3909,3,-2,-2,-1,-1,-2,-2,-14
3909,-5,-2,-2,-1,-1,-2,-6,25
3930,1,0,0,0,0,1,4,18
3930,12,1,-1,-1,-1,-3,0,16
3932,-6,4,0,2,2,3,-10,-58
3932,-7,-4,0,-1,-3,-3,-2,-21
3944,-1,0,0,-1,0,-1,-7,-14
3944,-7,-2,-1,0,0,0,3,17
3951,-3,-4,-20,-5,-3,-2,-2,3
3951,5,-1,3,0,-2,0,3,6
3975,1,-1,0,-1,-1,1,1,12
3975,-15,-6,-1,-1,-4,-3,-14,-87
3977,12,4,2,2,4,6,24,115
3977,-7,0,-3,0,-1,0,1,-44
3990,2,0,-2,-2,-2,-4,-2,10
3990,2,-1,-2,0,0,-1,-12,-13
3991,3,-2,2,-2,-1,-3,9,50
3991,-5,0,2,-1,0,3,-1,-12
4004,-2,-2,6,0,0,-3,-4,4
4004,7,-1,-8,0,-1,1,-1,-21
4012,-10,-6,4,-1,-4,-5,-9,-38
4012,1,0,-2,-1,0,-2,4,48
4027,-6,-2,-4,-1,-2,-4,-5,-20
4027,-7,-2,0,-3,1,1,2,4
4029,-4,-2,-1,-3,-3,-1,2,-11
4029,3,0,-4,0,-1,-2,-2,-13
4050,-2,-2,-3,0,-1,1,-5,-21
4050,-2,-1,-4,-2,-2,-2,-1,23
4051,-1,3,25,2,-1,-2,-1,-12
4051,2,-1,-2,-3,-2,-2,-5,-12
4064,-2,0,-1,-2,1,1,2,-7
4064,-1,2,10,-1,-1,-2,3,11
4073,2,-1,-7,-1,-1,-1,-7,-28
4073,3,-1,-9,-3,0,-1,2,-21
4095,5,-1,3,1,-1,-2,5,31
4095,-4,-1,-4,-3,-2,-3,-4,-18
4096,-2,-2,-4,0,0,0,-4,-5
4096,4,1,-10,-2,0,1,2,3
4110,-3,-2,4,4,0,0,-2,-18
4110,4,1,-1,-2,-1,4,8,42
4112,-3,-2,-4,-1,-2,-4,-6,-9
4112,-7,-4,0,-1,-2,1,1,9
4124,2,0,-4,-4,-1,-2,-2,0
4124,-5,0,0,-2,-2,-5,-5,-8
4133,3,0,-1,1,0,2,3,-13
4133,-18,-4,-2,-1,-2,-3,-6,-33
4147,20,1,-4,-4,-1,0,3,24
4147,-4,-2,3,-1,-4,-2,-2,1
4148,4,-1,-6,-1,-1,1,0,5
4148,-2,-1,2,-1,-1,-2,-3,-11
4170,-9,-4,-4,-1,-1,-2,-2,-23
4170,-5,-1,-2,-2,-2,0,3,-8
4172,-1,2,4,-1,-1,-2,0,6
4172,2,-1,3,1,-1,1,-3,5
4184,-7,-2,-2,0,0,0,-5,1
4184,2,-1,-1,1,0,-1,-2,1
4193,-9,-1,-4,-1,-1,-2,-2,-8
4193,1,-13,1,1,0,0,0,7
4208,-1,-3,-11,-3,0,0,1,6
4208,4,16,3,-2,-2,2,1,-9
4209,2,1,-7,-5,-3,-2,-3,2
4209,10,0,17,2,0,0,1,11
4230,-4,-2,2,1,2,2,-1,3
4230,-3,-7,-4,1,1,-4,0,-7
4231,4,-5,0,-2,-3,-1,-1,7
4231,6,12,-7,-2,0,-1,2,6
4244,-7,-4,0,-2,-3,-1,-3,-7
4244,1,-5,-2,0,-1,0,2,19
4253,-12,-6,-4,-2,-2,-3,-8,-42
4253,7,1,-1,1,3,2,15,92
4266,14,9,1,2,1,0,-1,-13
4266,11,2,17,18,15,2,4,19
4269,-3,-2,-1,4,0,1,1,-4
4269,-2,-4,-6,-12,-12,-2,-2,-17
4290,-9,-1,-3,-6,-5,-3,-4,-11
4290,-12,-7,-12,-6,-3,-2,-6,-20
4291,0,1,4,4,5,0,-2,16
4291,-8,-1,-2,4,3,-3,-6,-34
4303,12,-1,-3,0,-2,-1,4,65
4303,-7,4,11,5,-1,-1,-1,-19
4312,-2,-12,-1,-8,-2,1,-2,4
4312,-9,-1,-7,-3,-5,-5,-10,-26
4327,-11,-8,-2,-3,-1,-2,-3,-23
4327,14,5,-13,-6,-4,-4,-1,-3
4328,6,7,19,-1,-4,1,8,16
4328,-5,-2,1,-1,-1,-2,-2,-6
4350,-5,5,0,1,0,-2,-6,-17
4350,-1,0,3,-5,-2,-3,-4,-4
4351,-3,0,-11,-3,-3,-6,-10,-15
4351,6,-2,-1,1,3,2,5,-4
4372,-8,-2,2,0,-2,-4,-2,-9
4372,-6,-7,-13,-8,-5,0,-11,-2
4373,-7,-9,-6,1,5,5,-6,0
4373,5,2,1,2,2,-3,21,16
4388,11,7,0,-1,0,1,3,0
4388,2,1,5,-1,-2,0,-3,-7
4389,10,3,-3,-2,-2,-1,1,6
4389,-11,-21,-2,2,-2,-3,-28,-4
4410,-9,11,-1,-1,-4,-1,-2,-5
4410,-23,-15,-6,-3,-2,6,12,-80
4412,22,1,-1,0,1,-2,17,35
4412,-1,3,-9,-14,-14,-25,55,36
4424,14,22,5,0,-1,-13,-26,-26
4424,-30,-19,0,-3,-9,-17,8,24
4433,46,6,1,6,6,19,14,-37
4433,-1,16,3,-5,4,9,-19,-27
4448,1,-11,-3,11,7,3,3,-24
4448,4,0,12,-7,-3,5,-27,-18
4449,-40,-14,-2,-4,7,-8,-20,-47
4449,12,1,-21,5,0,7,-6,13
4470,-19,-16,14,-10,-14,2,-5,-6
4470,8,8,-2,-3,3,1,-3,5
4471,-19,-19,-14,-10,-5,-7,4,39
4471,23,23,9,18,7,3,3,-4
4483,-5,7,-8,2,6,5,3,13
4483,6,-23,-3,5,-1,-2,5,17
4493,2,-5,-5,6,-1,-4,5,22
4493,-8,0,3,-13,0,2,-12,-8
4507,0,-4,0,-4,-2,-1,3,-6
4507,11,17,-8,-3,-3,0,2,23
4514,-10,-4,-6,11,-1,-6,-10,-11
4514,-1,7,33,8,2,1,-6,-21
4530,9,4,40,-4,-8,-3,9,16
4530,1,10,-3,-5,4,1,10,7
4535,-28,-11,-33,-19,-6,-3,-7,-7
4535,-21,4,4,25,-3,1,-6,-11
4543,8,-11,-3,-17,1,4,4,12
4543,-3,-4,-10,3,-1,-2,-9,-4
4552,10,9,16,-5,-4,-6,-2,-3
4552,-12,-42,-35,-21,-6,-2,-4,0
4566,-4,-17,-31,15,10,1,3,-1
4566,-23,-11,-19,7,4,-1,-2,-8
4574,3,71,53,9,7,11,9,13
4574,-24,7,36,10,-27,-17,-14,-10
4590,-4,-19,-56,-63,-16,-1,0,-2
4590,17,4,-2,-20,1,-1,3,6
4591,19,-23,1,31,9,-1,1,5
4591,10,-9,40,46,22,15,0,-1
4603,9,63,-10,-23,0,1,-5,-1
4603,-14,4,25,20,-11,-3,-5,1
4612,3,-14,1,-5,-4,-4,-3,-4
4612,-4,-29,-72,-87,-7,8,0,-3
4626,-16,-55,-41,8,-2,-15,9,7
4626,49,38,69,41,2,-12,-2,8
4634,-22,26,13,10,0,6,-25,-12
4634,6,-22,-29,-12,0,-2,18,7
4650,19,44,2,-26,-3,7,-13,-7
4650,-7,-18,-6,-7,2,4,18,5
4652,-14,-23,-19,-11,-11,-15,-25,0
4652,12,2,8,35,8,-6,-11,5
4673,-28,-20,30,25,-1,-7,8,-19
4673,2,-5,-42,-38,-2,12,1,-7
4674,9,6,7,-2,-2,5,-8,17
4674,-3,-7,-31,-33,-3,-12,-22,-16
4686,-16,-16,8,10,-2,-6,-39,-12
4686,4,-3,13,11,-7,-12,29,19
4693,-13,-18,-11,-5,0,10,14,-10
4693,-3,5,5,-10,7,29,16,-1
4710,2,-26,17,35,8,-5,1,8
4710,-49,-16,-9,-4,-28,-48,-47,-26
4711,24,34,-12,-13,-1,-3,6,53
4711,-7,-2,5,4,1,4,-1,-32
4732,-2,10,19,-1,6,21,11,-59
4732,-46,-48,-82,-62,5,10,-3,-7
4738,30,4,26,20,5,5,28,15
4738,44,52,39,33,-7,-16,-2,31
4747,-30,-5,-8,7,-4,8,-3,26
4747,21,1,0,-2,-5,-12,-8,-13
4754,-21,-13,-15,-22,-3,-7,-15,-18
4754,3,0,-13,-15,5,6,7,1
4769,-6,-23,-4,6,1,-6,9,17
4769,18,16,13,6,9,15,7,14
4772,-19,-10,-14,-3,0,8,9,-1
4772,1,7,9,8,2,3,-20,-18
4792,8,-13,-12,-3,-11,-19,-3,-3
4792,-19,-4,8,5,-3,1,20,16
4794,25,27,14,13,11,10,13,-14
4794,47,-12,3,13,5,4,-11,18
4806,-37,10,9,10,3,0,9,11
4806,18,16,8,4,-1,-12,0,-13
4815,-33,-28,-32,-44,-29,-26,-17,-12
4815,-28,2,12,21,2,-9,-7,-17
4830,17,-10,4,7,8,13,-1,-6
4830,3,-9,-7,1,13,32,24,6
4832,-18,-19,2,4,-2,-6,15,-3
4832,-6,3,-4,-11,-16,-22,4,9
4852,45,12,-6,-14,-2,-2,8,3
4852,-43,2,4,13,4,8,-19,-9
4854,20,-18,-4,1,8,-6,9,12
4854,12,-7,-8,8,-2,11,-5,-37
4866,10,29,0,-11,-5,-15,-20,0
4866,-13,14,3,-4,-4,7,-7,-6
4875,1,2,-2,16,-9,1,7,-2
4875,-32,-25,-9,-10,3,15,5,10
4890,-17,-13,3,4,16,21,11,7
4890,56,22,0,3,-7,-56,-13,8
4891,9,-3,-8,-13,-7,0,-15,-19
4891,-5,11,4,5,-7,-5,-1,7
4912,-13,-1,1,-5,-1,14,-7,-3
4912,26,-13,-3,1,9,12,20,-9
4914,1,-19,2,-12,-9,-14,-8,-8
4914,-3,13,1,10,7,5,5,29
4926,-26,-8,0,-1,-10,-5,-7,-1
4926,-13,-26,-2,-4,2,15,-8,0
4935,-7,-10,0,8,4,-14,-8,-12
4935,3,-8,-8,-19,2,12,5,-11
4950,27,28,4,5,-3,-13,1,-4
4950,-22,6,-6,-3,-4,34,-7,-16
4951,4,11,18,-6,4,-10,-7,22
4951,-23,4,1,8,4,-7,4,-4
4972,19,-8,-1,3,-9,-16,5,5
4972,18,1,2,0,-13,-11,-23,-1
4973,-10,6,-13,-13,-5,31,5,-19
4973,20,-3,-1,-20,-12,-55,-12,17
4986,-22,26,5,5,5,11,-1,-11
4986,-22,-16,6,15,9,6,6,-5
4995,-6,18,-15,-11,12,24,13,3
4995,35,-22,-7,-7,-16,-13,13,9
5010,14,-8,-8,8,-2,-5,-8,6
5010,-1,30,8,-1,0,5,0,-4
5012,24,17,10,18,11,28,-1,-15
5012,-19,2,-5,-15,0,-14,9,7
5032,27,-9,-2,-13,-7,-20,-37,-25
5032,2,-2,-7,6,-16,-14,28,32
5033,-14,-3,1,2,-3,-12,-33,-8
5033,-12,-1,-6,-8,1,19,12,-3
5046,3,0,-5,-2,10,16,13,11
5046,-4,-49,4,6,13,17,-9,4
5054,23,45,4,2,-14,-41,4,-7
5054,-2,-2,8,0,-14,-5,-11,2
5070,-14,-17,-8,2,-4,-20,-20,1
5070,9,3,-5,-3,11,21,-4,-23
5071,5,-6,-10,-9,4,2,17,6
5071,9,0,9,-1,0,10,-4,-9
5093,-18,-12,-1,4,-13,-9,15,0
5093,12,13,-3,3,5,-11,-8,3
5094,-12,-4,2,3,-1,10,0,-3
5094,1,8,2,0,12,9,30,-5
5106,18,7,-21,-13,-7,6,9,0
5106,-4,4,12,7,-7,-27,-8,-11
5115,1,-20,-6,5,-2,1,7,14
5115,-4,1,1,8,5,12,-12,-7
5129,-8,0,2,-5,0,1,9,-12
5129,-8,-13,2,-21,2,2,0,10
5132,7,15,-16,18,-1,8,1,9
5132,-7,-19,-5,2,-3,-13,-30,-22
5152,7,9,13,9,4,12,36,39
5152,-16,18,-4,-19,-10,-5,-18,-14
5154,11,-24,0,-12,-2,-26,5,3
5154,6,6,-14,-5,0,20,15,19
5166,-33,-1,10,20,0,-8,-11,-13
5166,9,-22,-6,2,-4,-13,-14,-2
5175,19,16,7,1,-2,-9,-10,4
5175,-25,4,-1,-7,5,12,-4,-18
5189,3,-4,-6,-17,8,16,14,9
5189,-9,-4,0,19,9,19,24,6
5192,-36,-11,-1,-3,-6,-8,-22,-15
5192,8,9,1,-3,-11,-26,-18,-6
5213,6,5,19,-6,1,25,15,-10
5213,1,-11,-20,1,-4,-21,-9,19
5214,7,-11,4,3,6,9,1,-3
5214,-12,-10,2,0,2,20,8,6
5226,14,-9,-3,-5,-15,-41,-8,1
5226,-7,10,-4,-14,-2,6,-16,-8
5234,17,-3,11,14,9,11,7,10
5234,-15,-15,-8,3,-3,-16,-8,-15
5249,22,-1,2,-5,-2,7,7,11
5249,-1,12,8,2,10,1,10,-2
5252,-6,-19,-7,-21,-24,-19,-4,-2
5252,-2,3,-3,1,10,9,-6,2
5272,7,9,6,-3,5,11,6,2
5272,-41,1,-11,4,-6,-18,-4,5
5274,-6,-7,1,0,0,4,2,-26
5274,16,-10,1,2,1,21,26,9
5286,22,15,-13,-23,-3,-22,-30,5
5286,10,8,16,24,-7,7,14,1
5295,-10,1,2,7,-3,-6,-25,-10
5295,-5,3,1,-4,-7,-31,-8,-2
5310,4,-1,-19,-2,7,14,-1,-7
5310,17,0,2,-12,6,46,19,11
5311,-29,-4,4,-2,1,-24,-4,-3
5311,23,12,5,11,-7,5,19,6
5332,-25,-21,-9,5,11,57,-19,-3
5332,-1,9,19,-14,-8,-102,-5,-19
5334,10,-21,-34,8,-5,69,10,2
5334,3,38,17,6,-5,-60,-23,9
5346,-13,-4,0,8,-9,-15,-1,-1
5346,9,-4,-4,-10,-3,35,1,2
5355,-11,9,10,-7,20,39,27,11
5355,-8,-17,-11,-5,-3,-20,-13,-13
5370,-14,20,14,11,-5,-19,-1,-3
5370,25,2,-21,-8,-5,-4,2,10
5371,23,5,15,-14,-5,-25,-2,1
5371,3,-7,1,12,15,69,6,3
5392,-14,-16,7,15,-5,-61,-4,-16
5392,-10,3,-7,-7,0,35,-19,-16
5399,-11,-15,-2,-7,-20,-28,0,19
5399,1,54,0,-15,1,-13,-15,-2
5406,27,-10,3,2,17,40,26,9
5406,13,12,-4,2,-6,-5,5,6
5415,40,-1,0,-3,-4,-22,-31,-1
5415,-37,-29,-15,-2,-7,8,3,-3
5429,39,30,8,-8,-3,-24,-3,-9
5429,-7,-12,4,-2,-7,18,6,4
5435,-16,12,4,16,0,-29,-12,-9
5435,-11,-18,-4,-6,2,19,-4,-5
5459,-4,-8,0,3,3,14,0,1
5459,-3,-8,-14,-13,4,-10,-9,-6
5461,18,2,3,6,3,1,9,13
5461,-36,-10,6,4,-4,1,2,-11
5474,-8,-12,-16,-18,-12,-17,-7,0
5474,-7,10,12,6,17,30,6,-8
5483,-61,-17,-8,-1,-6,4,7,-22
5483,16,16,17,0,-9,-31,-11,13
5489,-6,-14,-19,4,-8,-7,-15,1
5489,-5,-9,5,-6,-10,-21,-5,-3
5495,-11,6,-5,-2,-1,-16,9,-8
5495,-6,-12,-3,-6,5,30,7,3
5513,-27,-6,6,4,-2,-4,13,3
5513,22,10,1,5,12,21,-8,1
5514,-12,1,-9,-12,-8,8,12,-18
5514,5,5,-3,-2,0,-13,22,2
5526,2,4,6,10,1,-17,-41,-2
5526,18,-5,-6,7,4,17,11,-6
5535,-2,1,-1,-13,-2,-25,-1,29
5535,-28,-16,-5,1,-3,22,17,-5
5549,-22,10,-2,-2,1,2,14,-17
5549,17,-6,-4,-1,-22,-61,-27,2
5556,25,14,4,0,-7,16,-10,0
5556,-25,-14,-9,-24,2,-4,0,-12
5573,20,15,3,19,15,51,13,4
5573,-1,-2,-6,6,4,-12,1,1
5574,-13,-4,-1,0,-7,-10,-7,-6
5574,18,4,-9,-12,-12,-19,-24,4
5586,16,12,5,-10,-3,-7,11,2
5586,-14,3,2,19,6,10,10,-1
5603,2,-3,7,3,32,53,7,2
5603,-8,-7,-3,8,-17,14,1,1
5609,-2,-6,-6,-19,-19,-81,-29,9
5609,-9,-15,-8,9,-5,-3,10,-3
5616,26,15,7,9,14,10,11,1
5616,11,4,0,-7,20,14,3,-3
5632,-30,-16,-5,-18,-30,2,-4,-15
5632,-5,-19,-3,-2,-38,-63,-28,4
5633,-9,16,0,-5,8,13,3,-3
5633,0,-5,-9,12,32,52,21,-16
5654,11,-8,7,13,14,-11,13,22
5654,15,2,4,-11,-15,1,-6,-22
5662,-18,-26,-9,-13,-11,-19,-34,-14
5662,9,25,11,9,-1,-5,9,3
5669,-14,-16,-10,-7,13,26,7,1
5669,-14,6,0,-16,4,3,2,3
5676,1,10,12,8,-31,-57,-17,-6
5676,19,-4,-4,-1,0,-13,-11,2
5694,1,-7,-5,7,17,56,9,1
5694,5,13,6,1,9,12,5,4
5695,-12,-1,1,-13,-25,-27,-4,-8
5695,-3,-23,-6,3,-16,-19,-8,9
5715,2,10,2,6,16,77,2,-4
5715,-17,-11,-5,-12,17,-48,13,-1
5716,-9,-12,5,6,0,44,-7,-2
5716,7,-21,-24,-17,-27,-76,-19,-1
5729,-25,0,-1,7,16,9,1,-3
5729,15,7,12,11,1,41,6,8
5738,-16,-12,-6,-3,-6,-2,12,-2
5738,7,4,22,-3,-3,-20,0,-5
5752,-22,-11,-30,-8,-16,-5,-16,-19
5752,28,0,-8,-11,16,16,14,37
5760,9,2,-5,15,21,18,7,-1
5760,-4,-10,0,-2,-19,-17,-19,-8
5775,-16,19,8,2,-11,-51,-25,-10
5775,4,10,-3,1,5,34,0,-5
5776,13,4,-6,-15,18,12,17,23
5776,2,2,1,6,7,45,17,-8
5789,2,-18,10,13,-27,-85,-15,-6
5789,-4,-3,-12,-6,-20,3,-18,-9
5814,-5,1,-8,-11,11,3,-7,-2
5814,-2,13,4,4,9,0,-4,0
5815,13,-7,5,-17,-12,10,14,0
5815,-20,-10,6,8,8,21,-5,-13
5819,-4,12,-3,-18,6,8,17,1
5819,1,-23,-22,33,14,18,3,8
5842,10,10,2,0,0,8,4,4
5842,-15,-6,5,-12,-42,-69,-24,-17
5844,-17,-26,-17,-7,-19,-47,-21,5
5844,14,32,4,-9,8,27,6,-4
5849,-20,-29,-6,7,9,35,4,-6
5849,8,32,6,-1,25,26,18,12
5857,-4,-8,-1,18,-4,11,5,-4
5857,4,13,23,-6,-24,-51,-25,3
5872,-6,-3,-22,-8,6,9,16,13
5872,-3,-2,8,11,16,66,3,-8
5873,-9,0,-2,3,-8,-68,2,-8
5873,-4,-3,12,-3,-2,5,-8,2
5894,23,-3,-6,-13,-9,-12,-29,-11
5894,2,-18,-7,6,5,22,16,11
5896,1,19,10,9,9,36,10,-10
5896,13,3,16,-11,-3,-10,7,4
5918,0,8,-16,17,5,2,21,-3
5918,1,-7,-3,-9,2,42,0,10
5919,3,-5,18,7,-1,-73,-26,-17
5919,-12,-16,-34,-27,-31,-14,-5,2
5939,-3,-9,13,7,-33,-69,-33,-21
5939,4,-1,0,7,41,21,-11,-1
5942,8,2,5,5,7,76,65,3
5942,-13,1,4,-5,10,28,-22,0
5971,-9,-10,-5,-14,11,-19,16,6
5971,2,21,9,8,-40,-79,-2,-7
5972,9,-26,-13,-23,-11,-2,-24,7
5972,-4,-4,-18,6,25,2,18,-2
5972,22,-8,9,8,9,39,5,3
5972,-2,-11,-1,9,-22,-49,-20,-2
5983,-4,37,-3,-3,6,13,2,-4
5983,4,-9,16,-11,-1,39,20,1
5992,33,13,-17,16,13,6,-2,17
5992,11,-10,7,-6,-5,-32,-10,4
5999,-3,22,-8,0,-20,-17,-19,2
5999,7,-7,-3,2,16,-14,-10,-6
6015,1,12,12,-18,-14,7,17,3
6015,-21,-10,-20,-15,-13,-11,-24,-19
6016,6,-10,-8,4,13,20,-1,5
6016,-9,9,4,16,11,0,17,7
6029,-19,-25,29,-11,10,28,12,-12
6029,24,12,-37,-9,-34,-55,-20,0
6037,-46,-13,-12,4,-5,-4,-24,-6
6037,-1,-7,0,5,6,10,10,-7
6053,-8,27,6,0,12,33,9,-2
6053,-4,-3,19,4,38,100,29,0
6054,4,-5,-8,-18,-15,-78,7,8
6054,-25,-8,-6,8,-28,-12,1,0
6075,5,6,-3,7,-16,-67,-44,-3
6075,1,-6,6,-19,-8,11,-4,2
6076,29,18,-9,2,21,25,3,7
6076,-15,-1,-3,-3,2,11,11,2
6089,21,-4,0,-7,-11,14,-11,4
6089,-14,-3,-1,9,27,26,19,2
6097,30,-7,7,4,-5,15,3,0
6097,18,12,4,-14,-24,-54,-24,3
6113,-18,-8,-15,-11,-13,-32,-11,0
6113,3,-15,-4,22,18,48,5,0
6114,13,31,10,-1,16,-26,-1,-14
6114,-11,-7,0,8,-14,-14,-22,-2
6134,1,12,13,0,-15,-14,10,-1
6134,-37,-16,-16,-13,-3,-40,14,5
6137,-3,-26,-4,10,-2,42,-8,-9
6137,12,19,6,5,26,59,11,-2
6149,-8,-10,-7,-6,-14,-59,-4,7
6149,-8,7,5,-5,-5,7,-26,-3
6157,5,-22,4,-2,-12,-51,-1,4
6157,3,-11,-12,-5,-31,-52,-7,-5
6172,14,15,-10,-21,16,63,18,10
6172,-1,6,0,25,22,46,16,-4
6173,-14,-13,5,11,22,11,8,5
6173,13,-1,0,-10,-5,8,9,5
6194,-6,-12,-7,-7,-26,-68,-47,-14
6194,1,10,6,-16,-24,-22,1,-4
6197,5,-4,0,-14,7,13,-7,2
6197,-15,1,-28,21,17,42,14,0
6209,-28,4,4,4,25,50,15,-1
6209,12,5,14,-3,-12,-73,-11,-1
6218,-7,-7,-5,4,-29,37,-1,-6
6218,-14,-9,1,-14,16,-35,-4,-4
6233,9,10,-1,5,-2,28,3,4
6233,3,-1,-6,10,-8,-27,13,1
6234,-14,7,8,-4,8,-2,-15,-11
6234,4,4,4,-1,-5,15,0,-1
6255,9,6,7,13,5,11,-9,-17
6255,5,-7,-7,-1,3,2,10,6
6256,-10,-6,-2,-14,-7,-4,2,2
6256,6,-3,4,11,-20,-48,-18,1
6269,-2,-8,-3,-7,-4,-23,-15,-2
6269,-24,-6,1,-3,9,16,4,-7
6277,13,5,-9,3,10,39,15,8
6277,10,-3,3,-2,24,39,10,0
6292,-2,-1,3,1,0,-1,20,4
6292,2,6,-6,-14,-35,-44,-19,-11
6294,0,-12,1,6,1,54,-9,-1
6294,-4,-5,4,4,-1,-62,18,7
6316,-12,6,-5,-5,-2,-1,-4,-7
6316,-4,-19,-24,3,23,10,-6,5
6317,29,3,6,4,-10,-2,-18,-8
6317,-5,-3,-1,-3,-7,8,3,3
6329,11,1,5,-4,11,-6,11,5
6329,-4,-5,3,-20,-28,-8,-12,-4
6337,-6,7,-12,-2,-17,-47,-6,0
6337,6,4,2,7,6,31,-21,-11
6352,-4,-23,-5,15,34,72,37,16
6352,13,8,3,-2,28,18,12,1
6353,-4,10,5,-2,-27,-58,2,7
6353,-27,-16,-8,-6,-35,1,-27,-19
6375,9,14,-8,3,28,-15,2,-2
6375,-13,-9,6,6,-23,-51,-6,0
6376,1,-13,-4,-14,-12,-30,-26,3
6376,0,14,-1,-4,19,42,19,5
6388,-8,-12,5,-5,4,39,17,-5
6388,5,4,-3,2,13,15,-11,2
6398,-6,7,0,3,-2,-22,0,-2
6398,12,-1,3,-25,-5,25,10,-4
6412,3,8,-4,21,-3,-46,-18,0
6412,-1,-3,6,-3,-22,-26,-3,-8
6414,-15,13,-12,10,4,39,2,-6
6414,9,3,3,3,24,4,-9,5
6435,3,1,5,-15,-18,-26,19,-1
6435,0,0,-2,-3,-12,-30,-31,8
6442,-14,-4,0,-12,7,29,7,-24
6442,7,4,-8,0,2,-9,17,10
6448,5,1,-2,13,7,47,-5,-3
6448,-6,-14,-9,-5,-20,-41,-3,2
6458,7,-7,5,-12,1,10,-7,1
6458,-16,16,3,12,23,45,10,-4
6471,1,11,6,0,-20,-62,-11,2
6471,-9,-2,-21,-7,3,22,19,-7
6480,19,41,17,17,12,16,-25,7
6480,-1,9,-2,-5,-2,-14,8,4
6495,-15,-12,-5,-9,-20,2,-24,-8
6495,2,1,11,-5,22,58,26,11
6496,-15,-13,-2,-4,-2,-83,8,2
6496,7,-7,-16,5,-33,-79,-22,-3
6509,16,2,1,0,0,59,-26,3
6509,14,17,6,-2,-3,-51,11,-9
6517,-11,-18,-5,0,24,68,19,4
6517,4,-1,4,-12,18,20,7,0
6532,-4,-4,1,3,-21,-24,-5,4
6532,-16,-4,-7,5,10,20,-8,-11
6534,28,-13,-1,8,-7,-4,17,10
6534,12,30,1,-15,-25,-43,-16,-2
6555,-8,-10,2,8,-1,-23,0,-6
6555,24,14,-11,-4,11,54,5,6
6556,-8,-11,3,0,15,-4,18,0
6556,3,-14,5,11,13,30,0,-4
6577,11,4,-7,-9,-8,-37,0,-1
6577,-22,1,2,1,-34,-64,-29,-13
6578,11,-3,-1,-2,-15,4,0,2
6578,3,-10,-8,-20,0,20,4,11
6593,-13,-1,7,12,34,20,-7,-13
6593,-4,-4,-6,1,11,23,28,6
6594,-5,9,-2,13,-7,-4,-8,0
6594,-4,-8,4,3,-3,-20,-18,0
6615,-4,-3,-6,-13,-20,-17,6,-4
6615,5,4,4,-6,-2,-6,-24,-1
6616,-19,-25,1,1,13,5,7,1
6616,9,18,9,2,1,-21,-5,-3
6638,22,0,-16,-15,-15,-12,15,10
6638,-6,-11,1,20,20,28,10,-6
6639,0,2,0,-12,-29,-29,12,-7
6639,-13,-23,1,-1,-20,-20,-42,-1
6652,-3,-3,-8,-2,15,-4,12,-7
6652,9,4,1,-12,7,34,3,4
6654,-17,1,3,10,20,32,-2,-7
6654,-4,-8,0,10,7,41,29,3
6675,1,3,-7,-3,-26,-69,-26,4
6675,23,16,5,3,13,49,2,5
6681,-15,0,1,-4,-4,-15,-19,-13
6681,0,-12,-7,-11,-15,4,16,10
6697,-8,-9,7,4,30,42,-2,6
6697,5,3,-5,5,-1,-16,1,-9
6699,0,2,-3,-2,-25,-37,-10,-1
6699,-7,0,-9,-2,-10,2,-26,-13
6712,-2,-10,3,-3,8,-18,11,2
6712,-2,-1,3,-8,-14,-14,6,10
6714,2,9,-7,-7,10,2,-4,-8
6714,2,-19,12,13,21,7,-6,-8
6735,-6,15,-13,-8,-17,29,16,4
6735,-6,-3,3,5,-22,-53,-26,-10
6737,17,-11,-13,-16,7,47,-5,8
6737,-6,5,6,13,9,-36,13,4
6757,9,-4,7,-6,10,21,-6,0
6757,7,-8,-7,3,9,44,20,0
6759,-9,-1,5,8,-21,-27,-10,3
6759,4,6,2,0,-2,-10,-22,-12
6780,7,1,-11,-11,22,4,1,1
6780,-34,-7,15,20,-29,-45,14,5
6782,23,4,-3,-5,-16,-13,-14,-3
6782,-1,4,-6,-3,7,34,3,-7
6795,-3,3,0,-2,-10,-18,-17,-2
6795,-8,8,5,-6,10,-1,2,-5
6797,-6,6,-3,-21,1,-31,4,2
6797,1,3,5,28,6,37,-2,0
6818,-10,-5,-7,1,14,43,17,-3
6818,2,-5,-1,3,2,-7,2,4
6819,-12,-9,0,1,-18,-30,-16,-6
6819,8,8,-9,-18,8,41,28,14
6832,-15,-7,6,0,-7,-17,-9,-7
6832,-2,-6,-6,-2,-14,-33,-30,2
6838,2,-2,-6,-32,2,34,9,-3
6838,-12,-3,1,31,0,-38,8,7
6855,6,13,4,6,6,23,7,-20
6855,1,-6,4,0,8,15,-9,-2
6856,-7,-15,-3,7,14,6,6,6
6856,-2,21,-1,-12,-2,43,3,2
6877,-13,-5,7,-6,-16,-61,0,0
6877,9,7,-6,-6,4,27,12,3
6879,-9,-17,-12,1,-8,-45,-19,-2
6879,-12,-9,-12,-14,-36,-61,-26,-17
6892,-4,-2,-2,0,-8,22,-14,-4
6892,-18,4,4,-7,20,46,7,-8
6898,0,2,8,26,45,49,42,5
6898,-2,1,-5,-24,-24,-29,28,-5
6915,-3,-6,5,17,-35,-58,-60,-7
6915,1,-17,-6,-1,13,9,-17,5
6916,17,9,3,3,3,45,20,-10
6916,2,-10,1,0,4,-51,-23,0
6937,15,1,17,-12,7,52,39,11
6937,1,16,-26,-3,-10,-12,-5,-3
6938,-7,-3,6,12,-4,1,-8,4
6938,-4,-8,0,-4,9,26,-4,-5
6952,-13,-13,-2,8,14,28,16,6
6952,7,3,1,-3,-2,-13,17,11
6958,-5,5,-1,-9,-14,-46,-38,-6
6958,21,2,-4,-3,-8,-17,-14,-1
6975,-9,-12,-5,6,14,18,14,8
6975,-2,-3,10,9,3,47,31,4
6976,3,1,-6,-6,-2,-23,-13,-19
6976,-1,7,-3,-2,-24,-24,3,5
6997,-3,2,-9,-10,-21,-21,-22,-4
6997,2,-3,6,-8,22,4,0,0
6999,4,1,3,3,11,67,42,10
6999,-4,-10,11,10,25,1,-18,-5
7012,24,8,-14,-4,-16,-53,2,5
7012,-16,-2,-5,-7,-36,-53,-19,-12
7019,-2,-1,-5,-1,-1,3,-9,1
7019,-5,3,5,1,18,15,23,0
7035,-11,9,2,-4,9,60,21,-4
7035,31,-11,0,-8,-7,-46,-26,10
7037,-1,4,-5,1,-17,-9,-8,1
7037,-3,-2,4,-15,-10,-10,-18,-10
7057,1,4,-11,5,9,-9,-12,11
7057,-18,-4,-1,2,12,33,14,-7
7058,-10,-11,-3,8,12,53,25,13
7058,11,5,1,-4,-7,-62,-9,-3
7072,-5,-10,3,-12,-32,-41,-16,-9
7072,-1,1,0,4,0,10,-3,-5
7078,1,3,-2,-6,9,-1,22,15
7078,-5,-14,-13,-2,22,50,-8,-2
7094,2,0,9,9,1,4,-5,-4
7094,-4,0,-4,-5,-34,-65,-23,-2
7096,-1,4,3,1,5,12,-5,-9
7096,2,-2,-2,-9,13,53,30,3
7118,-8,-3,0,1,-6,-59,-8,-12
7118,-3,-24,-11,8,3,17,0,-1
7119,1,19,0,-9,-12,-18,-6,-3
7119,-5,-1,-5,8,-8,-13,-3,5
7131,-1,0,3,-5,11,46,-10,-3
7131,0,4,8,-4,-3,-13,1,-3
7147,-8,-6,-2,3,3,11,5,3
7147,3,-6,-9,-16,-11,-34,-21,-11
7153,0,13,-2,-8,-2,22,15,8
7153,3,2,9,21,24,16,3,-9
7162,-3,-13,-13,3,11,7,11,11
7162,-11,1,3,8,-21,-22,-3,-7
7177,0,-10,2,-4,-11,6,-10,-2
7177,-7,4,-4,-12,-4,-29,-8,-9
7179,-8,5,8,-5,-15,-20,-19,-4
7179,-3,-9,-10,9,13,30,13,6
7191,1,10,-2,1,12,1,25,0
7191,6,1,7,-11,0,38,-3,2
7199,13,-2,1,10,-2,-25,-21,1
7199,-2,-4,0,-7,-7,16,13,7
7215,-6,-19,-6,-1,3,-9,-10,-3
7215,1,8,3,4,17,98,22,5
7216,1,-15,-6,-6,-27,-100,-27,-19
7216,7,8,-4,-2,-8,14,-15,9
7238,4,-1,1,2,1,-16,3,5
7238,-5,-2,2,-5,0,4,7,-2
7239,-12,3,-6,-13,11,17,-2,-4
7239,3,0,0,13,-8,12,6,0
7260,-1,-1,-1,1,9,-6,6,4
7260,-2,-5,1,0,8,16,17,-3
7261,12,4,3,-4,15,10,-3,0
7261,10,8,-1,-12,-17,53,12,2
7275,-7,-11,8,-1,-39,-83,-29,-5
7275,0,7,-27,-7,3,-10,-30,-9
7276,-8,-13,10,8,7,30,20,-5
7276,-13,4,-1,-3,16,10,8,-5
7297,6,0,-5,7,-7,-1,-5,-5
7297,0,2,5,-3,-4,6,3,5
7299,1,1,0,0,18,-11,11,7
7299,-2,-5,1,6,-24,-59,-3,5
7311,-11,0,0,-1,8,74,15,-6
7311,2,4,8,-21,-13,-71,-29,-8
7327,-3,-7,-18,11,-3,0,1,3
7327,-3,-6,3,6,0,-12,-8,-7
7335,14,29,5,4,14,9,8,7
7335,9,5,-3,6,17,54,28,13
7337,0,5,13,-15,-24,-18,11,2
7337,-12,-8,-6,3,8,-42,-35,-12
7357,2,-12,-6,-8,-19,-7,-10,-6
7357,-8,6,-4,0,4,3,4,1
7359,-2,-3,6,-5,6,45,3,5
7359,-1,1,0,-6,-9,-38,2,-5
7370,-22,-11,-4,9,-3,12,3,-3
7370,11,-7,-4,5,5,23,5,4
7379,-1,-1,-2,1,26,83,13,1
7379,2,0,8,-6,-1,-85,11,6
7403,-3,-5,-6,-6,-28,-29,-28,-3
7403,-8,-4,-4,-3,-9,-20,-6,-5
7404,1,-1,1,4,8,15,-7,-8
7404,4,26,8,0,8,50,7,4
7417,6,-3,-4,-5,2,-5,15,1
7417,-12,-9,14,11,-4,-29,-13,-9
7425,42,7,-9,-6,0,-20,-17,0
7425,-18,-11,-7,-17,-18,-5,4,2
7431,-10,3,0,16,21,39,13,3
7431,13,10,14,-29,-13,-64,-15,8
7440,-7,-7,-10,36,-4,10,2,-1
7440,7,6,0,6,9,-6,7,-12
7455,2,-2,-8,-7,-3,21,-12,-3
7455,-15,-14,1,-5,-2,-5,8,-4
7457,-5,0,-7,-16,-20,-35,-15,-1
7457,-2,1,-3,2,5,34,8,3
7477,13,4,3,4,31,54,0,2
7477,1,-1,-2,4,-2,16,20,3
7479,-11,-5,-4,-18,-49,-105,-38,-6
7479,4,-16,-3,8,3,18,1,-1
7491,13,17,2,-5,37,90,12,5
7491,15,1,-1,7,-14,-60,-11,2
7499,-6,-4,-7,-19,-24,-15,3,-3
7499,-3,-10,-2,4,-4,-14,-47,-7
7515,-6,-6,5,0,10,11,29,8
7515,19,4,-10,1,16,56,1,0
7516,-1,17,8,8,-2,-39,8,0
7516,5,3,1,-5,-17,4,6,1
7552,-7,-15,3,-3,2,-1,-11,-8
7552,-2,-2,-8,-9,-9,-41,5,4
7554,-10,0,3,-1,-3,10,-9,-5
7554,-14,-17,-1,1,23,21,9,-3
7559,14,21,-5,6,-7,-14,4,9
7559,-11,-9,0,2,-1,34,-14,-19
7561,-5,-5,6,5,8,-7,1,-6
7561,4,1,0,5,-1,26,5,9
7574,-9,-9,-1,-12,-17,-80,-9,-8
7574,-4,5,14,-6,-13,-13,-8,2
7590,2,-9,-26,0,11,19,7,3
7590,-1,3,1,-2,2,11,7,-7
7605,-8,-6,-7,2,-3,13,-4,-8
7605,16,14,6,5,10,4,6,10
7606,-4,-1,7,-2,1,-5,0,0
7606,-3,-5,-5,-7,-1,-12,2,0
7636,5,3,1,-15,-13,-6,-8,3
7636,-25,-2,-15,10,4,46,16,-7
7637,21,-6,2,-10,-2,-27,-19,-13
7637,-9,7,-4,8,-4,3,13,4
7638,10,-1,3,-5,-8,-48,-20,-8
7638,-11,-7,-1,13,11,60,19,0
7643,-1,5,1,-2,5,-10,4,2
7643,1,1,1,-12,-18,-16,-12,-2
7657,-8,-12,12,-5,-8,-3,8,-7
7657,6,13,-26,14,9,-8,-2,2
7659,-8,-2,6,11,25,58,4,1
7659,5,2,0,-5,-16,-41,-10,3
7680,-13,-17,-5,-4,-15,-6,9,-9
7680,21,18,2,-10,-8,-19,-6,2
7682,-2,-1,3,1,3,19,12,8
7682,6,-2,0,8,23,6,-1,-3
7703,-13,-3,-8,-10,0,11,-5,-6
7703,12,-10,-4,-3,-14,-16,3,3
7704,-6,-10,-6,-9,-14,-23,-13,-3
7704,-1,9,5,7,7,24,5,2
7717,28,-4,-3,7,11,6,-1,9
7717,-2,-8,1,-8,-14,-43,-14,-4
7718,-8,-2,4,-2,-4,13,2,4
7718,-3,-7,-8,-6,4,-7,-8,-4
7739,-6,-3,-7,2,8,32,9,-4
7739,-9,-6,12,9,17,32,4,-5
7739,-1,7,5,-14,-9,-36,3,5
7739,0,-1,-22,-3,-38,-45,-37,-14
7770,-7,12,-6,-2,5,-7,6,1
7770,-3,-12,2,-2,1,12,9,1
7770,2,11,7,3,8,4,-4,-8
7770,0,2,7,-7,24,42,11,8
7794,12,5,-4,23,-6,-25,-2,6
7794,-10,-18,-8,-9,-28,-65,-27,-10
7794,0,8,0,1,5,22,8,2
7794,16,0,1,-2,13,5,1,0
7799,-17,3,-3,-9,-2,-6,12,1
7799,3,3,5,3,0,24,3,-4
7800,-7,-7,-9,-3,-15,-55,-16,-6
7800,-1,-7,1,-2,1,12,-6,4
7822,-5,0,5,1,8,-6,-8,-13
7822,-2,-5,-5,-1,-4,-13,2,4
7822,-2,14,-10,6,4,41,12,6
7822,-13,3,0,2,17,62,15,-7
7836,-4,-5,1,-2,-33,-97,-23,2
7836,-8,1,4,-13,-11,-2,-34,1
7844,-10,-1,-6,5,15,39,2,-10
7844,5,-8,2,12,7,11,33,9
7859,-3,-6,2,0,9,58,-16,-6
7859,-13,-1,0,-10,-11,-58,1,5
7860,6,3,-3,7,-7,-5,-5,8
7860,-9,-5,1,-2,3,-2,-3,-13
7883,19,3,-8,0,3,5,6,3
7883,0,-3,1,1,7,25,8,8
7884,5,-7,7,-14,-7,-7,-1,-4
7884,-6,4,-5,4,-12,-30,-10,1
7897,6,-3,6,-4,6,-18,-11,-5
7897,-11,3,-8,6,4,19,-1,-11
7897,-21,-9,10,-1,-1,4,15,14
7897,9,5,-5,0,-6,-7,-10,-24
7919,-8,-2,-5,-3,-2,9,14,6
7919,2,4,4,-1,2,15,-12,1
7920,-19,-13,-4,-10,2,9,11,-11
7920,-3,2,6,-9,-22,-64,3,9
7942,-1,1,-2,1,2,15,-11,1
7942,7,-4,-6,-1,7,-8,4,-11
7943,8,-2,3,11,6,38,2,5
7943,-5,-5,5,-17,12,9,2,-1
7956,4,27,-4,5,-12,-12,2,0
7956,13,-16,-10,3,-21,-29,-16,2
7957,4,-21,-1,-1,5,-1,-17,-5
7957,1,10,1,3,6,28,12,-5
7979,-15,-10,0,-15,5,20,21,12
7979,-5,7,0,1,5,-48,-6,-16
7980,5,4,1,5,-5,10,-2,1
7980,1,-8,5,-10,-16,-42,-13,1
8002,-6,-7,-24,3,-3,3,-5,-11
8002,-10,1,1,-1,8,19,6,7
8003,10,5,-3,4,5,20,9,-8
8003,4,5,6,-15,-7,-23,-4,0
8016,30,4,6,2,2,7,-6,17
8016,-7,-1,-11,16,7,-4,0,0
8017,-5,0,4,-10,-16,-29,-12,-23
8017,-4,-7,-9,0,-3,23,-14,-7
8039,1,-5,2,-3,1,-6,12,6
8039,8,19,5,-16,-9,-21,1,7
8040,10,3,4,18,12,18,5,20
8040,-22,-8,-7,9,-5,-6,2,-10
8062,9,-1,2,-1,-3,-6,-22,-4
8062,-25,1,2,0,11,23,17,-3
8063,29,2,-4,-10,7,32,14,9
8063,9,4,9,-7,-7,-38,-1,-6
8115,-25,7,-13,18,-8,-26,-1,-9
8115,-1,4,11,-2,-4,1,-17,-7
8139,-13,-10,-14,-3,-2,-15,-2,-5
8139,5,5,-6,5,15,41,9,8
8140,0,-10,7,-12,-3,-28,-5,-1
8140,-3,-6,-4,-7,-11,8,2,-1
8141,-2,5,2,4,0,-25,-8,-8
8141,-6,-12,-4,-6,1,23,1,3
8146,-12,3,2,-10,-6,-1,13,5
8146,11,10,4,21,7,38,3,-8
8147,13,16,3,-2,-4,-65,1,9
8147,-10,-16,-2,-10,-9,22,-2,3
8159,6,6,0,-13,-1,21,-12,-19
8159,10,-5,1,3,9,5,7,0
8160,-9,9,1,2,3,3,5,-1
8160,9,-8,-4,3,-1,14,-11,8
8181,-1,-7,5,-5,-5,-10,13,12
8181,-5,-7,-10,-14,2,-24,-1,-9
8189,20,-1,4,10,-3,14,2,11
8189,-11,6,-1,9,6,19,-11,1
8196,-11,13,4,6,2,6,5,12
8196,-9,-8,-2,-1,-13,-26,-17,-34
8198,-15,-10,-3,-12,-10,-6,-11,-5
8198,-7,-1,1,4,9,25,9,-9
8219,3,-1,-3,0,7,14,-11,-2
8219,27,-16,-5,-11,-15,-40,18,22
8220,-15,-12,-5,-3,-7,-38,-28,-1
8220,23,19,4,11,2,4,1,-12
8241,5,-9,1,-1,6,22,5,5
8241,3,2,-3,-1,3,21,9,6
8242,-5,-21,-3,-4,0,20,3,-3
8242,6,22,5,-21,0,-8,-4,7
8256,-8,-8,1,18,4,-30,19,8
8256,4,-2,1,7,6,11,-26,-14
8257,-17,3,4,-15,-14,-5,11,-2
8257,2,-6,-12,10,-2,-44,2,9
8279,3,-14,3,-2,4,32,-13,-16
8279,3,20,-4,-3,-9,-17,3,1
8279,-12,3,-1,-1,-8,-5,-8,-5
8279,-1,-4,-3,-4,6,38,6,0
8302,14,-4,-3,-8,-7,-12,16,2
8302,13,6,5,5,6,-6,-12,15
8303,9,0,-9,-14,-2,-1,1,-2
8303,-10,-15,2,8,-9,-22,-11,-7
8316,-3,1,4,8,5,7,5,-1
8316,-3,3,-8,-15,12,84,-9,10
8317,-6,11,6,11,-6,-82,10,6
8317,-7,-8,0,7,-15,-14,-17,-11
8339,-23,-6,-9,-17,4,19,-10,-4
8339,19,-11,3,4,-2,-18,11,-19
8340,-1,3,-2,-3,11,50,-11,8
8340,-3,-12,-3,3,-12,-30,3,-6
8362,-19,15,4,0,-14,-21,-11,-12
8362,-16,-16,-11,-23,-8,-8,-1,7
8363,10,20,-3,7,8,17,6,0
8363,-3,-4,3,10,14,25,3,-1
8377,5,-7,-1,-1,-2,-18,-2,-2
8377,-10,-4,1,-1,7,18,11,8
8377,2,-7,4,4,-13,-28,-11,-10
8377,-6,8,0,-8,3,14,9,3
8399,-23,-13,-15,-5,1,12,-9,-3
8399,3,5,4,0,-8,-44,-2,-17
8399,2,-16,1,13,12,40,8,6
8399,17,5,-2,-6,-9,-31,-8,10
8422,-11,-2,1,-8,-11,-3,-4,-13
8422,-14,1,-2,-18,-19,-18,-5,-17
8422,9,-12,1,16,28,51,-1,28
8422,-2,10,-9,-2,1,-19,4,-8
8437,19,25,9,14,-1,4,-19,-44
8437,-3,6,1,-1,-14,-32,-11,-2
8438,-14,-22,-7,-11,-7,-8,-8,-6
8438,25,4,-5,-4,15,49,3,19
8459,-5,-20,3,3,-4,-38,4,34
8459,-5,4,-3,-1,3,29,13,-22
8459,4,-19,2,6,-2,3,-10,-7
8459,11,41,6,6,0,-26,-2,14
8482,15,-14,-6,-8,2,27,6,8
8482,3,27,7,8,8,-9,-1,6
8482,-10,-3,-1,-10,-12,-3,5,-5
8482,-12,-16,-13,-13,1,10,17,-9
8497,4,5,-3,12,-2,-23,9,11
8497,15,-19,4,4,-2,-9,-6,6
8497,-12,17,3,-9,-14,-19,2,-19
8497,20,-16,-1,3,-7,-3,-20,-1
8520,-12,-1,-6,-11,10,35,3,4
8520,-8,-13,-9,-7,5,-8,10,17
8520,-8,-1,3,16,8,17,6,-14
8520,14,1,10,9,1,-15,9,-11
8542,23,0,0,3,0,12,-2,3
8542,-4,3,-1,2,-2,6,-10,3
8543,-3,4,0,-10,-1,-21,-15,2
8543,-21,-10,-7,-18,-9,-9,20,7
8556,13,2,1,0,1,2,2,1
8556,-20,-33,-4,6,-1,25,3,2
8558,49,52,11,-1,-2,-34,-8,6
8558,-33,-13,-9,0,-3,-1,3,-14
8579,2,7,2,-12,-11,-22,-9,-1
8579,-12,-26,-7,3,2,13,12,-8
8580,-13,-13,-3,-2,11,43,-1,-8
8580,14,-6,3,8,-1,-35,-15,2
8602,-9,-1,-5,-10,-4,-4,1,0
8602,4,-19,1,13,2,7,2,11
8603,10,6,0,-2,-3,5,14,14
8603,5,7,2,-6,-4,3,4,-19
8620,-16,-20,-6,-10,-2,-2,-29,-17
8620,-4,-2,-2,-6,-4,-13,5,-8
8621,1,27,-9,-4,-1,-4,6,-9
8621,-20,-27,4,6,-11,-21,-11,8
8655,12,-8,-3,2,3,4,4,19
8655,1,13,5,-5,1,2,-15,-9
8655,-11,-12,-5,-2,0,3,7,10
8655,2,20,1,-2,5,13,-13,-18
8662,-1,-9,3,4,-2,-1,18,3
8662,9,4,5,5,-2,2,-1,17
8663,-9,-14,-7,-7,1,18,-5,-57
8663,-9,4,-8,-15,-3,-35,-9,11
8677,-6,-18,4,3,-5,-12,-9,8
8677,17,23,2,6,0,-7,-21,-16
8678,-44,-20,-7,-13,-10,-3,9,22
8678,31,2,-1,-3,7,49,6,0
8699,3,10,14,5,-2,-30,-9,1
8699,-4,8,-3,8,4,6,24,36
8700,16,26,7,7,2,-4,-13,-39
8700,-10,7,-1,-8,0,10,-2,12
8722,-14,2,-12,-16,1,2,-7,-19
8722,18,9,5,10,2,0,12,34
8722,14,-27,-7,2,-3,-16,-8,-22
8722,-51,-2,-2,-1,-1,3,5,-23
8737,48,24,10,2,2,9,12,15
8737,-6,16,-6,-12,-1,4,-11,-30
8738,4,-1,-6,-5,-10,-20,-4,21
8738,3,1,-3,0,2,1,5,18
8760,10,15,8,9,7,10,-16,-20
8760,-5,-6,-1,-7,-4,1,10,-15
8762,-2,-9,2,2,1,-10,-2,37
8762,-13,-24,-5,0,-1,3,0,-14
8781,-37,25,-21,-27,-5,1,10,1
8781,30,-40,2,17,5,10,-19,7
8783,4,38,9,3,-1,-25,16,37
8783,2,-3,12,14,2,2,-3,-64
8796,0,-12,-7,3,-3,7,17,12
8796,-22,19,-8,-18,-11,-14,-21,-37
8797,-14,-21,-2,8,2,13,-12,-9
8797,21,1,1,0,4,7,8,53
8819,-29,-12,3,1,-6,-12,5,-5
8819,1,-5,-17,-20,-5,-3,2,8
8820,23,5,14,4,2,2,-10,-9
8820,-10,3,1,9,3,1,14,25
8842,2,-5,0,8,5,7,-6,-12
8842,24,8,4,1,2,-7,-11,-1
8843,-22,-11,-8,-14,-3,4,7,23
8843,15,14,3,-4,-3,-5,1,25
8856,4,4,5,8,2,1,-4,-27
8856,-61,-3,2,0,2,0,3,-24
8857,39,3,-5,-4,1,2,-4,-30
8857,25,0,-2,4,-1,-1,-1,10
8879,-17,-8,-3,-4,-1,-2,5,19
8879,-3,7,2,0,3,-1,6,14
8880,-16,-12,-6,-4,0,4,-23,-8
8880,-7,-11,-9,-10,-1,-3,24,23
8903,8,2,2,4,-1,-2,-5,-14
8903,-2,-4,4,8,0,-4,-2,-25
8904,-13,-5,-4,-5,-2,-2,6,16
8904,4,1,0,-2,-2,2,-15,-13
8917,0,3,1,1,-1,0,1,7
8917,2,-5,-3,-4,-1,-4,11,24
8918,-8,-1,0,-1,-2,-1,-13,-57
8918,-7,3,-5,-7,0,2,-8,-14
8938,-3,-10,0,-3,0,1,7,7
8938,0,-3,2,3,0,-1,-3,14
8940,6,1,0,-1,0,1,7,-12
8940,8,-4,2,0,-3,-3,-10,8
8962,-1,21,1,-2,1,1,-31,-4
8962,13,-6,4,4,1,-3,25,13
8963,-7,0,1,0,-3,-1,2,5
8963,-2,-6,-4,-4,-3,-3,-7,-12
8985,-6,-11,-7,2,-5,-2,2,5
8985,1,-4,1,2,0,1,-14,-24
8986,15,5,2,0,1,-2,3,29
8986,-5,-3,-1,1,-2,-2,-2,-11
8999,-4,-6,-6,-4,-1,-1,-8,-13
8999,-3,-4,-4,-3,-4,0,3,-11
9000,-6,-10,-5,-1,-6,-5,18,19
9000,-1,2,-3,-3,-3,-4,-18,-71
9022,2,-1,2,3,3,5,18,71
9022,-2,3,-1,-4,0,4,-10,-16
9022,-9,0,-2,0,-1,0,-7,8
9022,-4,-1,-1,1,-2,-3,-5,-9
9037,-11,-10,-1,-1,-4,-5,-8,-52
9037,-3,-1,-4,-3,-4,-6,-7,-64
9037,0,1,1,4,3,4,4,45
9037,15,-3,0,1,-2,-1,4,11
9059,4,-7,-6,-12,-8,-1,7,5
9059,4,-2,-4,-4,1,-2,-3,10
9067,-2,-3,0,-1,0,-3,-1,-30
9067,-10,0,-1,1,2,-1,-1,1
9090,-4,-4,1,3,4,-4,-3,-6
9090,5,7,3,33,39,1,4,23
9090,-6,0,0,-34,-53,1,1,-14
9090,-6,-8,-3,-10,0,-3,-5,4
9096,-17,-3,-3,-8,-10,-8,-26,-128
9096,23,7,1,-3,5,7,36,105
9104,4,1,2,21,21,2,6,11
9104,4,5,1,2,1,5,-2,-16
9120,-14,-5,-2,1,1,-2,-10,-45
9120,-20,-8,-4,-1,-4,-10,-37,-127
9126,12,5,0,6,13,10,28,20
9126,2,5,3,-4,-7,3,9,23
9142,2,-2,0,5,5,-2,7,19
9142,-15,-6,-3,-10,-19,-7,-13,-26
9142,-26,-11,-8,-7,-8,-15,-37,-128
9142,-27,-11,-6,-2,-3,-11,-26,-100
9156,27,7,2,5,2,6,31,109
9156,2,6,1,-8,-10,8,-25,-13
9164,3,0,-2,0,4,1,16,17
9164,-6,2,-1,4,5,-1,15,25
9179,-10,-7,-4,-5,-6,-9,-14,13
9179,0,1,-4,-8,-9,-3,9,18
9180,-4,-4,-3,3,7,0,-20,-16
9180,-6,-5,-1,0,-1,1,-13,1
9202,4,2,1,0,-2,1,11,-5
9202,3,1,1,-3,-2,2,0,11
9203,0,2,-1,3,2,-1,0,5
9203,2,0,-1,-2,-3,-2,5,35
9216,1,2,-1,0,3,6,-9,-25
9216,3,-2,-2,-3,-5,-13,19,38
9224,-12,-1,0,-1,1,-3,-13,-27
9224,14,2,1,-1,-1,3,12,36
9240,10,5,3,3,3,4,-1,-4
9240,0,-1,-1,-2,-1,1,0,-3
9240,5,-2,-1,-3,-2,-2,7,15
9240,4,-1,-2,-2,-2,1,-7,2
9262,-4,0,-1,0,1,4,-34,-12
9262,0,-1,-2,-4,-4,-9,20,10
9263,2,-4,-4,-2,-1,-2,-3,1
9263,-2,0,0,1,1,-2,3,-23
9285,-3,-1,-2,-1,-1,-3,6,10
9285,4,1,1,2,1,8,-12,-48
9293,-2,-3,-2,-3,-4,-13,-2,16
9293,28,7,2,-1,1,0,7,58
9300,3,-2,-1,-3,-4,-2,-6,-24
9300,-7,-3,-1,0,0,2,3,11
9303,-3,0,-2,1,2,2,2,-25
9303,-7,-3,-1,-1,0,0,5,-12
9323,2,0,-1,-2,-1,-5,4,20
9323,-2,-1,-1,-3,-2,1,-10,-12
9323,2,0,1,0,-1,3,-20,3
9323,-3,-2,-1,-3,-2,-5,2,9
9336,-1,-3,1,0,0,-5,17,0
9336,-5,-2,-1,-3,-4,-5,-13,-14
9344,0,0,0,-1,-1,0,9,37
9344,-13,-5,0,1,-2,0,-8,-19
9367,10,1,1,-1,-1,-1,1,-5
9367,-3,-3,-2,-1,-2,-1,2,10
9368,2,0,-2,0,0,-1,-5,9
9368,-7,-3,-4,-2,-2,-4,-11,-19
9382,-8,-3,-3,-2,-2,-1,0,-8
9382,-1,1,-1,-1,-2,-1,-10,3
9383,-1,-2,-2,-1,-1,-1,12,-36
9383,-3,-3,-4,0,-2,0,4,33
9396,-6,-1,-1,0,-1,-2,7,1
9396,2,-1,0,1,-1,-1,-2,10
9405,-2,-3,-1,0,0,-2,-6,-24
9405,1,0,-1,-1,0,0,-5,-19
9419,1,-1,-2,-1,-2,-3,-1,9
9419,-6,-1,-2,0,-2,1,0,-2
9420,2,0,-1,0,-2,-3,-5,8
9420,-1,-1,-1,-1,1,-2,15,-2
9441,0,-1,-3,0,-1,3,-8,4
9441,2,-2,0,-2,-2,-7,-4,7
9442,-2,0,-1,0,-1,1,6,15
9442,2,1,-2,1,-2,-3,-13,-14
9464,-4,-2,-1,-1,0,-1,5,0
9464,2,-2,-1,0,-2,-2,3,4
9466,-4,0,-3,0,-1,1,-3,-2
9466,-1,-1,-1,-1,1,0,3,-15
9479,-5,0,-1,-3,-2,-3,-6,-7
9479,-1,-1,0,-2,0,-2,5,4
9480,4,-2,0,-1,1,-2,-1,5
9480,4,-4,0,0,0,5,-35,-10
9502,8,0,-2,-1,-4,-6,20,-11
9502,10,1,-1,0,1,4,-8,35
9502,-1,0,-1,0,-4,-1,21,22
9502,-12,-2,-4,-2,-5,-4,-4,-3
9524,-7,-2,-2,-1,1,-3,-14,3
9524,-3,-1,-2,-1,-2,1,2,-22
9526,-2,1,0,-1,-1,-4,-7,-4
9526,0,-2,1,0,-2,-2,4,3
9539,-3,-2,-1,-1,-2,-1,-8,-4
9539,-7,-3,-2,-1,0,-5,2,-3
9540,-19,-8,-2,-1,1,-1,-6,-5
9540,12,5,-1,0,0,-1,7,-3
9561,-23,0,1,1,1,1,0,-3
9561,0,1,-1,-1,-1,3,3,4
9563,-10,-3,-3,-1,-2,0,-5,-7
9563,0,-3,-2,-3,-1,-2,-1,-3
9584,0,-3,-2,0,-2,0,0,2
9584,-2,-1,0,-2,-2,-1,4,-1
9586,8,1,-1,-2,1,0,0,0
9586,-5,0,-1,0,-1,-1,3,2
9599,8,0,-3,-1,0,1,1,5
9599,-2,0,0,-1,-2,-2,-7,-4
9599,6,0,0,-1,-2,-2,2,0
9599,-3,0,-3,-1,0,3,6,-1
9622,-6,-2,-1,-2,-2,-2,-5,-1
9622,1,1,-1,0,1,-2,-11,-9
9622,-7,-3,-1,-1,-2,-1,2,1
9622,0,1,1,-2,-1,-2,2,3
9645,-3,-2,-1,-1,0,-1,2,3
9645,-1,2,0,0,-1,0,1,-5
9646,20,4,-1,-1,-1,0,-3,4
9646,-13,-3,-1,0,-2,-2,-3,-3
9660,4,0,-2,0,-1,0,-9,-5
9660,-5,-1,-1,-2,-2,-5,6,4
9660,1,0,-1,1,-1,-2,-1,-1
9660,0,0,0,1,-1,-1,3,-2
9681,-4,-3,0,-1,1,0,-1,1
9681,0,-2,-2,-2,0,-1,-1,1
9682,-1,-1,-1,-2,-1,0,-9,-1
9682,1,0,-1,-1,-3,-2,0,2
9705,-3,0,0,-2,-2,-3,-2,-3
9705,-1,-1,-4,-2,0,-3,0,-2
9706,-4,-1,0,-1,0,-1,-2,-5
9706,-1,-1,1,-3,-1,-1,-4,-4
9719,3,-2,-2,-1,-1,-2,0,1
9719,12,1,0,-1,-2,0,4,1
9719,-2,-2,0,-1,-2,-2,-12,-3
9719,-7,-2,0,-1,-2,-2,6,0
9741,-1,-1,0,2,-2,1,4,-1
9741,-4,-3,0,0,-1,1,-3,-3
9742,-3,-2,-2,-2,0,-4,-2,-1
9742,3,-1,-1,0,3,-1,-4,1
9765,3,-1,-1,-2,-1,-2,2,5
9765,-2,-1,-2,1,-1,1,0,-1
9765,-5,1,-1,1,-2,1,3,-1
9765,19,0,-2,-1,-1,2,0,5
9779,-1,0,1,-3,-1,0,-1,-1
9779,-5,-1,-1,-1,0,1,-2,-2
9780,0,-1,-2,0,-2,-2,-3,-1
9780,-8,-1,-2,-1,-1,0,-3,-2
9810,-2,1,-1,0,0,-3,-1,-2
9810,-6,-3,-1,-2,-3,-2,-4,-3
9811,-2,1,-1,2,2,1,4,2
9811,-5,0,-1,-1,0,1,-2,-2
9824,3,-2,-1,0,-2,0,-2,0
9824,-3,1,-1,-1,-2,1,-1,-3
9825,0,-1,-1,-3,-2,-1,1,-3
9825,-3,-1,-1,-1,-1,-2,-4,-3
9839,0,0,-2,0,0,0,0,0
9839,-1,-2,-2,-1,-1,-1,0,0
9840,-1,-2,-1,0,1,-1,-7,-1
9840,3,1,-1,1,1,0,1,3
9861,-1,-1,-2,-1,-1,0,-4,-3
9861,1,0,-1,1,1,-1,3,5
9862,0,0,-2,-2,0,-1,-6,1
9862,-4,-2,-1,-1,-2,-3,-6,-4
9884,1,0,0,-1,-2,-2,-1,-1
9884,0,-1,0,-1,0,-1,-1,0
9886,4,-1,0,-2,-4,-1,3,0
9886,1,-2,0,-3,-3,-2,1,-1
9899,-2,1,0,-2,0,2,6,-4
9899,-1,-1,0,-1,0,1,1,-1
9899,-3,0,-1,-1,-1,0,6,-1
9899,-3,0,-1,0,-1,-1,2,-2
9922,0,0,0,-2,0,0,2,0
9922,-2,-2,-1,-2,0,-2,-2,-1
9922,-3,-1,-1,-1,-1,0,0,1
9922,-1,-1,0,0,-2,-1,0,0
9945,2,0,-1,-1,-2,0,-3,0
9945,0,0,-1,2,-1,2,-5,-3
9946,-2,-3,0,-1,-1,-3,2,1
9946,-5,-1,1,0,-1,-1,-1,-1
9959,-1,-1,-2,0,0,-2,0,2
9959,-1,-2,-1,-2,0,-3,-1,-1
9960,-1,0,-1,-2,-1,0,-3,-2
9960,0,1,-1,-1,0,0,-3,-3
9981,0,-1,-1,-1,-1,0,5,1
9981,0,0,0,-2,-1,-1,2,-1
9982,-3,-2,-3,-1,0,0,4,-2
9982,5,-1,0,-2,0,-2,0,-1
5,-2,-3,-1,0,-2,-3,-6,0
5,2,-1,-1,-2,-1,-1,-4,-1
6,-4,-1,-1,-1,0,0,0,-3
6,-2,-3,-2,0,-1,1,1,-3
18,-1,-1,-1,-1,1,-1,1,2
18,-4,-1,-1,-1,-1,-1,-4,-3
27,5,2,0,1,-1,1,4,1
27,1,0,-1,-3,-1,0,-4,-1
42,-2,0,-2,-2,-2,-1,-7,-3
42,-2,-1,-2,-1,-1,-1,3,-1
42,0,-2,0,0,0,-1,-2,-2
42,-2,-2,-1,-2,-2,-1,-1,-4
64,0,-2,-1,-2,-2,-3,-2,-2
64,0,-1,0,-1,-1,-3,-4,-5
65,0,0,0,-1,0,0,3,2
65,0,-2,0,1,0,-1,5,1
78,-4,-4,0,1,-1,-2,-5,-1
78,-4,-1,-1,0,-2,0,-3,1
87,0,-2,-2,0,-1,-1,-6,-3
87,-2,1,-2,-2,-1,0,-2,1
102,-2,-1,0,-1,1,0,0,-1
102,-1,0,-1,0,-2,-1,-5,-13
102,3,0,0,-1,0,-2,14,9
102,0,1,-4,-4,-1,-1,-1,-1
125,0,0,-1,0,0,0,-1,0
125,0,-1,-2,1,-2,-1,-2,4
126,-5,-2,-1,-1,-1,-2,-8,-3
126,-2,-3,0,1,1,-5,-8,0
139,3,0,-1,0,-1,0,4,0
139,2,-1,-1,-1,0,0,1,-1
146,-16,-2,-2,-1,-1,-1,-3,0
146,6,0,-1,0,-1,1,2,-3
162,7,0,-1,1,-4,-1,-3,-3
162,-2,0,-1,0,-2,0,1,2
162,3,-1,-1,0,-1,-1,0,-3
162,-7,-2,-3,0,-1,1,-3,-4
185,-2,-2,0,-3,0,-1,2,1
185,3,0,-1,-2,1,0,9,0
186,1,-2,-1,-1,1,0,-3,-4
186,-5,-1,-1,-1,-1,-2,-10,3
199,-2,-1,-2,-2,-2,-1,-4,-1
199,-2,0,-2,-2,-2,-3,6,5
207,1,-1,-1,-2,-4,-3,-9,-12
207,-2,1,1,0,0,1,2,12
221,-1,-1,0,-2,-1,1,6,3
221,-1,-1,-2,-3,-2,-3,-7,0
222,-7,-2,0,-1,0,0,1,-7
222,15,1,0,-1,-3,-1,1,0
245,-8,0,-1,0,0,-1,-8,-33
245,10,-1,0,-1,2,1,7,44
246,2,-1,0,-1,-3,-3,-7,-8
246,1,-1,-2,0,0,-2,-1,6
259,-8,-1,-2,-1,0,-2,2,-12
259,2,-1,0,-2,-1,-2,-8,3
266,-10,1,-1,-2,0,1,5,10
266,-8,-2,0,-2,-1,0,-10,-14
297,5,0,-2,-1,0,0,12,11
297,-7,-2,-1,0,-3,-6,-7,-14
298,4,-2,0,-1,-1,3,3,4
298,-4,0,-2,-1,-4,-5,-12,-27
305,5,-1,-1,-1,-2,-3,-4,28
305,-9,-1,-1,0,-1,1,0,-15
306,0,0,-2,-1,0,0,0,-1
306,-3,-2,-2,-1,0,0,5,6
319,-3,-3,-1,-2,-1,-2,-20,-13
319,2,-1,0,-2,-2,-1,10,-2
327,2,0,-1,-1,0,1,-12,2
327,-9,-2,-1,0,1,-1,11,-9
342,5,0,0,-1,0,-1,-1,7
342,9,-1,-1,-3,-1,0,-11,-18
342,3,-1,-3,-2,-1,-2,11,16
342,-4,-2,-1,0,1,1,-8,-14
365,8,1,0,2,0,3,29,37
365,-4,-3,-2,1,-3,-1,-2,1
366,2,2,-1,1,-2,-5,-4,-5
366,0,0,0,-2,-1,-3,2,6
395,-11,-2,-1,-1,-1,2,-5,-9
395,-4,0,0,1,0,-1,-3,-20
395,3,-1,-2,0,0,3,5,0
395,-2,-3,-2,-1,-2,-3,-20,4
410,-2,1,-1,-1,-1,-5,-3,-23
410,-3,1,0,-1,0,1,11,18
411,-1,0,-1,-2,-1,-2,7,-8
411,-6,-1,1,-1,-1,1,-4,18
425,21,1,-1,-2,-2,-3,15,2
425,-12,-2,-4,-4,-4,-1,-11,-17
425,6,-1,-2,-3,-2,-2,-9,-12
425,-7,2,-1,1,1,10,29,-1
446,-11,-2,-1,-1,0,-5,-33,-7
446,3,-1,-1,-1,1,1,8,16
448,-2,-2,-1,-1,-4,-7,-16,-17
448,-5,-2,-1,-1,0,-2,1,-5
462,-1,0,0,-1,2,7,-6,-1
462,4,-1,-2,0,-3,-5,6,-2
462,-5,0,-2,-2,0,-2,-2,-2
462,4,-2,-1,0,-1,-3,10,-9
492,-5,-1,-1,2,1,2,2,-14
492,-4,0,-2,0,0,1,-9,-12
493,2,-1,-1,-3,-4,-3,-3,-3
493,-5,-3,-2,-2,-3,-5,2,54
507,6,2,0,-1,0,2,2,-32
507,1,-1,0,0,-2,-1,-13,19
509,1,-1,0,-2,-1,1,-7,-19
509,-1,-2,-2,-1,0,-3,-11,-10
521,-11,-2,-2,-1,-3,-6,7,39
521,5,1,-1,-1,-3,-1,12,47
530,-3,-2,-1,-1,-2,2,-6,-61
530,9,3,1,1,0,1,-2,61
544,-1,-2,-2,-2,-1,-1,-5,-25
544,-4,-2,-2,-1,0,-2,-5,-22
545,-4,-1,-2,-1,0,-1,3,6
545,-4,-2,-1,-1,-2,-2,-2,-15
568,-2,-2,-1,1,-3,-1,0,10
568,-5,-1,-1,-2,2,0,-7,-22
581,0,-3,-1,-1,0,-2,-3,1
581,0,0,0,-2,-1,-1,10,-12
597,-2,-1,0,-1,-3,-1,-5,-22
597,-1,-3,-2,-2,-2,-2,-16,-70
599,6,0,2,3,1,4,22,113
599,-8,-2,-2,-2,0,-1,-12,-74
604,15,1,-2,-2,-3,-5,-12,21
604,-11,1,0,0,1,3,8,-27
607,11,-1,0,-1,-1,-2,1,-40
607,-21,-3,-1,-1,-2,-2,0,25
627,-3,-2,-2,0,-1,-1,6,63
627,13,3,2,2,4,7,19,45
628,-3,1,-3,-1,-1,3,-7,-8
628,14,0,-3,-1,-1,-2,-3,-34
641,-13,-2,-2,-2,1,-1,-7,-34
641,1,0,-1,-1,-2,-4,-5,12
650,1,-4,0,-2,0,-1,-8,1
650,8,0,1,-1,-1,3,3,-31
664,-11,-2,0,0,-4,0,-2,-46
664,1,-2,-2,-1,-1,-2,2,8
666,-7,-2,-1,-1,-2,-7,-12,-1
666,-1,2,1,2,1,1,8,40
687,0,-4,-1,-2,-2,-2,-11,-25
687,-14,-1,0,0,0,1,-5,-6
688,5,6,4,2,4,5,8,76
688,16,0,-2,-2,-4,-1,4,36
701,-21,-1,-3,-4,0,1,13,34
701,-5,-1,-2,-2,-3,-5,-16,-4
710,-1,2,12,3,0,2,-8,-102
710,7,-2,-7,-1,-3,-2,2,11
725,3,5,12,0,0,-4,-1,-4
725,3,-7,3,-1,-1,-3,8,11
731,-14,-2,-2,-3,0,0,2,1
731,-4,-2,0,-1,-2,-1,-11,-22
746,14,0,-5,-1,1,3,0,-36
746,-17,0,-2,-2,-3,-3,-1,6
754,-18,-6,-3,-1,-3,-4,-4,41
754,13,0,1,0,0,2,-2,-31
761,4,-3,-7,-2,-4,-6,1,41
761,-8,-4,-4,-2,0,0,-12,-61
770,12,3,-2,-1,-1,2,9,-20
770,-21,-6,-3,-4,-3,-6,-30,-102
785,24,6,4,2,3,6,20,69
785,3,-1,-1,-2,-3,-6,-4,16
786,-10,-4,-9,-4,-4,-4,7,-46
786,25,4,-3,-1,2,-1,16,64
807,-10,-5,-6,-4,0,-2,-1,-56
807,-25,-8,-11,-3,-1,1,-2,45
809,15,15,16,3,2,4,17,29
809,-10,0,2,0,1,0,-9,-8
821,-5,-4,-4,-2,-3,-3,-6,6
821,13,0,-2,2,-1,0,3,31
830,-5,-2,-5,-2,-2,0,-3,57
830,-11,-8,-2,-3,-3,-3,-1,-53
845,-22,-1,1,0,0,-3,-10,-74
845,22,6,10,3,6,11,0,36
846,7,-3,-1,-2,-3,-2,-8,-47
846,1,-1,-2,-1,-2,2,14,67
867,-11,-6,-3,-2,-4,0,-13,-55
867,-12,-4,-1,-2,-1,-6,4,-26
873,-4,-2,-2,1,0,-2,-21,-70
873,1,1,-1,-3,-2,-3,8,-8
881,1,-1,-1,-2,0,-1,-2,25
881,0,1,0,-3,-5,-4,7,-15
890,17,2,-1,0,0,3,18,93
890,-10,4,4,1,-3,3,-6,-8
904,5,-1,1,1,-1,2,-2,-10
904,13,1,0,-2,-3,-3,9,13
906,-8,-4,-6,-1,1,-1,-32,-91
906,6,4,0,0,-1,0,21,65
928,-4,-7,-2,-2,-3,-6,-29,-23
928,11,1,1,1,2,3,15,20
929,-1,-3,-1,0,-1,-3,30,15
929,-7,-1,7,0,-1,-3,-29,-57
941,-5,-13,-20,-7,-5,-7,-8,33
941,-2,-1,6,1,-2,-1,-21,0
950,-20,-4,-3,-2,-3,-2,5,59
950,3,6,1,-2,-1,-3,-27,-89
964,-5,-1,-3,-3,-2,-1,23,71
964,-6,-3,-17,-4,-1,4,-10,-81
967,1,-6,2,-5,-7,2,4,30
967,-4,-7,-5,-1,-2,-4,-6,26
988,-2,0,3,-1,1,4,27,-20
988,-14,2,-2,3,2,3,-4,-33
989,12,7,-6,2,-1,-2,-22,30
989,2,2,15,2,1,2,7,12
1000,5,7,8,6,5,4,16,4
1000,-11,-1,3,-1,-3,-6,-18,-86
1010,3,-3,-7,-1,3,3,8,34
1010,-1,-3,-5,-2,-1,0,3,36
1032,2,3,1,2,2,0,6,-19
1032,3,0,3,-1,-2,0,3,-22
1033,-7,-3,-2,-6,-4,-5,-12,-80
1033,3,-2,-7,1,0,-2,3,30
1047,1,0,4,-1,-4,-6,-40,-63
1047,4,-1,-3,-4,-6,-3,28,60
1048,-6,-5,-1,0,-3,-4,-19,-78
1048,-3,-2,-3,0,2,4,18,37
1061,-4,-2,-1,4,2,1,2,-84
1061,16,7,7,0,0,0,1,70
1069,-17,-6,-4,-3,-3,-6,-16,-101
1069,3,2,3,5,4,0,13,30
1085,1,-5,-5,-8,-9,-1,4,33
1085,0,-7,1,-1,0,-5,-19,-86
1086,9,5,0,1,2,5,11,5
1086,-3,-5,-10,-10,-4,-3,-8,-6
1107,-2,-4,11,4,0,-2,4,49
1107,14,6,-6,1,0,0,4,54
1109,-11,-6,-13,-5,-7,-9,-31,-50
1109,7,-12,12,2,0,2,16,-12
1121,3,13,3,-1,1,-2,-6,23
1121,3,5,4,1,0,2,18,52
1130,-2,-3,7,-2,-1,-6,-5,22
1130,-4,-19,-28,0,2,1,-2,-12
1144,1,11,-1,1,-5,1,1,-12
1144,-10,-8,0,-13,-3,-2,-23,-92
1151,2,9,-16,-3,0,2,15,8
1151,-19,-4,15,5,-1,-4,-9,-7
1167,2,-10,-10,-3,0,-2,10,13
1167,1,2,1,6,3,1,-19,-5
1169,-4,-2,4,-1,-2,-5,5,35
1169,9,8,1,2,5,12,21,-1
1181,6,-3,-3,-6,-1,-2,-5,-29
1181,-9,-7,9,2,-6,-4,1,-21
1190,-24,-1,4,0,3,6,22,80
1190,9,12,4,0,0,-5,-26,-72
1204,0,3,4,0,-2,2,-9,37
1204,11,2,-12,-6,-4,0,15,21
1211,-34,-10,9,1,-3,-6,-11,-20
1211,38,-6,-21,-4,-7,-11,-44,-90
1227,-7,7,-4,0,4,7,36,38
1227,-25,-11,-5,-4,-5,-9,-36,-56
1228,42,3,1,2,2,5,27,-44
1228,-14,9,7,0,5,4,-2,-17
1241,-1,-2,-3,-3,-3,-4,-7,6
1241,13,-1,-4,0,-3,-4,9,66
1250,-23,-4,-2,-3,-3,-10,-19,-57
1250,-5,8,-1,-2,-1,1,2,69
1264,15,-2,1,1,4,5,19,-17
1264,-15,1,-2,2,9,9,11,18
1271,11,0,-5,-1,-8,-4,-2,17
1271,-12,-2,3,0,-2,-7,1,-23
1287,-13,-2,-6,-6,-5,-3,-21,31
1287,9,3,20,-1,0,-1,4,-60
1289,27,15,0,1,5,10,21,50
1289,0,-2,5,-3,-6,-5,-17,69
1301,-21,-3,23,12,5,-6,17,7
1301,-21,-19,-28,-3,0,2,12,55
1310,20,9,-3,-6,1,2,-8,-5
1310,-70,-39,-29,-6,-8,-12,-19,-89
1324,21,20,-5,4,13,15,2,74
1324,110,22,5,0,-6,5,29,35
1331,-28,5,19,11,6,4,17,-8
1331,-18,-7,-3,-9,-11,-3,17,24
1348,3,-16,-3,-7,-7,-7,-1,-52
1348,-63,-10,-10,-5,-7,-22,-82,-106
1349,78,18,5,9,25,41,94,127
1349,11,19,6,4,4,7,24,-30
1370,-7,-4,-3,-8,-16,-12,-33,-49
1370,-16,-1,-1,1,1,2,16,-25
1371,-47,-13,-20,-3,-4,-13,-38,-41
1371,44,17,27,12,13,8,3,-63
1384,23,-17,-2,0,9,15,62,88
1384,-26,9,-21,-7,0,-7,13,45
1391,-13,-7,6,1,-14,-11,-29,-8
1391,13,6,-8,-22,-3,3,30,92
1409,-10,0,-5,5,-6,-6,-26,21
1409,15,-3,8,0,1,-6,-25,-37
1410,-46,-26,-9,-4,-9,-19,-47,-42
1410,-24,0,1,1,4,9,70,54
1429,7,3,-28,-3,-2,0,-52,-128
1429,-4,32,32,14,13,16,39,-8
1432,14,17,22,-4,-1,3,16,38
1432,-53,-31,-51,-19,-11,-19,-50,-100
1444,13,-4,6,0,2,-3,10,-39
1444,-13,-5,-3,6,4,6,18,43
1451,7,1,-10,32,11,-10,-31,-65
1451,10,9,15,-12,-23,-5,-11,-27
1467,-12,-3,-1,-15,0,-4,-14,-37
1467,-37,-22,-11,-14,-4,-7,-20,6
1469,90,10,7,-1,13,11,19,-78
1469,-23,-3,9,23,4,-3,-43,-65
1488,-9,6,8,3,-2,-4,-3,-82
1488,-90,-36,-7,-8,-8,-10,-39,-75
1498,65,26,-1,-1,-2,0,14,27
1498,16,15,14,13,14,25,-8,-40
1503,5,2,5,-2,1,3,14,-49
1503,4,-2,0,-4,-6,-3,25,14
1512,-36,-8,1,-6,-2,0,-33,-116
1512,8,-2,-1,-8,-4,-8,-7,-21
1527,-19,4,-7,-2,-1,-2,10,76
1527,38,7,15,14,12,11,6,34
1528,-23,-9,-12,-7,-2,-5,7,58
1528,23,-11,-12,23,-1,-3,21,77
1550,-24,-12,6,-69,-32,-7,-20,14
1550,28,6,-5,1,1,-11,-25,-60
1551,-22,-7,-7,-16,-22,-2,-7,3
1551,-19,-14,-21,0,12,-4,3,-22
1563,15,11,0,13,-1,-6,-15,2
1563,15,13,9,-4,-9,-1,-8,-104
1573,-30,-6,3,-2,6,2,-40,-78
1573,37,25,18,13,14,19,96,84
1587,33,-11,-10,12,1,-7,-22,-122
1587,-27,5,-3,-2,-1,7,9,12
1588,3,-1,3,5,3,2,20,34
1588,-27,-12,-9,-15,-19,-24,-81,-53
1610,30,12,12,19,17,20,59,82
1610,24,1,-3,7,7,11,23,-14
1611,-25,-21,7,-8,-12,-10,-3,-13
1611,-33,-4,-5,-13,-8,-8,-28,-52
1623,-10,-9,-1,5,5,-3,17,37
1623,-3,-4,-8,0,-3,-7,-36,-64
1633,-6,-1,-4,-5,-5,3,27,28
1633,11,11,10,-9,-3,-2,-10,-85
1647,-12,-4,5,19,8,3,21,76
1647,7,-7,-7,-13,-11,-9,-14,-4
1648,-22,-7,-9,-5,0,1,-14,-98
1648,11,2,1,-5,0,-1,10,0
1669,-7,1,-7,-2,-1,-3,-9,35
1669,3,-2,2,3,0,-3,6,-17
1671,13,5,4,6,-1,11,30,55
1671,10,4,1,9,-11,-4,0,13
1684,-8,-1,14,-7,-5,-6,-11,-17
1684,-4,-6,-4,-3,-2,0,0,-19
1699,-17,-3,-8,-6,0,-15,-24,34
1699,3,-2,6,5,13,9,26,-5
1707,4,11,1,5,-2,11,15,17
1707,24,6,-6,8,4,2,14,44
1709,-15,-15,-17,-19,-14,-8,-15,-28
1709,-13,-13,5,1,0,-7,-16,-11
1729,2,-5,-8,0,-2,-7,-15,-1
1729,9,7,6,3,11,8,-17,-68
1731,15,7,0,9,5,6,37,66
1731,5,2,-2,-15,-2,0,-10,23
1744,-15,1,-6,-2,-2,-6,-23,-52
1744,3,-10,3,-4,-16,-3,4,13
1753,-15,-8,-6,-26,-11,-7,-33,-85
1753,17,-6,-4,-2,0,0,14,-14
1768,-13,7,0,0,1,-2,-33,-102
1768,0,9,2,4,2,-2,-3,-19
1769,19,3,9,11,9,6,23,-14
1769,-11,-1,3,0,-5,-5,-19,-61
1790,-6,-10,-6,-1,3,-9,-1,-21
1790,6,-5,-6,-6,-5,-2,12,67
1796,-15,-7,-2,5,-4,-7,-2,-92
1796,-7,6,5,10,9,3,-11,-21
1804,-7,-12,-8,-4,-5,-7,-3,-1
1804,-20,4,6,0,0,4,-3,29
1811,-14,8,11,3,0,-4,-39,-99
1811,36,19,12,1,5,16,79,127
1827,-10,-8,1,6,-4,-1,-1,-69
1827,-12,-8,-5,-8,-10,-9,-2,-45
1829,17,7,4,1,4,2,6,49
1829,-8,-5,-10,-1,-2,-9,-31,-87
1849,-1,7,0,-1,1,7,-4,-38
1849,7,-1,-4,7,5,2,20,-11
1852,-13,-15,-9,-7,-12,-12,-16,-26
1852,-6,-4,-5,-9,-6,-4,9,87
1864,-11,-9,-19,5,3,5,7,66
1864,6,0,46,-6,0,-1,-1,2
1872,5,1,-4,13,0,-1,-6,-4
1872,-14,-10,-9,2,0,-10,-20,-13
1887,12,7,20,14,12,4,15,67
1887,-5,2,-14,-12,-15,4,-27,-106
1888,-9,-1,6,-2,2,0,12,26
1888,-4,-11,1,-7,-4,-7,-16,-15
1910,0,-14,-13,1,0,0,-9,-45
1910,6,23,-12,16,11,-2,7,16
1912,10,-2,-8,-35,-8,-4,-8,8
1912,-6,-1,-4,18,6,0,-3,-62
1923,-11,-3,3,-21,-23,-6,-14,-58
1923,15,-1,-6,9,4,0,25,97
1932,2,-11,-9,3,-1,2,6,5
1932,-7,-6,-17,-8,-4,-9,-12,28
1955,7,15,19,29,21,9,14,8
1955,-5,-9,-1,-29,-21,-4,-3,-19
1956,5,5,-19,22,10,2,12,14
1956,-11,-1,14,-14,-12,-4,-20,-5
1970,11,5,-4,2,8,0,2,10
1970,-3,-27,-16,-2,-5,-9,-50,-94
1972,36,13,11,17,17,18,49,104
1972,-3,5,-15,-3,-6,6,35,-6
1983,26,15,8,-5,-7,4,-3,-59
1983,-24,-1,-1,2,1,-4,10,22
1992,7,0,0,-4,-3,-2,-20,-38
1992,8,-5,6,-5,1,4,14,65
2007,-6,-3,-6,-7,-4,-5,5,9
2007,4,-7,1,3,6,5,27,41
2009,-17,-6,4,0,-7,-7,-25,-61
2009,4,4,-12,19,13,1,1,31
2029,-12,-13,-4,-5,-36,-12,-6,4
2029,1,3,-24,-81,-23,-10,-2,9
2031,-11,-32,-59,-11,-4,-1,3,-11
2031,2,11,28,10,2,2,-17,-55
2044,-28,-8,-8,11,7,-7,-29,-79
2044,23,7,6,32,11,5,15,25
2052,-4,7,5,-13,0,3,16,5
2052,-44,-22,-18,-13,-17,-23,-18,-41
2066,-1,9,3,-1,9,14,-26,-81
2066,-19,-6,4,0,-8,-12,-25,-82
2075,9,13,18,3,10,12,33,111
2075,5,3,11,5,-3,2,-7,-48
2090,-2,9,5,-6,-1,-5,12,9
2090,-3,-20,3,-4,0,8,1,-19
2092,-16,-1,6,15,-5,-17,-24,-28
2092,12,-8,0,-12,-4,4,-1,20
2104,6,-1,-13,1,25,-3,3,28
2104,16,2,-1,45,-21,11,21,57
2120,22,51,44,9,0,-1,-6,-24
2120,-7,4,12,-11,1,-1,-19,-44
2126,26,0,3,8,16,13,46,112
2126,-12,0,-6,17,15,-8,-30,-79
2133,-5,-4,4,-3,-6,3,35,9
2133,-1,3,-10,-1,-6,-4,-33,-128
2149,-7,-11,-8,-3,-6,-3,6,19
2149,0,8,3,-11,1,-4,-7,-17
2151,-12,-16,-6,-11,-9,-4,-1,-3
2151,-6,-1,-2,-1,11,4,-4,-40
2164,31,-9,-11,-10,-14,-9,-12,59
2164,-6,7,5,-7,1,1,-3,11
2173,-3,-5,-3,2,6,1,-7,-10
2173,13,0,-8,0,-1,1,25,65
2186,-29,-4,16,-12,-13,-13,-34,-128
