myo_inf_time
6.997
6.513
5.336
3.4
5.746
5.999
5.837
6.461
5.024
4.522
5.129
7.523
3.88
5.325
3.207
7.303
4.866
4.953
6.156
5.755
3.422
7.568
5.826
4.475
5.066
3.821
4.913
5.584
7.756
6.574
7.233
8.414
6.872
6.787
4.353
6.112
5.994
5.647
4.122
5.374
6.067
5.245
6.664
7.385
8.019
7.278
5.371
5.317
4.739
5.694
4.639
5.112
5.823
5.517
5.976
5.686
5.234
5.848
5.191
6.596
7.416
5.646
4.899
6.925
4.498
4.219
5.215
5.275
6.303
7.301
6.505
5.136
6.029
4.311
5.951
4.907
4.271
6.358
4.878
5.171
3.905
5.632
4.572
5.129
5.398
3.829
2.685
3.941
4.395
4.501
4.298
4.38
3.755
3.579
5.419
5.052
4.468
4.302
3.137
4.562
3.511
4.848
3.202
5.238
4.312
4.299
3.492
5.784
3.817
6.402
4.181
6.385
3.954
4.388
3.579
3.733
3.614
4.295
3.349
4.432
3.852
3.81
3.958
2.978
5.349
3.634
5.382
4.079
4.062
5.547
4.111
3.212
5.874
3.987
7.308
3.354
3.735
4.661
4.341
4.489
4.157
4.663
3.236
4.979
4.317
7.029
5.237
6.452
4.14
6.129
6.06
5.668
4.847
4.906
5.151
6.488
5.341
4.993
5.767
5.332
7.163
4.441
4.589
6.469
5.268
4.147
4.35
4.699
4.331
5.849
4.076
6.572
4.876
5.031
4.89
3.991
6.193
5.146
4.63
4.893
6.116
4.688
5.933
4.277
5.806
5.075
5.144
5.178
6.01
5.077
6.164
3.896
6.143
4.342
6.205
3.798
4.557
6.091
7.018
5.498
5.86
4.363
3.704
4.67
4.122
7.212
8.646
4.265
5.334
4.63
8.787
5.585
5.947
4.131
6.366
5.446
3.778
5.116
3.767
7.037
4.235
5.567
4.62
5.812
4.209
3.878
4.54
3.563
3.724
3.517
5.384
3.38
5.852
3.599
3.83
3.274
5.397
4.676
3.668
4.024
5.642
4.579
6.598
3.55
8.286
3.424
3.86
3.916
4.748
3.929
4.529
3.763
6.295
4.587
6.615
3.64
4.612
4.064
5.092
3.932
5.119
3.629
6.926
5.212
5.655
5.243
4.79
5.331
4.117
4.15
3.875
4.085
3.421
4.414
3.296
4.534
5.081
3.237
4.307
5.116
3.63
3.635
3.554
5.403
5.248
3.801
6.251
5.297
5.077
4.598
4.413
3.706
4.797
3.537
5.628
4.282
4.63
4.878
3.621
5.277
4.348
4.864
4.156
5.478
3.873
4.247
4.203
3.883
3.946
4.565
3.596
3.481
3.421
3.45
5.051
4.498
3.242
4.351
3.931
3.15
4.718
4.133
4.411
4.42
3.989
3.048
3.387
5.232
3.825
5.476
4.513
3.893
3.687
6.097
3.164
5.122
4.9
3.707
3.96
5.471
3.836
6.671
3.215
4.615
4.12
3.585
5.55
3.735
5.103
5.518
4.622
3.396
5.539
2.923
5.009
4.443
5.459
3.165
3.962
4.326
3.848
4.666
4.325
4.888
4.125
5.271
3.901
4.937
4.573
3.957
3.269
4.089
3.559
4.08
4.583
4.53
4.093
5.115
3.28
4.868
3.986
5.241
3.333
3.895
3.841
4.199
6.684
4.266
4.747
3.485
4.38
4.3
5.526
3.781
4.947
4.018
5.774
5.13
5.711
4.651
4.717
3.478
6.6
3.37
3.379
3.605
4.488
3.82
3.682
3.828
5.378
3.835
3.578
5.282
3.416
5.97
3.731
4.339
4.411
6.121
3.631
5.85
3.745
3.42
3.72
5.831
4.473
3.355
4.661
4.553
3.74
3.187
5.661
3.771
3.033
4.163
3.38
4.694
3.132
4.586
4.59
4.917
5.619
3.138
5.524
3.45
5.069
3.707
4.589
4.621
4.881
3.94
7.145
3.698
6.969
4.63
7.765
5.307
6.95
6.814
6.793
5.388
5.101
6.496
4.845
7.1
4.495
5.552
5.082
5.042
6.045
6.07
5.884
5.511
4.782
8.095
6.111
5.464
4.596
6.983
4.214
4.712
5.247
4.169
5.104
4.609
6.448
6.101
6.978
4.013
5.755
4.334
6.65
4.366
4.5
6.314
3.718
6.411
4.495
5.896
4.773
6.683
5.083
4.052
4.358
4.055
3.606
3.718
4.416
4.065
3.32
6.257
6.318
5.319
4.577
5.508
4.743
6.106
3.291
5.83
3.697
4.064
4.212
3.671
3.576
3.222
3.9
3.804
4.786
3.152
5.297
3.726
4.462
4.043
6.483
4.778
3.762
3.81
3.517
4.37
3.801
5.287
3.59
5.497
3.389
4.226
4.579
3.784
3.838
3.821
4.657
3.264
4.529
3.434
4.354
3.348
6.735
2.807
6.332
3.133
3.436
4.801
3.817
3.796
3.864
4.79
3.873
6.437
4.522
6.25
4.301
4.864
3.75
3.443
4.096
3.564
3.778
3.203
5.985
3.801
7.37
3.761
6.685
3.996
5.657
5.245
5.034
4.82
5.812
5.155
6.202
6.761
5.44
5.971
5.751
5.951
7.662
5.134
5.791
5.74
6.543
6.928
5.927
7.916
4.984
5.706
5.208
5.944
8.013
4.569
6.119
4.494
4.72
3.092
4.38
4.45
6.216
4.676
6.395
3.22
5.282
3.795
7.803
3.854
3.234
3.868
4.842
4.886
3.837
3.341
4.559
5.407
3.73
5.474
4.879
3.977
3.606
4.977
4.236
5.264
4.525
3.761
3.841
6.667
3.189
4.498
3.24
4.7
3.009
4.177
5.699
4.456
3.541
4.234
6.807
4.219
5.654
3.843
5.447
4.508
5.513
3.876
4.88
4.455
4.709
4.431
6.073
4.014
5.273
3.46
3.649
5.182
4.406
3.638
4.911
5.126
4.167
5.631
3.689
4.382
4.028
4.943
3.134
3.729
3.156
6.447
4.561
5.659
3.374
4.019
2.948
3.192
3.61
3.434
4.385
5.622
3.101
7.632
4.995
5.569
3.992
4.767
3.596
4.754
3.214
4.097
3.304
4.578
5.0
5.308
5.123
3.956
4.826
5.566
4.43
3.568
5.116
4.412
5.319
3.432
5.813
4.533
5.573
3.645
6.909
3.677
7.401
5.292
8.698
5.114
5.615
5.04
3.682
5.115
5.901
4.276
6.271
4.532
5.781
5.61
5.9
3.128
7.283
4.273
5.325
4.003
3.986
5.003
4.758
4.152
6.507
4.456
4.122
4.704
4.838
5.628
4.438
3.913
4.065
5.831
4.325
4.857
4.985
3.797
5.062
3.8
3.935
6.022
4.069
4.471
6.296
3.455
5.562
3.989
5.108
3.341
5.917
4.535
3.432
4.747
4.393
4.061
3.541
4.239
5.046
5.105
5.697
5.324
6.95
5.573
4.658
5.516
6.18
4.927
5.611
5.261
4.463
5.466
4.95
6.126
4.744
5.291
5.692
5.187
5.492
5.499
6.597
5.309
6.674
4.437
6.014
5.318
6.275
5.167
6.912
7.052
6.185
7.816
7.352
5.319
5.866
5.237
6.009
7.983
6.798
6.766
5.26
5.859
8.03
7.359
8.681
7.04
5.98
4.86
6.621
5.285
5.531
5.558
6.971
6.426
7.807
7.275
6.803
6.352
7.067
7.374
5.452
6.805
7.143
5.557
4.929
6.763
7.114
7.021
6.393
7.075
8.239
8.464
6.405
6.254
7.698
9.406
5.612
6.685
6.708
6.461
7.855
6.876
6.374
6.481
5.04
7.015
5.381
6.143
5.436
6.941
6.334
7.593
6.688
7.457
6.39
8.008
4.803
6.842
7.62
7.712
5.384
5.841
5.975
8.534
8.48
4.706
5.877
6.741
7.665
7.183
4.759
5.703
5.705
4.631
5.7
6.612
4.942
4.44
5.737
6.169
5.716
5.895
7.196
4.899
4.391
3.86
3.959
7.24
3.908
4.127
5.413
3.975
5.11
5.869
4.061
5.211
5.365
5.338
5.162
6.593
6.545
8.042
5.236
5.561
6.556
4.701
4.406
6.088
4.988
5.82
7.066
6.176
4.432
5.455
5.598
6.221
6.382
5.639
5.54
5.781
5.645
5.331
6.6
5.005
5.234
6.395
6.902
4.561
5.915
4.111
5.224
4.326
4.827
5.559
5.224
5.423
7.336
6.186
6.372
5.49
5.078
6.325
4.158
6.325
5.326
5.534
6.028
6.64
4.204
4.727
5.383
5.976
4.296
6.092
7.214
4.255
6.186
6.515
6.205
6.803
6.961
4.728
5.178
5.986
4.944
5.404
6.432
5.324
4.672
7.193
5.014
6.683
7.032
8.373
6.945
5.478
9.692
6.453
6.239
6.667
5.25
5.75
6.001
4.894
5.85
6.577
6.893
5.86
6.628
7.666
5.032
6.427
6.934
6.438
6.658
7.704
7.787
5.766
6.546
7.978
6.356
6.821
7.661
6.872
8.105
8.034
5.504
7.876
9.333
7.568
7.321
7.549
7.779
6.325
8.706
5.393
7.221
5.996
5.546
7.578
5.93
5.713
4.605
6.996
6.741
5.407
5.451
5.805
7.267
6.25
8.003
6.927
5.221
7.035
4.334
5.12
5.516
6.019
7.171
5.832
5.304
5.491
6.507
5.067
7.637
7.598
5.77
6.033
6.316
6.062
7.84
5.181
5.776
5.373
5.115
6.504
6.07
7.304
7.262
5.168
6.453
6.097
4.286
5.544
5.603
6.296
8.136
5.695
5.845
5.228
6.045
5.82
7.541
6.925
5.762
6.594
5.902
5.248
4.809
6.61
5.886
5.609
6.416
5.587
7.193
4.2
7.026
7.653
4.92
5.624
6.711
5.413
5.28
5.654
7.897
4.065
6.738
4.837
3.977
6.002
5.132
4.7
7.518
4.282
4.986
7.138
5.144
7.081
5.018
5.101
5.913
3.99
5.812
4.301
5.167
4.867
5.571
3.834
4.507
4.512
5.104
4.449
4.826
3.872
4.795
5.615
3.826
4.968
4.198
2.965
3.994
3.735
3.125
6.149
5.558
4.49
5.382
4.368
5.136
3.634
5.745
4.175
4.713
5.293
5.527
5.048
5.053
5.538
3.686
4.623
5.804
5.104
6.098
5.289
6.064
7.106
5.598
5.521
4.221
5.421
5.535
4.354
4.682
5.742
5.482
4.127
6.21
4.347
7.233
6.698
4.408
6.08
6.542
5.07
5.981
5.887
5.996
7.263
4.113
7.023
6.477
6.895
5.846
5.068
5.87
6.186
4.52
7.093
4.261
5.829
6.19
6.152
4.65
4.836
4.654
5.172
4.173
5.033
6.347
4.844
7.302
5.816
4.701
5.455
6.83
5.958
6.262
5.901
5.05
5.981
5.33
7.29
8.329
6.435
7.181
6.519
8.581
6.42
7.844
7.863
7.877
4.955
6.532
6.228
6.837
6.84
7.736
8.099
7.485
7.119
7.019
8.189
7.182
7.511
7.941
5.222
7.213
6.935
7.554
7.785
6.521
7.233
6.722
6.966
5.606
7.822
7.042
7.346
8.134
6.556
7.687
7.72
6.314
5.661
6.843
7.629
7.692
8.015
8.536
6.143
7.587
6.645
8.555
7.63
9.03
7.985
6.043
6.532
6.949
7.273
7.598
6.951
7.293
5.315
5.461
7.671
9.241
7.403
8.37
8.015
6.421
5.177
6.584
7.652
6.282
7.174
6.065
7.906
5.357
6.464
7.665
8.578
5.519
5.927
7.613
6.396
9.216
5.19
6.311
7.132
7.405
8.672
6.714
4.786
6.89
5.694
7.566
6.991
7.998
6.756
6.936
6.247
6.779
6.101
5.042
6.387
6.397
6.303
6.599
5.832
7.169
5.431
6.651
8.857
8.881
6.303
8.845
6.232
6.894
7.348
5.393
6.703
7.366
7.488
7.215
6.385
8.587
7.177
7.777
9.59
8.391
7.487
7.126
6.158
6.308
6.786
6.722
7.754
7.106
6.175
5.338
6.741
7.436
7.314
6.144
6.041
5.998
8.342
6.384
5.039
5.925
7.335
7.329
6.094
5.642
5.894
6.976
6.79
5.017
7.125
6.291
8.063
5.154
6.886
6.091
7.588
6.827
7.444
7.404
6.96
7.942
8.062
8.875
6.99
7.394
7.603
6.956
6.721
6.638
6.191
6.774
6.846
5.148
7.25
6.477
8.505
7.019
8.939
9.949
7.225
7.89
6.866
7.448
7.818
6.578
8.355
6.544
7.573
6.32
6.462
6.52
9.077
5.956
5.845
5.081
8.631
5.433
6.251
6.243
8.242
8.61
7.144
7.218
7.641
6.374
6.596
7.713
7.261
6.785
7.356
7.712
6.18
6.324
7.567
7.845
5.216
6.049
6.184
7.505
8.55
7.214
5.252
7.293
8.858
8.124
7.92
7.323
6.439
8.12
5.694
8.445
6.636
6.711
5.283
7.282
9.763
8.933
7.324
8.285
5.232
6.295
6.072
7.947
8.209
6.809
6.584
7.723
7.377
7.092
6.891
7.666
6.658
8.962
6.661
8.078
5.762
6.53
6.298
7.23
7.297
5.378
7.226
7.928
7.101
6.927
6.843
5.536
6.848
8.162
7.732
8.474
6.649
6.373
8.283
6.524
6.886
6.725
7.086
8.674
6.678
5.766
6.701
5.499
7.89
6.307
8.412
7.53
5.437
7.087
5.3
5.006
7.163
5.63
4.933
5.396
6.317
4.648
5.494
4.69
4.357
5.255
4.583
4.714
5.36
5.935
6.912
4.66
6.79
3.509
6.076
4.782
4.2
5.182
5.111
5.199
3.878
6.609
3.637
4.953
4.126
6.035
5.06
5.789
3.701
5.843
3.754
7.449
3.546
4.604
4.328
4.961
4.295
6.319
4.346
4.807
5.524
5.923
5.751
5.57
7.3
3.807
6.276
4.848
6.565
4.676
5.17
4.327
6.529
4.23
4.685
3.939
4.441
4.501
6.602
3.901
7.516
4.855
5.556
4.464
6.793
3.789
4.305
4.169
4.4
4.14
4.358
2.946
4.731
4.268
4.498
3.96
5.291
3.038
5.01
4.098
5.233
3.979
5.776
3.088
6.528
3.933
6.524
4.335
4.942
3.043
6.76
2.906
5.114
3.337
4.274
3.845
4.126
3.075
4.785
4.311
3.222
5.76
3.912
4.97
4.231
5.042
5.298
6.132
6.701
4.671
4.95
4.935
5.147
5.113
7.077
4.88
5.422
6.186
5.797
4.286
6.337
5.769
5.881
5.405
6.724
6.602
4.51
6.619
7.353
6.234
7.248
6.086
6.226
8.671
5.98
7.67
6.16
7.086
8.001
6.043
6.225
6.577
7.556
6.799
6.481
7.198
5.743
5.951
7.646
5.541
5.001
6.371
6.41
5.156
7.922
6.386
9.07
7.399
6.594
6.329
6.845
5.763
6.843
9.52
6.831
7.627
7.601
9.809
7.105
7.421
7.886
7.165
6.083
6.846
7.29
7.355
7.195
6.799
7.166
5.158
6.526
6.678
6.651
7.017
7.396
6.231
6.15
6.149
7.575
8.017
5.242
7.131
6.397
6.998
7.516
5.53
5.345
6.499
6.961
7.38
8.363
7.257
6.848
7.645
6.735
6.81
7.999
8.103
7.7
9.025
6.262
6.509
6.697
5.711
6.391
6.819
8.872
6.607
6.978
7.096
6.788
5.889
5.723
4.899
4.497
4.587
5.712
5.194
5.853
5.602
6.428
7.357
4.476
4.55
8.436
5.211
6.642
4.676
6.717
5.823
5.081
7.517
5.998
5.771
5.27
4.491
3.796
3.839
4.458
5.011
5.042
4.992
5.77
5.058
4.724
6.016
5.576
5.23
5.356
4.511
5.767
4.512
6.969
3.885
6.944
4.196
6.674
4.306
6.837
4.876
7.59
4.163
7.132
4.596
6.63
4.958
6.521
4.694
5.013
5.519
4.272
4.04
6.503
4.077
4.561
4.033
5.207
4.108
6.039
4.402
6.931
4.889
6.072
4.487
5.841
4.436
5.478
4.157
4.617
4.292
6.934
4.012
4.274
8.087
3.354
4.292
3.572
4.169
4.09
4.361
4.377
4.157
4.202
5.756
3.782
6.933
4.867
4.631
3.873
5.063
4.979
5.317
3.937
6.706
5.538
5.715
6.279
5.278
6.291
6.586
4.633
5.986
7.811
5.325
6.841
6.525
7.505
5.971
6.325
7.413
8.165
6.758
5.915
7.974
5.661
6.552
6.411
7.693
7.255
6.239
6.59
6.112
7.838
5.41
7.157
7.376
6.431
6.916
7.838
5.92
6.567
7.159
6.752
6.067
8.036
6.801
8.21
5.63
7.056
10.035
7.35
8.697
5.123
8.715
6.476
8.913
7.66
7.574
6.485
5.496
6.848
7.229
8.855
9.1
6.35
8.46
7.197
7.159
5.65
7.754
8.643
9.142
7.457
7.425
5.662
8.052
6.583
8.086
8.695
6.286
6.651
8.129
8.602
9.101
9.846
8.787
5.015
7.184
7.51
7.019
6.988
9.326
6.889
10.041
7.667
7.044
7.837
7.524
7.872
8.432
6.163
10.363
8.055
7.928
5.216
7.994
7.315
8.373
8.479
7.038
6.611
6.583
8.575
7.101
6.643
5.599
4.984
7.555
4.944
5.11
6.703
4.972
5.425
7.437
4.662
6.545
4.937
6.846
3.84
4.946
4.528
6.1
4.179
6.315
4.384
5.385
4.891
9.306
4.057
7.595
4.958
7.545
3.648
5.159
4.23
5.476
6.084
8.102
5.28
9.022
4.887
6.2
4.188
6.055
4.41
7.131
5.048
6.762
3.752
5.737
5.06
5.628
5.765
6.78
5.839
5.918
5.001
7.015
5.736
5.275
4.036
7.026
4.005
4.931
5.154
4.85
4.161
6.364
4.324
5.313
4.6
5.81
4.152
4.981
4.531
6.978
4.582
4.869
4.23
7.055
4.148
4.374
5.64
4.211
4.756
4.269
4.794
4.423
6.794
4.346
6.679
4.695
6.565
4.497
5.269
4.82
5.841
4.488
5.169
4.194
5.066
3.5
5.813
3.719
4.815
3.434
5.687
3.217
4.776
4.788
5.492
2.99
4.735
5.789
5.539
3.594
5.419
5.18
5.274
4.214
3.986
4.325
6.041
4.344
6.232
4.4
5.605
4.182
6.409
4.208
4.845
5.151
6.926
8.384
5.553
5.45
5.77
4.789
5.811
3.93
5.855
3.612
7.056
3.422
7.232
3.586
5.579
3.844
6.582
3.44
3.956
3.766
5.69
3.287
4.327
4.24
3.491
4.604
3.643
4.163
4.36
3.703
4.217
4.084
3.632
4.611
4.263
4.922
3.335
4.894
3.834
4.793
3.274
4.543
4.106
5.59
4.15
4.921
3.685
4.456
3.199
4.451
3.664
5.194
3.975
3.875
4.464
5.776
3.682
5.322
4.135
4.781
4.536
4.473
6.547
3.704
6.524
4.138
5.954
3.891
6.032
4.112
3.593
5.078
4.018
3.047
6.109
3.496
4.674
4.716
5.586
3.18
4.833
3.418
4.911
4.151
4.243
5.295
4.693
4.197
4.754
4.741
4.341
4.448
4.582
4.011
4.527
4.208
5.494
3.502
4.313
4.816
5.179
5.377
5.351
7.967
6.207
6.16
5.926
6.744
6.723
5.883
6.215
5.543
7.448
6.554
8.658
6.84
7.487
6.777
4.875
6.701
8.405
6.77
5.975
6.217
6.365
7.588
7.609
5.631
7.196
5.836
6.832
5.672
8.112
7.989
7.827
6.686
5.661
7.836
9.514
7.87
6.966
7.004
7.655
8.569
9.116
5.728
5.304
5.855
6.534
5.856
6.667
8.482
5.179
5.858
7.959
8.335
7.16
9.79
9.241
7.821
7.572
9.202
8.102
6.494
8.145
7.3
9.817
9.254
10.851
8.86
8.399
9.019
6.712
6.339
5.901
8.411
6.685
8.379
6.181
7.022
8.128
9.123
6.149
5.911
7.76
7.071
9.59
6.855
6.924
6.713
8.266
7.092
7.008
8.015
6.936
7.5
6.139
6.519
6.743
6.391
5.7
7.039
6.199
8.008
6.559
6.663
7.099
6.738
9.434
6.217
6.265
9.252
7.184
6.467
7.909
8.477
7.613
6.516
8.131
6.728
5.831
6.762
6.231
6.851
6.702
8.907
8.765
10.017
6.985
7.708
7.267
6.809
5.656
5.889
6.635
7.019
11.048
6.126
5.294
6.734
6.014
7.235
5.268
8.436
6.124
7.18
7.404
7.998
7.762
7.047
5.29
7.115
7.07
8.224
6.897
6.949
6.229
7.909
7.115
5.439
8.371
8.495
8.036
8.722
8.968
7.338
9.26
9.748
10.305
8.536
7.232
5.166
5.417
5.124
7.077
7.068
6.714
6.694
6.987
6.553
7.621
7.786
7.94
7.563
9.504
9.518
8.31
7.415
6.392
8.384
7.522
7.746
7.56
7.654
7.625
7.278
7.035
7.917
7.249
7.455
9.611
7.423
7.111
7.07
7.206
7.867
9.191
6.179
6.666
7.642
9.21
5.885
6.946
8.395
5.875
8.101
7.702
8.083
7.586
9.605
8.079
6.725
6.848
6.558
7.004
7.236
5.805
6.274
6.301
5.39
6.499
6.813
5.175
5.998
6.821
6.383
6.285
4.993
5.965
7.35
6.337
5.179
6.107
6.495
5.034
5.38
7.049
6.473
6.72
6.921
5.388
6.483
7.895
5.541
6.864
7.956
6.543
7.125
7.204
7.053
5.98
7.292
6.791
6.836
7.439
7.285
6.855
6.775
5.683
7.51
7.853
7.344
8.951
6.496
8.372
6.639
7.137
7.944
7.542
6.969
6.055
4.972
6.167
6.822
7.566
5.044
6.742
7.258
5.669
5.19
5.258
5.787
6.315
6.457
6.273
6.093
5.94
6.675
4.673
6.402
5.753
6.446
7.121
4.682
6.552
5.786
7.57
5.579
5.516
6.84
8.017
7.122
5.625
6.991
6.768
6.145
6.922
6.902
6.534
5.632
7.591
5.072
6.08
8.327
5.815
6.264
8.816
6.708
7.88
7.116
6.171
6.104
6.239
5.951
6.667
6.162
5.674
7.385
5.037
6.907
6.531
7.655
7.5
7.438
6.402
6.676
9.179
7.592
4.998
6.689
7.916
6.103
5.607
7.267
7.471
6.999
8.08
5.851
6.298
8.332
9.913
6.803
6.988
6.194
7.305
7.374
7.993
7.917
5.748
6.203
7.079
8.595
9.682
5.953
6.276
6.943
7.107
8.518
8.271
8.556
8.22
8.079
5.13
6.782
5.088
6.611
5.351
6.624
6.729
7.199
5.975
5.935
6.613
11.797
7.086
6.951
7.086
7.315
7.027
5.196
6.46
6.549
7.647
6.925
5.713
6.918
6.524
6.09
7.413
4.937
6.421
5.633
7.084
5.619
4.733
7.186
6.675
6.89
4.967
5.462
4.803
4.907
4.649
6.537
4.386
4.19
4.431
4.629
4.354
4.394
4.276
5.585
4.169
5.668
4.433
5.512
4.406
4.531
4.582
4.242
4.468
5.697
7.251
5.446
5.006
4.827
5.039
4.78
5.132
4.779
5.234
4.289
9.843
5.26
4.333
6.426
6.584
3.962
4.256
4.993
7.305
5.486
5.066
5.018
5.122
4.861
5.317
4.854
8.991
6.461
9.572
4.413
9.427
5.407
6.764
5.013
7.089
5.091
7.292
4.231
4.276
4.422
6.994
4.4
6.2
5.764
5.072
4.357
4.916
6.789
3.954
4.515
3.954
5.892
4.27
4.273
5.426
4.309
4.039
6.179
4.074
4.96
4.957
3.801
3.727
3.502
4.938
3.295
4.28
3.373
3.624
4.438
3.934
3.693
4.744
4.271
4.832
3.805
6.366
3.941
4.166
3.637
5.191
4.17
4.723
3.832
4.572
4.381
4.322
4.004
6.375
3.854
6.524
3.923
6.401
4.054
7.522
3.995
3.481
4.257
3.792
3.821
5.175
4.605
4.229
3.999
3.851
5.034
5.217
5.088
7.219
4.029
5.666
5.652
5.41
4.659
4.895
5.865
5.038
4.054
6.696
5.503
4.017
5.786
5.471
5.23
8.208
5.276
5.809
7.493
6.308
6.413
5.836
5.963
6.607
7.683
6.587
7.591
7.342
6.18
6.934
6.372
7.976
7.047
7.24
8.053
7.474
8.122
8.124
7.337
8.71
6.998
8.49
8.58
8.144
10.631
9.316
8.71
6.068
7.505
6.678
6.857
8.164
8.179
8.699
8.227
6.57
8.015
6.835
8.783
7.367
7.822
7.211
6.622
8.436
6.574
6.301
6.533
8.448
7.265
7.787
7.478
5.446
6.493
6.955
6.663
5.646
6.734
7.876
7.016
5.929
8.876
6.836
6.7
6.881
5.294
5.25
7.292
5.654
7.945
7.459
6.815
6.293
7.048
6.669
6.508
7.372
6.931
7.204
6.784
5.473
4.478
5.41
10.778
14.041
7.815
5.215
4.852
7.732
4.853
5.818
5.217
7.41
5.74
6.214
4.612
6.815
8.016
5.426
5.548
4.557
5.475
5.801
6.329
4.667
4.657
4.612
4.907
4.783
4.229
6.989
5.189
10.146
4.509
7.765
3.773
4.203
4.953
3.63
8.03
3.831
4.762
5.601
5.678
8.309
4.574
5.068
6.921
3.971
4.121
4.048
4.85
3.441
4.673
3.868
5.755
3.589
4.505
4.742
4.937
6.013
4.068
5.132
3.349
5.113
3.948
4.115
4.505
4.21
6.67
4.477
3.933
2.974
4.428
3.682
3.925
4.204
4.916
4.072
4.643
5.144
3.664
5.81
5.077
5.945
3.794
4.972
4.244
5.21
4.697
4.283
6.935
4.319
6.297
3.378
4.946
3.218
4.728
7.409
4.485
6.263
3.612
3.708
3.701
3.96
3.71
4.832
4.877
4.439
7.588
4.581
3.696
4.708
6.258
3.724
4.226
6.652
5.665
4.908
4.387
6.316
6.076
4.731
5.711
6.384
4.186
6.421
6.184
6.624
7.491
6.639
7.76
7.639
6.286
7.32
7.789
6.84
8.406
7.495
7.632
8.437
6.429
7.297
5.559
6.121
12.009
8.764
6.661
5.014
5.807
9.497
11.474
11.655
13.155
14.899
12.377
6.145
11.993
6.908
6.79
9.71
11.933
13.445
5.258
6.537
9.414
9.575
11.747
7.182
6.217
5.609
6.624
7.807
6.056
6.811
5.205
5.43
12.49
5.43
5.842
6.307
5.137
5.051
5.724
5.228
5.097
5.469
4.746
4.865
4.884
8.181
4.871
4.763
5.045
5.955
7.804
4.775
7.588
4.872
6.75
5.483
5.047
4.669
5.134
4.891
5.276
4.358
4.757
5.852
5.098
3.497
3.04
3.257
5.779
4.697
4.632
7.121
6.433
3.693
4.089
3.919
6.124
4.335
7.508
3.746
3.845
3.932
4.437
3.584
4.56
4.319
3.889
3.678
3.836
3.791
2.971
3.793
4.554
3.605
3.934
3.561
3.715
4.281
4.386
4.919
3.671
4.656
3.636
3.781
3.782
3.786
3.809
6.414
4.466
3.137
7.685
4.301
3.527
3.908
4.523
3.366
4.596
3.589
3.766
3.212
4.677
3.552
3.7
3.559
4.967
4.066
5.394
3.568
5.34
4.577
5.702
3.779
5.121
4.671
4.841
4.069
8.257
5.863
3.964
4.081
6.427
4.761
7.461
4.25
5.093
5.686
3.963
5.142
3.631
5.307
4.996
4.943
4.929
4.854
5.875
5.926
6.924
9.564
6.517
6.876
6.806
4.963
6.344
6.419
6.495
10.63
5.825
6.244
9.097
6.166
6.9
6.243
12.068
8.774
13.484
5.851
6.573
7.074
6.449
9.858
8.404
5.151
5.975
7.199
5.662
6.583
6.652
4.963
6.286
8.371
5.981
7.786
8.32
6.595
8.21
10.324
8.41
7.628
4.859
4.225
4.612
5.682
4.038
4.93
5.131
6.249
9.931
4.343
5.063
4.103
5.292
5.013
4.793
6.058
6.745
8.182
5.561
6.683
4.551
4.712
5.702
5.893
4.939
7.678
4.397
6.416
6.08
6.461
7.103
6.884
9.673
3.983
5.264
5.276
5.251
5.029
4.789
4.202
6.368
5.115
7.066
5.601
4.677
5.554
6.122
4.835
6.175
6.545
5.987
6.431
5.227
5.167
6.183
4.949
6.572
6.4
6.379
4.598
6.149
5.472
5.59
5.637
4.714
5.583
5.106
4.634
5.87
4.903
5.199
5.003
6.18
6.544
6.068
6.811
4.504
6.4
5.002
5.139
5.592
5.755
5.605
4.694
4.248
5.884
4.04
5.124
5.317
4.507
5.96
4.053
5.495
4.379
6.496
5.198
5.368
5.198
5.289
4.408
5.37
6.65
4.263
5.637
5.824
6.333
4.968
5.951
4.881
5.887
5.838
4.82
6.432
5.911
6.732
6.671
6.546
6.633
6.558
5.924
7.539
5.05
6.271
7.093
7.715
8.992
8.366
9.672
7.951
6.389
5.961
6.622
5.516
5.49
5.285
7.233
5.745
6.609
5.218
5.253
7.182
4.978
4.949
4.676
7.072
4.714
5.04
4.595
5.044
4.404
4.785
4.253
4.377
4.274
3.347
4.381
3.682
4.329
5.232
4.376
4.359
4.05
5.346
4.71
7.24
4.962
6.538
3.859
7.39
4.678
5.788
3.325
4.187
3.865
4.772
5.349
6.345
5.415
5.07
3.718
6.327
3.201
4.973
3.383
4.999
4.292
4.653
4.454
5.413
5.11
3.487
4.688
3.79
4.148
3.907
5.716
3.419
5.049
3.988
5.438
3.576
4.206
3.965
4.966
3.459
6.645
4.143
5.628
4.788
3.581
3.868
4.706
3.955
3.312
6.191
3.287
4.159
4.326
4.051
3.43
3.679
3.795
3.912
4.603
4.846
4.335
5.427
3.164
4.619
3.193
5.528
4.161
4.533
4.284
5.074
4.126
3.685
4.294
5.442
3.669
4.517
3.26
4.381
2.891
6.275
4.652
5.538
5.233
5.55
6.421
5.577
5.432
5.503
3.933
6.29
4.456
6.027
5.38
5.915
5.779
5.047
4.69
6.162
5.262
4.637
4.445
5.833
5.162
5.583
5.941
5.35
6.638
5.859
8.949
5.072
5.985
7.176
4.883
5.852
7.091
7.569
7.793
5.371
6.474
4.627
6.265
7.475
5.841
4.676
6.321
5.85
8.341
7.244
5.774
7.372
7.294
5.472
7.585
7.365
7.75
6.271
6.291
5.814
6.264
5.099
5.234
6.255
6.481
6.344
4.988
6.175
6.472
5.704
6.381
7.331
6.819
7.05
4.778
4.786
5.35
6.112
6.422
7.116
6.051
5.137
6.679
6.431
7.076
6.317
5.35
6.557
5.697
6.233
7.703
5.278
5.399
7.338
5.777
4.358
4.572
4.289
5.699
5.974
6.22
4.651
5.417
4.59
4.672
4.622
4.949
5.168
4.35
6.748
4.07
5.247
3.442
4.331
4.932
3.52
6.175
6.887
4.902
6.365
5.396
6.777
5.957
3.995
7.493
3.84
4.412
3.584
6.391
3.775
5.361
5.472
6.177
4.366
6.578
3.897
8.783
4.292
7.088
3.871
5.395
4.672
8.056
4.272
6.803
4.159
6.342
5.106
6.135
4.585
6.762
5.711
5.463
4.748
8.133
4.07
4.952
5.81
7.313
4.769
6.407
4.105
5.2
4.644
5.264
5.436
6.798
4.739
5.467
5.016
6.439
5.82
4.305
6.124
4.961
5.551
8.463
4.029
6.902
4.604
5.247
4.539
7.028
4.517
4.097
3.783
5.778
4.262
4.979
4.429
5.153
3.136
6.546
2.856
4.902
4.109
7.354
5.071
3.998
4.779
3.748
4.294
5.253
3.136
4.135
4.133
3.671
4.195
4.572
3.872
5.275
3.235
5.168
3.157
5.864
3.55
4.484
3.664
7.019
3.918
6.676
3.202
3.909
3.016
3.781
4.389
4.356
4.541
3.641
3.265
7.132
4.926
5.345
3.928
3.452
4.598
4.439
3.852
5.024
3.376
3.436
4.36
4.949
3.884
5.666
4.951
3.727
3.985
3.059
3.932
5.004
3.749
4.523
3.267
4.961
3.807
4.778
3.8
4.689
3.881
3.616
3.694
3.678
4.058
2.66
3.565
3.665
4.697
4.551
4.01
4.19
5.186
4.625
4.271
3.45
3.749
4.605
4.28
5.809
4.265
7.723
3.201
5.163
4.006
4.599
4.1
6.983
3.467
5.745
3.437
4.294
3.292
4.796
3.836
5.134
3.887
5.561
4.453
4.391
6.235
5.765
6.424
5.602
5.394
7.75
5.141
4.922
5.128
4.739
6.235
4.699
5.851
5.741
5.904
7.216
4.369
5.501
7.211
5.195
5.613
5.004
6.707
5.978
8.564
6.418
6.727
8.221
5.586
6.014
6.395
7.999
5.402
5.975
7.758
6.84
8.481
6.891
6.648
7.24
5.916
5.665
6.778
7.066
6.055
6.131
6.613
6.845
7.149
9.063
7.621
7.779
5.397
6.558
6.811
9.267
8.913
7.645
6.295
7.736
8.008
7.57
6.303
5.943
6.699
6.541
8.155
7.903
5.37
8.792
8.047
7.769
6.527
8.903
8.886
9.264
5.976
7.151
9.386
8.339
9.538
8.493
10.022
5.642
7.495
7.489
8.899
5.106
7.194
8.844
5.853
6.384
4.829
6.383
6.71
4.857
6.596
5.097
5.337
5.339
5.118
3.652
6.071
4.286
7.808
3.704
5.548
4.796
10.095
5.482
7.37
4.144
7.487
4.037
5.485
3.788
5.75
3.629
5.118
4.705
5.31
5.176
4.943
4.406
5.64
3.989
4.637
3.912
4.989
3.678
4.189
3.457
3.172
4.764
3.338
3.756
4.321
3.133
3.578
4.781
3.685
3.628
6.951
3.611
7.148
4.489
5.955
5.725
5.763
5.992
4.97
6.349
6.016
4.893
4.606
6.128
4.565
5.563
7.811
5.383
5.857
6.726
5.555
5.666
5.153
4.523
7.932
8.286
5.314
5.771
5.668
5.648
6.466
5.837
5.924
6.277
7.627
5.831
7.117
4.486
5.657
6.139
6.688
7.594
6.195
8.18
6.565
7.487
4.573
8.04
8.855
7.652
5.561
7.522
8.19
6.607
5.46
7.822
5.631
4.624
7.696
5.632
6.082
5.99
6.573
6.95
6.976
6.05
5.798
6.899
7.51
8.014
7.588
8.964
6.248
7.471
6.381
6.425
7.383
6.297
7.18
7.909
5.98
8.753
6.895
8.824
8.182
7.93
7.538
7.51
8.875
6.311
7.137
6.519
8.364
8.64
9.044
7.833
6.715
6.325
5.481
7.557
6.96
7.96
8.313
7.59
8.417
6.966
6.363
7.933
6.923
6.074
8.04
8.408
7.102
7.295
6.641
7.514
5.901
7.64
5.767
8.124
7.62
7.646
8.45
8.176
7.556
7.392
8.147
7.177
6.213
7.671
5.049
5.912
6.991
8.259
7.367
8.783
8.669
8.095
7.256
6.884
7.097
5.739
7.583
8.923
7.65
8.638
6.514
5.701
6.739
7.591
7.585
5.907
4.701
6.332
7.575
6.767
5.063
6.91
7.321
6.766
5.315
4.893
6.975
7.975
6.001
5.136
6.3
6.926
6.538
5.823
7.051
6.638
7.797
5.286
6.635
6.233
7.832
7.895
7.012
8.6
7.327
5.767
7.735
7.973
9.457
8.663
5.035
6.176
7.008
6.943
5.707
7.377
6.531
8.337
5.45
5.924
5.023
5.103
9.258
4.68
5.526
5.22
7.35
7.459
7.568
4.639
7.312
4.909
5.222
5.739
4.962
6.07
7.606
4.901
4.865
7.725
7.626
9.915
7.533
9.495
9.071
6.459
5.423
7.103
6.849
6.811
4.859
7.34
6.927
7.621
7.777
6.539
7.29
6.395
6.899
5.496
8.158
6.078
5.617
5.795
7.807
8.64
5.166
6.145
5.631
8.047
7.008
5.774
6.698
6.399
6.894
6.943
8.03
7.663
10.336
8.408
10.433
9.828
7.806
8.001
9.802
6.277
7.194
7.655
7.348
7.934
7.473
9.459
7.005
6.342
7.879
7.993
9.682
8.421
5.57
6.168
6.817
8.435
8.567
8.68
6.276
6.773
8.506
9.009
8.322
9.073
6.633
5.862
7.786
8.437
8.046
10.138
10.458
6.938
8.285
8.997
7.094
7.092
6.685
5.842
7.611
8.803
8.917
6.827
5.96
5.88
7.608
9.585
8.445
5.571
5.589
7.755
9.431
9.022
7.197
8.75
9.596
7.171
7.585
7.073
8.432
9.105
6.322
7.785
7.624
9.404
6.865
6.112
9.559
7.429
8.263
10.268
7.298
6.132
8.49
8.18
8.592
6.009
6.353
6.378
7.307
7.265
5.847
9.778
8.011
7.879
6.408
6.655
8.261
7.029
7.19
7.972
6.912
6.717
8.249
7.423
10.049
9.069
7.274
7.137
8.16
7.287
7.478
9.745
8.509
10.556
8.644
8.612
8.977
8.474
6.945
6.471
6.805
5.69
8.807
7.441
7.147
6.737
7.995
7.472
6.503
8.522
9.251
6.24
7.929
9.327
6.811
8.481
5.562
6.712
7.818
8.743
6.442
5.751
8.96
6.252
8.697
5.941
6.854
7.77
7.168
7.719
6.927
8.04
10.026
8.226
7.565
4.725
5.24
6.023
6.162
5.905
6.146
7.168
8.02
8.767
5.914
6.696
7.512
8.048
9.137
7.71
8.945
6.357
6.953
7.217
8.004
7.16
8.485
7.537
6.83
8.523
8.917
8.599
8.612
8.059
7.652
5.843
7.026
6.795
7.431
7.517
6.682
8.985
8.716
7.241
7.507
6.388
7.494
7.447
7.13
5.13
5.514
8.376
7.994
7.277
8.56
6.136
9.112
6.28
8.796
5.083
6.391
6.598
7.34
5.967
8.111
7.779
8.353
7.077
7.87
7.628
5.707
6.606
6.603
7.28
5.992
6.229
7.513
7.209
7.909
8.371
8.27
8.285
6.551
5.554
7.098
6.351
6.291
7.313
5.825
7.532
6.594
8.692
7.667
8.136
6.691
5.28
4.942
5.701
7.189
8.635
8.135
8.163
8.14
7.991
6.631
7.929
8.067
5.14
8.722
9.552
8.997
7.945
8.762
7.048
7.661
7.11
8.813
8.266
7.956
6.771
7.22
7.001
4.968
6.287
6.182
6.706
6.365
7.634
5.86
6.969
5.038
6.72
6.439
7.248
7.474
6.867
6.126
6.334
6.493
6.96
7.287
8.827
5.39
5.977
6.405
6.162
5.535
6.225
5.07
5.878
5.806
6.795
5.791
7.007
5.849
5.211
6.354
5.12
6.379
6.191
6.232
6.138
5.338
6.846
7.282
6.424
6.632
6.192
5.14
7.122
6.863
6.791
7.927
5.156
6.496
6.785
5.016
6.666
6.512
5.539
7.385
5.649
6.11
5.081
5.502
6.94
6.623
7.253
6.954
7.881
5.728
4.751
4.51
4.849
5.528
4.702
4.862
5.846
5.898
6.624
7.147
4.784
4.959
8.406
5.22
4.938
5.489
6.303
6.395
6.15
5.347
5.078
5.761
5.566
5.981
4.541
4.576
4.904
3.964
5.711
4.706
6.503
5.081
3.668
5.489
4.453
5.307
6.51
8.098
4.601
7.963
5.335
6.107
4.491
4.622
4.549
6.679
3.987
4.882
4.376
4.587
4.491
5.265
5.572
4.995
7.684
4.155
5.52
6.59
7.07
7.464
5.768
6.68
3.843
7.246
4.777
4.791
4.425
5.1
4.744
6.743
8.222
4.543
6.871
5.559
6.867
6.086
4.197
6.888
5.193
4.708
5.837
4.275
5.938
5.047
6.522
6.13
6.337
6.25
6.953
5.938
6.648
5.781
6.666
7.848
6.284
6.464
5.387
7.283
8.511
9.204
9.285
8.73
7.092
8.805
8.806
7.797
8.369
6.517
7.072
7.891
8.786
5.941
5.312
7.269
7.326
7.437
8.766
7.919
7.344
7.563
5.847
6.513
7.048
8.394
7.226
6.932
6.812
7.233
7.909
8.702
6.918
9.152
9.834
5.965
6.631
7.584
7.729
7.33
8.652
6.232
7.106
6.041
7.203
6.254
8.111
7.762
8.807
6.68
7.196
6.003
7.706
7.931
6.818
5.544
7.015
6.747
6.283
6.827
5.558
5.278
6.774
5.52
5.104
5.433
5.435
5.37
5.344
5.065
4.819
4.401
7.359
4.972
5.116
5.412
4.528
5.393
5.171
4.798
4.724
8.872
5.376
6.352
4.886
5.889
5.99
5.021
8.595
3.565
6.326
4.496
4.855
5.521
4.752
4.236
3.786
5.061
7.058
4.964
6.146
4.502
7.251
4.728
6.77
3.523
5.487
4.62
5.053
4.486
4.866
4.798
4.79
4.745
4.085
5.983
5.477
4.463
6.943
5.611
4.588
4.841
4.836
4.757
4.731
4.062
5.837
4.324
5.634
3.57
3.986
4.593
5.636
3.775
5.596
3.895
4.113
3.746
5.697
4.046
5.257
5.396
4.764
3.915
4.546
4.393
6.639
4.187
6.184
3.737
6.142
3.831
4.948
4.291
4.655
3.738
7.161
3.774
4.335
3.997
3.977
5.966
3.774
4.195
3.687
5.722
3.827
5.68
4.521
3.982
4.237
4.888
4.177
4.229
3.465
5.346
4.969
3.808
3.702
3.89
4.547
3.906
3.353
4.917
3.208
4.27
5.322
5.454
4.081
5.437
3.984
5.171
5.506
4.059
4.203
5.601
5.095
4.548
3.381
4.78
3.308
5.222
4.33
4.267
4.445
4.219
3.783
4.623
3.859
5.096
3.42
4.67
4.904
4.328
3.777
5.367
4.459
3.964
4.196
4.948
4.041
4.476
3.985
5.683
3.502
3.819
4.164
3.79
3.882
3.912
3.371
5.359
3.726
6.012
4.077
3.758
3.367
3.776
3.583
4.191
5.348
3.738
3.77
5.878
4.538
4.812
5.065
6.105
4.14
5.038
3.326
3.985
3.717
4.831
3.553
4.743
4.716
7.205
5.326
4.869
3.985
4.104
3.888
5.528
3.528
3.98
4.926
5.51
4.068
4.298
3.337
5.447
3.531
4.586
4.234
4.902
4.648
4.757
4.554
4.734
4.345
3.702
4.661
4.001
5.972
3.724
6.755
4.489
5.087
4.418
4.726
4.724
5.145
3.478
4.079
4.58
4.008
3.705
4.651
5.675
3.964
8.056
3.988
5.052
5.35
4.341
5.749
3.743
6.577
4.118
4.808
6.204
4.233
4.87
4.041
4.118
3.499
5.471
3.802
4.894
4.001
3.976
3.253
4.456
4.693
6.529
3.293
6.147
4.248
4.646
4.719
3.836
5.56
4.527
6.982
4.152
6.163
6.133
6.257
4.563
4.274
7.508
4.922
5.679
3.811
4.445
4.777
4.081
4.956
3.038
3.748
3.683
6.387
4.594
5.488
5.105
4.548
3.496
4.381
3.79
4.157
4.506
4.264
3.972
3.867
4.037
7.427
4.534
5.13
7.287
5.297
8.159
5.805
6.936
4.974
8.965
5.068
5.546
4.51
9.615
5.974
5.805
4.734
6.875
6.452
6.74
8.256
5.617
4.898
5.959
4.412
7.937
5.974
5.531
4.499
5.054
5.133
7.757
5.117
8.094
4.774
4.544
3.263
6.931
4.384
6.567
5.403
8.137
4.691
6.424
3.383
4.416
4.466
7.231
4.503
5.703
4.558
3.948
6.154
4.834
3.98
4.185
5.027
3.633
5.347
3.299
4.168
3.512
6.183
3.271
4.032
3.573
4.779
4.369
6.904
3.642
4.874
5.002
4.087
5.821
4.657
5.799
3.88
4.956
5.737
5.746
4.971
5.932
3.851
5.853
5.253
5.6
5.21
6.076
8.117
8.09
6.389
6.581
7.246
4.919
7.055
5.915
6.118
8.414
6.265
7.473
7.002
6.676
9.681
7.991
9.777
5.54
7.469
7.252
8.366
7.672
8.912
7.124
6.795
7.337
8.04
8.902
7.478
7.695
6.766
7.807
5.828
7.612
7.613
9.825
6.651
7.65
6.906
7.594
7.887
6.838
6.914
8.006
9.436
6.871
6.574
7.455
7.922
8.14
7.56
6.262
10.734
8.296
9.213
7.872
5.356
6.852
7.108
7.299
9.396
9.059
6.057
7.977
6.056
6.624
8.707
9.664
8.548
7.33
7.353
6.475
8.239
8.203
9.178
9.405
9.513
6.952
5.454
7.385
7.365
7.225
8.932
7.355
6.21
8.83
9.242
6.15
7.843
5.647
6.371
8.502
7.312
9.045
7.928
6.902
6.592
7.09
7.881
7.697
8.573
7.927
8.38
7.184
8.661
7.02
7.64
9.765
7.036
6.324
7.873
7.862
7.7
7.982
6.716
9.377
8.529
9.152
8.16
8.426
8.488
7.176
5.383
8.002
8.614
7.684
6.601
9.266
7.772
7.415
7.312
7.763
8.189
7.798
8.751
6.136
7.844
7.47
7.51
8.934
9.524
9.599
8.647
8.841
9.856
9.689
8.454
8.935
7.219
8.032
6.589
7.462
8.553
8.413
7.742
8.368
9.283
7.2
8.358
7.177
7.309
8.683
9.57
8.397
10.342
7.288
8.918
7.76
8.101
7.034
9.111
8.537
6.62
8.156
7.113
8.601
6.685
7.449
6.383
5.414
7.136
6.764
6.757
7.731
8.003
6.945
6.842
6.192
8.496
7.45
7.803
8.64
8.093
8.52
7.048
7.648
9.142
6.439
7.983
8.521
8.678
7.596
7.866
6.598
9.38
7.742
7.246
8.229
7.449
9.927
7.018
10.718
10.517
10.56
11.027
9.484
6.29
8.437
7.863
9.24
7.483
8.136
7.01
6.422
8.955
7.707
9.892
10.351
8.254
6.512
8.581
8.32
6.647
7.677
9.378
10.279
8.938
11.793
8.491
8.362
7.625
7.221
7.207
5.515
6.56
5.064
7.528
6.578
8.361
8.408
7.437
6.032
6.485
6.556
7.674
7.304
6.643
8.921
7.508
8.956
8.444
9.994
7.279
7.253
9.032
8.889
9.763
6.098
6.911
7.141
6.299
8.527
6.956
8.722
9.207
11.089
8.466
7.417
8.632
6.792
7.448
8.622
6.848
5.698
8.96
6.903
6.411
7.308
7.683
4.931
7.479
7.884
8.327
7.678
6.014
6.805
7.747
8.934
8.184
9.358
5.839
5.546
6.145
5.255
5.112
6.258
7.693
6.112
7.951
7.107
8.249
6.416
5.609
6.732
9.491
9.245
7.009
7.44
9.277
8.744
9.662
9.892
10.371
10.426
6.757
6.488
8.812
9.504
8.565
7.306
7.747
6.673
8.128
6.012
5.14
5.106
6.033
7.378
8.484
6.087
7.576
9.607
6.922
8.708
8.019
10.383
8.047
6.201
7.713
7.066
5.491
7.306
6.347
8.074
7.32
9.892
8.016
7.149
8.65
8.892
6.715
6.605
9.515
7.165
9.446
8.604
6.63
8.866
9.888
7.347
5.944
8.272
8.056
8.452
5.94
9.91
8.42
7.48
8.693
9.361
7.247
8.089
8.917
9.721
8.431
8.898
5.481
7.923
7.962
7.01
7.788
7.023
10.034
6.367
7.435
6.082
9.904
7.883
5.357
7.457
7.593
8.08
7.46
8.705
9.52
7.91
5.78
6.236
6.335
6.109
8.069
5.952
5.183
6.74
6.478
6.242
5.147
6.955
4.377
5.479
4.457
5.075
4.51
5.164
4.464
4.998
4.887
6.568
5.117
4.735
6.903
5.412
8.106
5.467
5.151
7.741
4.996
6.394
8.531
5.661
4.992
7.265
4.926
7.128
4.961
5.059
4.734
6.198
5.358
6.31
4.202
4.675
3.86
3.861
4.907
6.325
5.274
7.119
4.352
6.473
6.427
5.798
5.024
5.481
5.913
4.659
5.284
6.247
6.462
5.417
4.391
4.367
7.969
5.368
5.495
4.236
4.992
4.583
5.864
7.472
4.216
4.643
3.864
4.334
3.999
3.796
4.12
3.653
4.485
4.825
4.233
3.708
7.257
4.716
7.048
4.652
5.288
4.301
6.279
4.782
6.319
7.565
5.32
7.41
6.747
6.267
5.586
5.911
7.053
4.744
8.066
5.431
5.882
6.653
6.453
7.81
7.167
7.411
6.558
6.049
9.582
6.458
6.511
5.727
6.24
5.156
8.83
8.226
7.507
6.9
8.208
6.846
6.644
5.741
6.38
6.229
8.09
6.791
7.045
8.14
7.975
8.187
7.368
7.329
5.956
5.724
6.641
8.214
9.957
8.868
8.276
5.922
6.093
7.199
6.741
7.231
9.667
7.495
8.603
6.758
7.078
7.363
8.124
9.075
9.919
10.006
8.252
7.578
8.934
7.964
7.142
7.555
8.578
6.604
7.456
8.687
8.708
8.044
9.374
5.669
6.486
6.887
5.434
7.741
7.596
9.411
7.094
7.205
6.6
5.669
6.706
7.557
7.585
7.437
5.211
6.42
6.546
5.494
6.095
4.698
6.859
6.116
5.631
6.901
4.751
5.605
7.142
4.502
6.606
7.626
4.733
5.294
4.656
4.787
7.155
5.321
8.455
6.16
5.065
9.296
5.663
5.298
6.613
5.252
4.911
5.404
4.975
5.694
4.983
6.368
4.713
5.175
6.151
4.749
6.717
5.342
8.143
5.149
5.488
5.041
7.473
5.68
5.278
3.874
5.232
4.869
5.328
6.517
5.004
6.457
4.985
5.776
4.053
4.845
5.769
5.437
5.538
4.672
4.905
5.609
7.83
6.277
7.27
4.47
5.652
4.497
7.402
6.019
4.365
7.01
7.213
6.016
5.812
6.875
5.548
4.36
5.811
4.224
4.489
5.65
3.997
5.085
4.647
5.598
4.85
5.306
3.944
4.058
4.751
3.958
6.429
4.01
5.285
3.755
4.411
4.241
3.798
3.131
6.512
5.513
4.901
4.15
5.729
5.858
5.488
7.136
6.298
6.447
6.358
5.7
5.562
5.736
4.9
6.019
5.888
4.866
7.139
8.596
8.555
8.088
7.573
9.556
6.443
8.383
6.16
7.459
8.026
8.386
8.893
8.888
7.391
9.154
5.883
7.358
6.362
7.104
8.586
6.931
7.963
9.921
7.301
6.453
6.911
5.987
6.122
7.662
6.936
7.202
7.611
8.215
9.235
11.395
11.273
11.376
10.902
12.85
12.298
6.944
12.361
13.384
6.908
11.661
8.767
12.5
13.067
12.518
12.81
12.782
12.797
13.454
11.169
10.915
12.095
10.823
11.335
5.244
7.786
9.563
13.82
12.323
11.556
8.724
12.781
12.718
6.845
8.66
8.335
8.817
6.917
8.478
7.511
7.702
8.098
7.03
10.051
9.051
9.37
9.684
10.365
10.306
10.135
10.204
9.976
8.362
10.678
8.679
8.587
8.355
7.781
6.808
6.359
5.926
6.187
5.776
7.415
8.482
5.987
5.805
7.23
6.947
5.545
5.444
7.038
5.854
5.319
5.851
4.712
6.285
4.712
6.204
5.712
5.8
4.71
4.121
5.031
5.112
6.444
4.148
4.511
5.113
6.21
8.654
5.402
5.851
7.97
6.482
7.107
9.156
5.148
6.127
7.611
5.054
6.562
8.169
5.646
6.03
4.92
6.389
6.925
5.535
7.97
8.247
4.865
5.584
4.903
5.57
6.47
4.183
5.763
6.475
5.255
7.539
4.585
6.3
4.566
6.232
4.506
3.882
6.886
3.882
5.512
6.264
4.664
6.007
6.13
5.041
4.997
6.978
4.464
6.071
3.875
5.129
6.404
5.47
3.546
3.365
6.357
5.16
5.971
5.388
5.489
5.591
5.014
5.77
4.495
5.882
6.609
6.578
6.393
5.93
5.906
6.896
8.113
9.748
8.178
7.487
7.891
6.711
8.177
10.113
7.269
10.281
9.118
9.216
9.489
9.647
8.982
10.274
8.767
9.579
9.965
9.522
10.082
8.056
6.958
9.079
8.014
8.628
8.18
5.793
8.196
6.101
4.935
4.863
5.035
5.293
4.363
5.661
7.728
5.559
7.805
7.581
8.235
8.773
9.326
9.686
7.177
9.333
8.843
8.617
8.597
6.631
6.318
8.013
6.909
6.075
6.795
8.51
6.197
7.26
6.326
6.563
8.659
6.728
8.257
7.171
5.856
6.56
5.759
6.541
6.615
6.15
6.872
6.583
5.348
7.679
6.559
4.993
6.041
4.812
6.106
5.511
6.136
5.338
5.025
6.384
5.152
5.514
5.572
5.19
6.769
6.692
6.959
5.281
6.43
6.022
4.189
6.247
5.691
6.05
7.335
7.744
4.354
5.358
4.809
4.962
6.677
4.678
4.094
4.337
5.608
4.24
4.034
7.273
3.858
6.152
4.283
4.253
4.156
5.763
4.356
3.94
3.497
4.197
4.584
5.393
6.353
4.547
5.703
5.198
8.128
4.76
7.224
5.018
6.096
4.728
5.52
6.007
7.676
4.903
5.933
4.363
4.769
4.472
4.806
5.009
4.091
6.123
4.707
6.85
4.089
7.273
5.039
5.098
5.3
5.242
4.527
5.166
5.378
4.544
5.514
4.565
6.255
5.04
4.785
5.163
4.504
4.787
7.307
4.162
3.926
7.684
4.672
4.44
4.309
5.94
6.169
6.467
5.441
5.265
6.748
4.686
5.844
4.487
6.286
4.253
6.876
4.072
7.38
5.233
5.51
4.195
7.267
4.851
7.699
4.711
4.511
4.582
5.841
4.763
5.293
4.986
4.534
5.76
4.408
5.292
4.793
6.473
4.23
5.117
5.238
4.822
5.011
4.302
5.046
4.316
5.409
4.57
7.053
5.356
6.656
4.564
4.847
4.825
5.349
4.885
4.913
7.012
4.352
5.782
3.85
6.474
4.779
5.282
4.057
5.339
6.891
6.698
4.807
5.607
5.064
8.173
4.713
7.521
4.075
6.147
4.8
4.744
4.989
4.756
4.702
8.844
4.767
5.096
4.671
7.466
3.971
6.305
3.905
4.498
5.344
4.714
3.925
3.287
6.123
4.69
3.797
4.486
4.621
6.315
3.969
5.911
4.573
5.208
6.124
4.28
3.243
4.833
4.103
4.958
3.492
4.078
4.363
4.268
3.708
4.758
3.369
6.434
4.577
4.029
3.457
3.461
4.791
3.4
5.988
3.774
4.33
3.535
4.541
4.502
6.657
3.291
5.916
3.351
5.005
5.45
5.662
5.193
5.532
5.307
4.385
5.295
5.749
5.71
4.859
7.554
6.303
5.875
5.382
5.962
5.68
5.874
6.534
6.593
6.846
6.472
4.957
7.661
7.117
5.285
6.584
6.779
6.575
5.622
7.831
5.829
6.301
5.901
6.547
5.968
5.273
6.37
7.67
6.627
6.303
8.294
6.292
6.035
5.481
6.079
5.055
4.433
6.22
5.361
4.894
7.613
4.5
6.831
8.299
4.353
5.013
7.008
5.255
4.958
4.266
4.889
6.257
5.04
5.953
3.916
3.926
3.396
3.254
4.316
6.225
4.05
7.961
4.255
5.292
3.732
7.761
4.199
6.541
4.429
4.313
4.697
8.1
5.463
6.346
4.499
8.49
3.909
6.276
4.713
5.826
5.497
4.922
4.748
6.414
4.18
4.441
4.239
4.215
5.749
4.386
4.329
4.271
7.712
4.765
6.301
3.831
6.454
4.055
5.358
4.594
6.667
4.327
4.565
4.919
6.062
3.633
4.328
5.506
3.965
4.753
4.213
4.962
3.638
4.836
4.0
5.333
4.914
6.168
6.811
6.497
8.136
5.72
7.087
3.735
4.179
3.72
6.291
5.248
6.301
4.601
7.325
3.853
5.806
4.708
5.075
3.768
3.936
3.728
3.987
4.217
3.553
5.692
3.837
5.43
6.023
6.864
4.341
4.372
4.384
5.371
3.727
8.006
4.44
3.842
4.221
5.769
4.069
6.126
4.105
6.879
4.489
6.12
5.039
5.1
4.185
4.352
5.328
4.554
4.735
4.774
5.375
4.704
4.289
5.038
4.292
3.993
7.207
4.481
6.003
5.787
6.561
3.771
4.85
3.74
5.618
4.934
4.952
3.895
5.213
4.149
5.567
3.859
5.595
3.431
4.317
3.336
5.35
4.087
7.153
3.907
6.031
5.391
5.508
5.27
7.276
6.679
4.892
5.521
4.942
5.731
6.305
5.921
5.177
5.543
7.119
5.928
6.106
7.831
4.051
6.138
4.895
6.279
6.011
5.824
7.731
6.729
8.989
5.811
6.017
6.066
6.51
5.885
6.332
7.94
6.461
5.975
5.95
5.892
5.899
6.023
6.486
6.39
7.252
7.494
8.465
7.372
8.251
8.487
9.21
8.826
6.785
7.968
7.412
7.237
8.062
6.515
5.367
7.013
7.964
6.05
7.198
9.057
9.891
10.299
9.551
6.939
8.043
8.686
9.395
9.565
7.652
8.457
6.818
8.039
8.6
9.365
7.276
5.931
8.779
9.459
10.512
7.015
8.076
7.966
6.208
6.578
6.07
8.194
7.0
7.382
8.527
9.135
8.006
7.259
6.218
7.158
5.659
5.46
7.064
5.348
4.902
6.273
6.472
5.954
4.647
5.704
9.1
4.703
8.698
4.956
5.871
4.017
4.988
5.334
6.153
3.985
4.99
4.765
6.053
6.527
4.016
4.639
5.195
6.786
5.227
5.001
4.232
4.622
4.358
3.836
4.019
6.036
3.648
4.558
3.31
5.736
3.991
3.967
3.618
3.595
3.909
5.494
4.534
3.57
3.779
3.306
4.091
4.566
6.291
4.168
4.364
3.796
5.627
3.855
4.727
4.223
4.084
4.779
4.201
4.106
4.812
3.942
3.61
5.15
4.234
4.434
4.1
5.976
4.554
5.093
4.161
5.629
3.63
5.401
3.747
4.094
3.911
6.187
3.222
4.755
3.57
6.332
4.39
5.947
3.774
3.137
4.48
3.729
4.737
4.084
5.103
3.933
5.92
5.536
5.245
3.493
5.365
3.212
5.196
4.031
5.157
5.036
5.594
4.258
4.993
3.716
6.627
3.85
4.787
6.657
4.777
5.677
5.122
3.96
4.351
3.69
7.646
5.08
6.066
5.485
4.75
4.292
6.56
3.929
4.596
3.702
5.065
6.417
3.778
6.277
4.703
4.278
4.076
4.958
4.266
5.518
4.511
4.687
6.395
3.627
6.369
6.823
5.424
5.321
5.179
7.43
5.452
7.392
6.363
5.865
5.753
6.98
6.539
5.858
7.129
4.529
4.616
5.622
7.179
6.092
5.844
6.74
6.57
6.347
5.315
5.962
7.714
5.972
6.324
7.108
7.245
5.767
6.464
6.56
7.235
6.933
7.891
8.383
6.406
6.265
5.742
6.805
4.518
6.259
6.874
6.178
5.326
5.48
6.603
4.814
5.317
5.174
5.738
6.586
4.961
4.894
4.489
5.198
7.672
4.67
6.359
3.882
5.896
3.462
4.303
5.828
4.44
5.572
3.749
7.223
5.065
3.751
4.656
4.236
4.589
6.295
4.572
6.183
5.194
5.681
9.637
6.057
6.677
6.045
6.001
4.188
6.105
5.175
5.664
6.553
5.497
4.546
4.567
5.597
4.667
6.829
5.677
8.651
5.35
9.515
4.581
5.329
4.663
5.681
4.747
6.164
4.233
5.594
4.225
6.771
6.0
5.497
4.477
8.891
5.327
8.209
4.231
9.255
4.496
4.753
4.721
6.05
5.027
5.579
4.823
4.155
5.198
9.357
6.039
5.49
4.078
5.354
4.871
5.38
4.355
5.011
3.865
4.477
4.629
4.587
5.419
4.733
6.531
4.069
6.125
5.196
6.2
5.626
5.648
5.824
4.251
4.329
5.154
5.136
6.2
4.319
5.026
4.907
5.654
3.602
4.918
5.037
4.787
3.619
4.328
5.82
4.239
4.817
3.745
5.869
3.363
6.236
3.837
3.976
4.139
5.183
3.75
3.811
4.329
3.524
3.149
4.498
5.213
5.02
3.923
5.789
4.542
6.914
4.087
4.884
7.266
4.935
5.45
6.014
4.864
4.218
5.292
6.258
5.471
6.156
5.766
5.208
5.406
6.752
4.837
6.582
5.681
4.787
5.711
5.435
5.47
6.155
5.884
4.634
6.03
8.031
5.281
6.491
4.688
7.506
7.42
6.805
4.317
4.216
5.35
5.502
5.419
5.987
6.975
6.789
5.182
4.52
5.762
4.342
5.597
3.806
3.714
3.739
4.109
3.95
5.059
3.688
5.674
3.897
6.96
3.952
6.608
3.884
6.298
4.52
4.644
3.866
7.488
4.084
5.571
4.597
5.76
4.735
5.723
6.224
4.62
4.685
6.03
3.945
5.777
7.394
3.84
7.088
4.517
7.721
4.993
4.639
4.284
5.277
3.882
4.835
5.31
5.654
5.269
5.226
4.427
4.208
6.185
4.927
5.589
4.647
5.826
4.477
5.266
3.98
4.605
3.761
7.8
4.134
4.05
4.417
4.334
3.769
4.554
3.464
5.331
4.799
4.09
5.454
4.657
3.97
6.237
3.757
5.286
4.77
3.968
3.545
5.169
4.348
6.052
3.939
5.83
4.245
6.376
4.677
5.353
3.827
4.611
3.57
6.883
3.924
7.191
3.697
7.674
4.227
5.568
3.413
7.67
3.337
7.188
4.139
4.489
4.922
7.257
3.827
7.631
3.776
4.089
4.125
4.573
5.007
5.047
3.969
3.702
4.341
4.186
5.367
3.527
5.98
3.708
4.736
3.975
6.078
4.941
5.754
3.695
6.35
3.766
4.595
5.094
7.231
4.11
5.423
4.785
5.811
4.926
7.328
4.243
5.207
5.29
5.832
4.515
6.3
5.058
7.763
5.848
7.257
5.162
6.379
9.415
4.808
6.334
4.846
6.529
5.629
5.646
4.566
5.293
4.507
3.586
5.103
5.202
3.856
5.582
4.164
5.36
4.691
5.455
6.962
3.558
3.865
3.67
5.51
4.196
4.068
7.041
4.8
4.957
5.624
6.196
6.827
5.432
6.183
5.464
6.938
5.836
5.031
5.958
7.312
6.837
5.492
6.71
6.815
7.538
7.205
6.316
5.814
7.001
5.852
6.237
7.104
6.155
5.254
6.795
5.084
7.046
6.48
5.863
6.288
7.291
8.127
5.3
6.75
8.09
8.902
7.659
6.272
6.599
8.458
7.353
6.608
6.503
6.489
5.915
6.652
6.439
6.271
7.978
4.943
6.288
7.346
6.625
6.782
8.003
6.536
7.455
7.914
6.8
7.276
8.335
7.724
8.957
8.276
8.077
8.451
6.111
11.478
7.267
5.888
9.61
6.176
7.613
7.818
7.143
4.878
5.314
10.096
5.955
8.782
5.462
6.899
8.631
4.69
8.154
5.22
6.981
5.111
4.701
3.659
5.671
4.072
4.214
7.098
7.639
5.547
4.336
7.143
5.796
4.011
5.295
5.208
8.953
5.614
5.185
4.955
4.381
4.751
5.011
4.833
5.736
4.139
5.527
4.536
4.98
6.061
7.575
5.559
5.854
7.917
5.029
6.211
4.947
7.779
5.606
6.481
4.768
7.364
5.594
5.446
4.551
7.155
4.332
6.482
6.132
5.801
5.409
5.783
4.099
4.583
5.712
5.368
5.339
7.395
4.304
4.871
5.242
5.631
4.618
5.955
4.091
5.167
5.083
6.941
4.942
6.456
4.593
5.795
4.225
6.913
4.284
6.109
4.777
7.679
4.322
5.07
4.97
6.76
3.959
4.989
4.714
5.779
4.848
7.015
5.488
6.738
5.025
6.282
7.239
5.146
8.7
4.666
6.572
4.466
5.777
4.475
6.215
3.665
6.224
3.982
4.151
4.244
4.411
4.113
3.76
3.659
3.888
3.52
5.234
3.736
5.434
3.257
4.791
3.216
3.677
3.727
4.213
3.366
5.01
3.961
3.79
4.224
3.974
5.163
5.807
3.775
4.505
2.687
3.059
2.732
2.76
4.134
3.137
4.705
3.028
6.217
3.979
3.347
2.714
8.631
4.56
3.518
3.572
4.882
2.866
2.714
4.609
3.203
5.545
3.297
4.998
3.045
4.097
3.063
4.03
4.5
3.951
3.076
4.582
4.04
2.567
4.619
2.5
2.998
3.064
2.548
4.091
2.734
3.153
4.574
3.082
5.681
4.485
2.916
3.508
3.91
6.736
3.523
3.76
5.331
3.98
5.282
4.385
4.056
5.878
4.278
6.238
4.701
8.077
5.357
4.497
4.974
4.911
3.399
3.675
3.347
4.208
6.462
3.527
3.743
3.653
3.929
4.388
3.487
3.425
5.895
5.841
7.963
4.662
5.905
5.725
6.12
4.351
6.608
4.061
6.128
3.438
5.261
3.914
3.931
4.247
4.175
6.268
4.384
5.696
4.031
4.507
6.254
3.44
3.805
4.739
8.082
3.633
3.457
4.692
6.75
5.953
7.858
6.227
7.542
4.991
5.0
6.526
3.376
6.847
6.319
5.494
4.875
5.287
5.649
5.517
7.161
6.679
4.477
7.285
7.685
5.973
6.18
5.031
6.853
5.451
6.159
5.319
6.379
7.136
8.51
8.017
7.867
4.596
5.642
6.525
4.539
5.355
5.748
6.306
4.798
6.062
6.745
6.313
5.738
6.39
5.009
4.691
5.84
4.664
6.087
5.07
5.772
5.41
6.122
5.888
6.58
6.308
5.022
7.117
5.126
7.479
6.679
5.031
6.351
6.346
6.738
5.213
6.281
7.292
6.64
6.676
5.774
7.445
7.29
6.613
6.919
5.895
7.164
5.729
6.626
6.79
7.804
8.06
6.139
8.122
7.367
5.634
8.035
6.14
9.297
5.919
7.462
5.887
6.514
7.567
5.425
5.031
5.383
6.052
5.284
5.335
7.795
5.302
6.851
4.532
4.993
6.155
5.552
8.28
5.123
6.974
4.777
4.995
6.376
4.811
4.688
4.6
4.743
4.585
5.697
5.128
6.715
6.815
3.79
4.296
4.057
3.688
3.596
5.406
5.494
5.017
6.626
6.358
4.078
5.698
4.43
5.151
4.854
5.966
4.825
5.273
4.708
6.29
4.722
4.588
4.472
4.621
4.703
5.237
5.673
6.163
5.2
6.931
4.919
7.737
4.426
7.719
5.039
4.655
4.994
4.519
6.517
4.188
6.711
5.081
4.6
4.862
4.429
5.132
4.603
6.867
5.287
7.252
5.376
4.333
4.852
5.159
5.254
3.672
4.417
3.855
5.946
4.705
6.748
4.568
5.745
4.221
5.389
4.607
5.429
4.553
4.471
5.341
4.253
6.567
4.418
4.731
4.544
4.298
4.521
4.851
5.031
4.09
6.657
4.516
7.028
4.617
4.429
4.396
4.539
4.796
4.973
5.779
4.788
7.839
3.996
4.565
5.05
5.581
6.253
4.345
5.55
5.131
5.127
4.574
4.303
5.624
5.204
6.156
5.247
7.213
5.823
5.335
4.888
4.143
4.694
4.14
7.59
3.949
6.672
3.882
5.605
4.328
5.408
5.356
5.255
4.565
3.837
4.339
4.521
6.862
4.427
6.274
4.218
6.506
4.074
4.938
3.814
5.789
4.286
4.802
3.65
3.109
4.445
3.681
4.02
3.594
5.627
3.889
3.639
3.778
4.297
3.635
3.72
4.289
3.482
4.546
3.932
4.17
3.659
4.19
3.628
5.488
3.733
4.339
4.248
3.896
5.379
4.441
4.327
3.811
3.893
4.07
5.805
3.806
4.05
3.752
3.752
3.833
3.948
5.607
4.124
4.519
3.953
5.638
4.188
4.875
4.275
4.835
4.14
4.391
4.122
5.899
4.734
5.199
5.094
4.338
5.596
4.686
5.562
3.951
5.94
3.936
4.814
4.348
5.078
4.009
4.742
3.843
3.795
4.431
4.373
3.371
5.111
4.054
3.263
5.704
3.277
3.968
3.789
5.098
4.421
3.968
4.264
6.704
3.597
6.971
4.871
4.18
3.506
6.426
3.807
6.445
6.704
4.087
4.95
4.504
4.81
7.212
4.061
4.675
4.351
4.14
4.384
4.84
5.14
5.884
4.739
3.787
6.778
5.791
6.455
7.295
6.072
4.571
7.126
5.947
7.224
6.398
4.229
6.293
6.431
4.792
6.153
7.964
5.444
6.462
7.374
6.593
4.585
6.59
4.622
6.155
6.793
5.143
5.234
5.315
6.152
5.825
5.571
4.331
6.001
4.401
5.78
4.532
5.985
4.263
4.12
6.606
5.135
8.984
4.491
7.854
8.702
4.696
7.098
4.409
5.13
6.414
4.754
5.556
4.223
8.349
4.452
6.449
4.47
7.99
3.841
5.876
3.978
8.053
4.332
5.245
4.212
6.239
3.885
6.77
4.145
7.939
4.275
7.495
4.655
5.719
3.883
6.254
4.863
6.326
4.756
8.097
4.898
5.316
4.97
4.354
4.851
4.753
5.082
5.475
8.364
3.519
5.023
3.722
5.489
3.444
6.199
4.365
4.486
4.872
4.728
3.69
5.293
4.369
6.379
4.952
4.404
5.228
5.17
4.186
8.044
5.006
6.948
4.665
7.602
4.134
7.712
3.437
4.522
4.044
5.693
4.387
6.463
4.487
5.594
5.926
5.625
4.246
4.85
4.324
6.581
4.441
6.184
3.733
4.669
5.354
4.1
6.275
6.737
5.433
7.256
4.355
7.079
5.407
4.044
4.883
4.683
5.154
6.418
3.877
6.788
4.334
4.528
3.569
5.579
3.877
4.38
3.627
5.068
3.989
6.236
3.76
5.613
4.069
4.84
4.966
6.899
5.19
4.792
4.603
4.533
4.734
3.998
4.578
4.209
3.882
7.197
4.08
5.914
5.761
4.564
4.685
5.067
3.905
6.271
6.231
5.632
5.097
5.173
5.445
6.568
5.224
5.962
5.627
5.445
4.935
5.24
5.652
6.716
5.279
5.512
6.019
7.333
5.344
5.814
7.798
4.758
6.728
6.909
6.749
6.24
5.647
5.864
7.869
5.382
5.728
8.362
7.249
8.549
6.392
8.885
6.953
6.534
6.747
7.93
8.905
8.984
9.443
9.734
8.936
9.467
8.37
7.087
8.575
8.439
7.929
6.83
9.779
8.317
7.88
6.83
8.637
9.262
8.083
8.923
10.483
6.017
7.822
6.917
8.296
9.498
8.661
7.329
8.477
9.286
9.596
9.373
7.914
9.575
10.038
8.697
6.708
6.089
8.008
8.289
8.187
11.523
6.998
8.391
7.93
7.722
7.834
8.917
9.064
5.875
6.733
8.162
8.828
9.146
8.002
9.592
6.794
9.012
8.728
10.427
10.603
8.549
7.565
8.948
7.232
8.475
10.078
6.609
7.281
8.249
7.879
9.333
7.167
7.62
5.432
7.592
6.256
8.863
8.931
6.748
6.631
7.212
8.801
9.257
8.602
6.701
4.967
5.033
9.261
7.507
6.005
6.78
6.312
5.89
7.32
6.109
4.838
5.982
7.15
6.505
7.544
8.871
5.897
7.59
7.76
8.244
7.478
7.199
5.526
5.683
8.677
9.325
4.81
7.095
6.07
6.671
7.8
6.765
7.945
6.397
7.44
7.476
5.596
5.941
7.112
6.024
9.716
5.552
7.364
6.136
5.68
6.94
5.069
5.17
7.21
8.423
9.509
7.266
7.955
7.39
6.8
8.006
8.15
7.469
6.096
7.524
7.636
9.015
8.025
5.271
8.238
8.282
10.75
5.211
6.167
5.489
6.813
5.938
5.552
8.067
4.575
8.007
7.018
5.802
5.256
6.654
5.557
7.651
5.459
6.747
5.515
5.224
7.156
5.369
8.36
3.841
5.041
4.919
3.734
5.475
4.298
6.828
5.589
4.382
6.434
5.194
4.165
5.283
4.76
7.175
4.493
6.581
5.873
5.765
4.303
7.021
4.936
5.962
5.64
5.591
3.93
5.235
4.177
6.707
5.121
8.616
5.362
4.997
4.932
5.166
4.049
6.083
5.217
5.822
4.365
8.17
4.351
6.086
4.518
7.572
4.621
6.617
4.843
8.098
3.886
5.969
3.937
7.387
4.759
7.476
4.809
6.685
5.147
6.084
4.023
5.884
4.189
5.97
4.203
6.032
4.888
4.879
6.034
7.019
5.345
5.877
4.482
5.33
3.974
5.959
3.59
4.126
6.237
3.832
6.622
4.421
4.039
4.467
3.622
3.412
3.433
3.762
3.676
5.194
6.336
6.009
6.9
3.912
6.417
5.547
5.886
5.104
4.959
4.259
4.893
6.412
5.856
5.782
5.381
6.361
6.65
5.201
4.591
6.903
5.392
5.028
6.217
4.302
6.594
5.969
5.394
6.157
7.255
8.453
5.888
6.537
7.159
5.955
5.938
5.994
8.799
6.998
6.52
6.478
8.446
6.383
7.126
5.832
5.152
5.738
4.377
4.578
4.094
5.37
4.271
3.985
4.655
4.809
6.479
4.244
6.603
4.332
5.712
5.659
4.778
7.661
4.794
4.246
7.445
6.272
4.765
7.269
4.452
5.835
4.201
6.181
4.471
4.462
3.635
5.0
5.048
5.327
4.498
6.441
3.894
5.828
5.258
5.843
5.131
7.588
4.631
5.762
4.353
7.545
4.135
7.359
4.251
5.027
4.872
5.504
5.218
6.368
3.787
5.923
4.64
4.6
4.729
4.442
4.155
7.449
4.812
6.68
4.414
6.208
6.062
5.561
4.839
5.264
6.975
3.899
5.612
3.645
6.532
3.337
6.52
3.709
4.952
4.645
4.037
4.007
5.736
3.882
5.512
4.06
5.941
4.15
5.391
5.657
6.674
5.315
6.876
4.245
7.838
4.679
6.842
4.399
4.206
4.207
7.875
3.986
5.197
5.39
7.473
3.945
4.365
4.869
4.906
4.277
5.989
3.315
4.585
4.904
4.257
5.301
4.434
4.523
5.577
5.425
6.025
3.922
4.759
4.273
4.936
4.73
5.377
4.422
4.635
3.608
5.293
3.436
4.347
3.618
4.249
2.999
5.661
3.85
4.842
3.896
4.845
3.869
4.229
4.933
7.044
4.218
4.848
4.057
5.873
3.305
3.902
3.58
4.437
3.541
5.861
4.417
4.294
3.623
3.857
3.1
5.565
4.073
5.504
3.53
7.07
3.657
6.066
4.266
4.666
3.757
6.237
3.426
6.498
5.107
4.506
3.884
5.513
4.209
6.441
4.055
5.612
3.81
6.218
3.667
4.076
5.504
5.208
4.738
4.412
4.745
4.196
5.076
3.207
6.598
3.721
3.82
4.419
4.101
3.16
5.645
4.157
5.798
3.967
4.715
4.545
5.669
4.254
3.804
5.539
4.737
4.238
3.72
6.431
3.979
5.389
6.178
4.246
4.959
3.835
3.805
5.232
5.845
4.657
3.849
3.923
2.718
4.236
4.458
3.778
4.265
4.567
5.478
8.789
3.835
6.339
4.602
4.553
4.896
8.147
4.373
7.256
5.627
6.602
4.107
6.476
4.082
4.708
4.152
4.948
4.394
5.76
5.285
5.747
5.237
5.226
4.359
4.378
5.889
4.703
4.217
5.203
4.148
7.029
4.92
5.944
4.388
5.291
5.56
5.782
4.264
6.098
4.139
4.841
4.574
6.572
4.499
7.076
5.032
5.683
4.086
7.678
4.531
6.591
4.333
4.521
6.514
6.696
6.716
4.572
8.331
5.622
4.321
4.46
5.401
4.705
4.631
5.494
5.723
4.193
5.067
4.483
6.452
4.128
4.38
3.849
5.094
4.847
4.867
4.032
4.989
4.996
5.487
4.56
6.951
6.153
7.081
5.208
5.644
4.78
6.346
4.313
7.458
4.091
7.303
3.748
4.402
5.176
5.194
5.707
4.871
5.672
5.591
4.688
6.564
5.365
5.595
4.368
5.023
4.87
5.536
4.81
6.743
4.907
3.975
5.671
4.297
5.411
4.681
5.068
4.644
4.342
4.266
4.84
4.528
5.199
3.926
5.281
3.811
5.08
6.152
7.982
4.786
8.149
5.136
7.026
3.917
4.982
4.84
7.116
5.904
6.902
3.69
6.373
4.276
4.48
3.593
4.841
4.734
4.35
4.25
4.084
5.415
4.79
4.452
5.983
3.842
3.674
4.861
3.988
4.46
3.918
4.174
4.56
3.748
4.491
3.965
6.478
3.245
5.102
3.159
5.373
3.902
4.156
3.788
5.34
4.164
5.327
3.593
5.729
3.649
4.122
3.438
4.183
4.197
3.929
4.527
3.292
5.138
3.711
4.121
4.974
3.848
4.512
4.527
4.689
5.17
3.74
5.956
4.175
5.131
3.837
4.495
4.7
4.25
5.145
4.777
4.578
6.937
5.59
5.808
4.477
7.549
4.331
5.475
4.696
7.01
4.566
6.101
3.696
3.844
4.759
5.293
3.583
5.752
4.572
4.77
4.846
5.036
4.262
4.642
3.866
5.628
5.985
2.974
4.061
5.074
3.423
4.985
3.739
11.729
7.246
8.641
6.817
8.061
6.804
6.422
5.274
6.516
8.41
8.44
5.969
7.487
8.687
7.111
6.496
8.445
7.398
8.032
7.584
8.434
6.047
7.106
6.463
6.013
6.421
8.162
7.828
9.637
8.901
6.821
6.494
10.196
6.437
6.556
6.771
6.649
7.003
5.669
6.322
7.175
6.595
6.409
7.293
6.584
7.487
7.477
6.98
8.047
9.13
6.601
6.179
6.75
5.917
6.449
9.431
10.664
6.433
7.367
7.43
5.789
7.476
7.844
7.645
7.23
7.352
7.997
5.229
7.712
6.643
6.991
7.511
8.303
7.193
7.404
6.583
6.869
8.508
5.286
8.271
7.872
5.851
7.144
6.056
5.235
5.096
5.561
5.084
4.917
5.545
5.382
4.626
5.729
4.999
4.921
4.961
6.028
4.785
5.495
5.405
4.584
6.185
5.949
5.781
6.971
4.772
7.837
6.427
4.97
6.655
6.133
6.669
6.675
8.021
8.595
8.041
8.053
7.278
9.098
9.061
6.224
6.968
6.517
8.018
6.262
5.549
6.061
7.818
7.041
5.084
5.93
5.942
6.748
5.365
6.037
6.534
6.102
4.576
4.872
6.472
5.076
4.971
6.715
4.531
6.612
4.65
4.908
4.674
5.936
4.671
5.415
6.002
4.5
6.382
4.981
5.336
8.454
6.233
6.019
5.707
6.15
5.88
7.476
4.898
5.852
6.688
5.65
4.834
5.497
6.448
5.583
6.549
4.707
6.825
4.921
5.42
7.66
6.54
5.173
4.685
5.366
6.497
7.559
5.232
4.564
8.879
4.405
4.214
5.345
4.56
5.777
5.632
4.039
3.821
4.923
3.761
5.159
5.816
4.97
4.894
5.142
5.448
4.241
6.064
4.676
4.257
4.983
4.143
5.596
5.404
5.91
6.355
5.637
5.86
4.918
4.902
5.951
5.338
5.26
6.84
7.965
6.0
6.335
6.864
4.985
6.143
6.373
6.819
6.783
6.257
6.255
7.84
7.02
7.799
6.548
5.58
5.594
7.345
5.369
6.741
7.585
6.692
5.495
7.076
6.61
6.186
6.583
6.77
6.974
5.603
4.98
7.011
6.33
5.29
6.176
8.407
7.313
7.448
6.294
7.343
7.71
6.837
6.127
6.219
4.755
8.975
6.591
5.99
5.689
7.241
7.915
5.556
4.943
6.804
6.423
6.997
7.553
7.244
6.302
5.389
6.066
6.174
5.084
7.037
6.165
7.946
6.122
4.822
6.958
5.07
6.085
6.101
6.355
6.37
6.159
6.203
6.315
5.401
4.899
5.946
6.807
5.818
6.176
5.656
7.867
4.881
5.163
6.297
7.104
4.917
6.544
5.06
4.838
7.063
7.542
5.256
6.612
7.621
5.205
5.551
6.436
4.857
6.416
6.465
6.095
4.939
4.527
4.643
4.371
5.675
4.527
4.989
4.603
6.27
5.113
5.922
7.088
5.648
5.487
5.156
5.245
5.35
5.74
5.795
4.737
7.077
5.436
4.928
8.356
4.972
6.511
5.221
6.538
5.297
5.466
4.819
7.277
5.128
6.614
4.839
6.044
4.468
4.689
4.445
7.235
5.455
7.332
4.889
4.51
4.716
4.822
4.288
6.653
4.294
5.409
5.676
4.467
5.218
6.509
5.245
4.901
4.664
5.57
4.476
3.911
5.301
3.547
5.843
4.121
5.098
6.088
3.671
4.431
6.443
4.293
5.694
4.484
6.545
4.451
6.326
4.977
4.417
3.986
6.753
4.115
4.844
4.691
6.037
4.597
4.329
5.141
4.24
3.971
4.69
6.184
4.691
5.883
6.575
4.477
6.213
4.535
5.551
5.685
6.414
4.679
6.597
4.586
6.732
4.865
6.558
5.015
6.585
6.255
6.518
4.553
6.914
5.811
7.419
4.843
4.776
6.424
4.79
4.56
6.307
4.499
6.004
4.117
5.083
4.701
4.11
4.879
4.894
6.208
3.937
5.7
4.01
6.132
4.134
5.561
4.491
7.262
4.302
4.914
3.987
4.138
4.104
4.045
4.107
4.065
4.983
5.617
3.924
5.023
4.305
6.094
4.337
5.966
4.293
5.709
6.216
4.519
5.461
8.696
6.972
4.932
5.996
6.257
4.825
4.773
6.137
5.321
6.195
5.947
6.268
6.339
7.131
4.683
5.409
5.232
7.16
6.596
5.779
6.178
6.608
6.763
6.716
5.722
7.174
6.28
9.543
6.814
5.814
6.427
7.234
7.216
6.394
6.548
5.78
6.798
6.757
6.806
5.985
7.852
5.596
6.448
6.481
6.88
6.579
7.949
5.578
5.285
5.862
7.173
8.284
4.864
5.051
6.472
7.03
6.403
5.559
6.664
9.873
5.494
6.719
6.609
7.901
4.939
5.458
5.922
5.609
4.886
6.072
5.583
4.533
5.814
4.434
5.692
7.005
4.881
5.509
4.327
4.327
7.206
4.182
5.218
3.946
4.013
4.387
4.077
3.959
4.057
3.85
4.449
5.879
4.603
6.174
3.909
4.109
3.877
3.913
4.236
4.05
3.892
5.541
4.089
3.981
3.825
3.883
4.013
5.686
4.454
5.521
4.537
4.544
3.967
5.647
4.623
4.117
3.792
4.863
4.973
3.898
3.81
3.937
3.851
5.764
4.58
6.957
3.858
4.637
4.293
5.697
4.06
7.567
4.41
6.799
4.267
5.171
7.529
6.389
7.315
7.67
5.324
5.253
5.682
5.234
5.323
4.359
3.7
4.468
5.227
4.705
5.377
6.075
7.445
4.543
4.565
4.351
4.891
5.056
5.031
4.443
4.932
6.784
6.044
8.928
5.914
6.943
4.785
5.152
8.029
4.696
5.49
4.307
6.436
4.323
6.077
4.705
5.594
7.584
4.964
6.13
4.389
4.651
7.256
4.706
6.15
4.418
5.532
5.7
4.964
5.919
4.819
5.762
6.457
5.34
6.328
4.401
6.729
4.213
6.621
4.114
4.343
3.741
4.156
5.272
3.86
4.715
4.905
5.214
4.841
4.604
3.911
5.556
3.833
5.563
5.102
5.793
8.364
4.631
6.815
4.482
7.705
4.265
7.102
4.727
5.784
4.383
7.399
3.844
4.673
3.577
4.696
4.722
4.027
4.415
4.245
7.586
3.902
3.4
3.519
4.555
3.604
5.994
4.212
5.24
4.499
4.509
5.958
5.48
6.565
5.645
5.332
7.051
6.876
6.266
6.232
5.336
5.44
4.933
5.74
6.009
6.576
5.82
6.477
7.473
5.148
6.375
6.306
6.785
5.228
5.738
7.781
6.745
6.548
6.94
7.726
7.527
6.818
7.611
10.617
6.887
6.52
7.918
7.716
6.233
6.873
6.999
7.624
6.211
6.883
6.751
7.087
5.3
6.568
10.214
7.891
7.773
7.502
7.319
7.063
11.654
7.367
7.308
7.286
7.453
7.912
7.541
8.089
7.334
8.012
5.253
5.053
6.731
7.17
6.186
7.522
6.931
9.054
7.127
5.601
6.211
5.858
6.407
9.3
7.405
6.551
5.646
6.602
6.516
6.53
6.394
8.624
8.272
4.95
7.059
6.969
5.039
5.553
6.91
6.921
5.358
5.552
6.364
5.126
5.028
6.111
4.434
4.955
5.233
4.496
5.091
4.76
4.903
6.975
7.329
5.529
4.632
4.72
5.102
4.559
5.327
4.275
4.952
4.143
4.274
4.742
4.142
4.225
4.235
4.314
3.091
5.355
2.849
5.14
2.945
4.843
4.486
4.452
5.22
3.2
5.121
5.296
5.928
4.828
4.104
6.694
4.601
6.629
4.859
4.108
4.059
6.224
4.277
6.04
3.698
4.766
3.815
3.815
3.841
3.701
4.013
5.831
4.22
6.523
4.558
6.786
6.286
5.896
6.679
4.907
6.41
4.527
5.891
5.552
4.064
4.822
7.267
5.82
6.016
7.055
6.644
6.863
7.417
7.468
8.687
7.4
8.918
7.136
11.12
10.426
8.399
7.109
8.363
8.513
9.6
8.736
9.171
7.038
7.018
7.889
7.898
7.73
10.211
8.077
9.283
5.936
7.471
8.269
6.928
9.222
7.197
6.84
8.719
7.454
9.258
7.959
7.49
7.993
8.347
9.323
8.307
8.8
6.027
7.43
7.496
8.22
8.254
7.238
8.388
9.009
7.319
7.74
7.815
9.043
11.184
8.595
9.27
8.683
9.967
9.265
6.445
5.672
7.028
9.489
6.009
7.781
7.397
9.32
11.135
8.499
9.26
9.85
10.209
8.658
6.444
7.851
6.094
8.57
7.662
9.609
6.663
7.833
8.159
7.62
7.354
9.286
7.605
9.162
8.713
7.455
7.296
7.353
6.523
6.084
7.499
8.141
9.38
8.694
9.851
7.701
10.162
7.558
8.275
9.33
8.301
7.526
8.633
7.864
9.416
8.313
7.574
9.11
8.762
7.558
7.611
8.598
8.638
9.034
6.993
5.979
8.648
7.605
7.686
9.098
10.894
6.367
7.217
6.357
9.504
8.204
10.828
8.675
7.686
7.746
8.584
12.047
8.731
7.489
7.3
9.742
8.379
8.157
7.9
8.358
7.414
7.239
11.349
9.131
10.228
8.391
9.126
8.477
8.154
6.689
8.736
5.57
8.871
7.563
7.391
5.911
7.764
7.631
10.907
7.754
10.355
9.274
7.273
6.527
7.312
8.004
8.768
11.396
6.147
9.235
7.512
8.153
8.237
8.648
8.741
11.108
6.192
7.195
8.374
5.937
5.831
7.727
8.265
10.544
9.931
6.057
7.835
7.097
8.429
7.78
8.16
6.767
9.309
8.823
9.669
5.924
8.569
8.201
8.214
6.511
7.786
8.254
8.615
8.556
9.712
7.269
8.372
7.991
7.557
10.052
7.821
7.367
7.182
8.862
6.585
8.271
7.323
9.319
6.595
6.61
7.634
7.034
9.027
6.308
7.399
7.585
7.799
10.856
9.735
6.619
7.314
6.727
7.484
10.673
7.213
7.533
9.785
10.596
7.565
9.335
6.958
8.101
7.463
8.511
7.842
7.45
10.907
9.035
10.561
8.08
9.924
6.994
8.256
7.978
9.435
8.897
9.556
8.27
7.581
8.127
7.776
8.504
9.446
8.789
8.348
8.592
8.355
8.212
6.674
9.033
8.123
9.643
8.96
7.177
9.482
7.392
10.231
7.994
6.709
5.823
7.127
8.923
8.283
7.289
10.084
7.434
9.093
5.367
7.561
5.603
6.421
8.628
7.728
10.621
7.86
7.542
6.007
7.14
7.419
7.564
9.314
8.315
9.074
8.223
7.287
7.473
6.695
6.657
7.122
5.475
7.408
8.942
6.74
7.385
5.813
8.408
6.511
5.151
7.114
7.101
8.104
6.573
7.751
9.332
8.861
7.311
10.019
6.385
5.959
5.449
6.694
6.329
5.958
6.575
6.625
7.898
8.511
8.705
7.178
8.371
6.764
6.636
6.072
8.528
8.221
8.61
8.706
5.685
5.046
5.445
7.33
8.385
5.41
4.973
5.657
6.963
5.788
4.37
5.831
4.124
7.128
5.002
4.943
4.248
6.239
5.293
6.171
5.164
5.394
4.329
5.323
5.296
4.942
7.36
6.566
7.287
6.274
5.821
4.761
6.328
6.344
5.761
8.001
5.585
5.398
7.593
4.789
5.225
4.702
4.359
6.846
4.214
5.332
4.478
4.151
4.127
6.038
5.292
4.342
8.084
4.453
5.364
4.987
6.402
4.201
4.199
4.131
6.064
8.685
4.696
4.593
5.899
5.348
4.908
6.462
4.861
5.162
4.883
4.502
4.277
5.204
3.362
4.385
4.02
4.115
4.759
4.87
6.954
5.158
5.428
5.943
5.678
4.516
7.008
5.455
7.21
5.306
4.828
5.56
4.39
6.637
4.34
5.961
5.411
4.942
5.262
4.67
8.304
4.64
4.727
4.196
4.745
4.495
3.972
3.854
4.284
5.112
5.363
4.067
5.981
6.475
5.441
5.579
5.882
5.587
7.253
4.501
7.734
5.731
5.873
6.434
7.701
7.827
6.053
7.246
6.551
8.453
8.595
9.426
7.041
9.66
6.059
7.729
9.664
5.589
8.338
9.594
7.267
6.884
5.377
6.503
6.504
6.459
6.937
6.613
7.369
7.417
7.309
7.158
8.76
7.592
7.368
8.579
7.293
8.38
9.26
6.405
7.701
5.73
6.24
8.048
7.543
7.88
9.243
8.775
8.127
8.893
8.194
8.439
9.118
8.181
6.664
5.932
5.629
6.169
7.38
8.362
7.541
7.52
7.389
6.485
5.065
7.143
6.667
7.069
5.99
6.236
9.257
6.564
6.926
6.877
6.488
7.1
6.837
5.376
6.616
7.526
8.035
8.627
8.707
8.075
8.297
7.937
7.276
7.186
6.14
6.738
7.914
7.316
7.87
6.766
6.237
5.592
8.096
7.192
6.183
5.732
7.745
5.176
5.863
6.658
6.632
8.497
6.263
5.984
4.827
9.409
4.845
8.207
5.315
6.526
5.531
6.105
5.543
5.466
5.055
6.248
4.894
7.044
4.697
5.827
5.918
5.205
4.895
4.304
4.409
4.224
6.08
5.687
5.753
6.169
7.889
5.619
6.737
4.909
5.863
5.722
4.875
6.04
5.611
4.836
5.859
5.183
6.475
4.654
7.106
4.709
6.356
6.056
6.41
4.689
5.099
4.587
4.707
5.034
4.267
4.247
3.283
3.542
3.911
3.407
3.659
4.438
5.516
3.893
5.113
4.958
3.91
4.926
4.251
6.351
3.996
3.623
4.186
5.737
6.756
5.721
5.468
5.354
4.606
4.736
5.191
6.911
7.625
6.989
6.818
5.635
6.551
8.309
6.133
6.828
8.659
7.364
9.447
8.414
7.753
6.663
9.304
7.633
7.178
8.428
7.666
6.836
6.892
7.423
5.989
7.611
7.237
5.359
5.533
7.221
7.471
6.494
6.412
7.033
6.471
7.35
6.677
6.796
6.896
7.735
6.482
7.116
7.015
7.556
8.28
6.561
7.777
7.747
7.251
6.84
10.159
7.204
7.118
8.042
8.016
7.167
7.943
8.538
8.6
6.688
8.131
7.52
6.878
6.544
5.917
7.603
7.008
6.782
9.965
8.19
7.684
8.701
8.033
8.745
9.71
5.571
7.961
6.376
6.465
8.237
8.219
7.458
7.472
7.127
10.991
6.367
7.748
6.743
6.799
7.09
6.93
7.395
9.006
8.24
9.6
8.426
6.98
6.69
9.592
5.12
4.755
5.277
6.95
5.252
6.088
5.784
6.243
7.133
5.918
5.401
6.781
5.918
5.45
5.591
6.464
4.695
4.273
5.71
4.901
5.947
7.492
6.039
4.899
4.998
6.196
5.144
4.842
5.1
4.853
6.905
6.169
5.542
7.1
4.707
5.071
5.312
5.08
7.418
6.089
6.658
4.73
7.549
8.726
5.527
5.489
5.092
6.724
4.458
5.394
4.529
5.654
5.102
5.367
4.496
4.544
3.82
5.652
4.068
7.136
4.469
6.28
6.135
5.419
4.677
4.509
4.604
4.651
4.852
5.377
5.647
6.129
6.157
6.188
5.944
9.191
6.255
7.303
7.538
4.655
6.981
4.707
6.034
4.677
4.172
5.414
5.483
4.496
8.087
4.396
6.227
4.662
6.059
4.237
4.151
4.152
4.426
4.859
4.403
6.473
4.952
6.805
2.859
5.939
5.561
4.99
4.486
4.685
5.098
5.137
6.171
4.831
6.617
7.332
8.534
6.447
5.956
4.529
6.851
6.985
5.848
7.105
4.437
5.066
7.082
7.41
8.502
5.509
9.558
9.043
9.329
7.329
5.939
7.628
8.057
11.419
8.491
6.389
8.624
9.655
10.475
7.584
8.12
9.087
8.281
6.325
6.558
8.855
7.796
7.206
7.54
8.018
8.066
6.46
7.806
9.028
6.239
9.127
6.951
9.898
10.572
6.979
8.73
6.906
8.813
9.42
8.868
9.914
8.789
7.649
5.952
7.538
7.59
6.616
6.176
6.329
8.561
7.757
6.813
9.933
7.991
10.147
11.5
6.751
8.381
8.58
9.269
7.844
8.795
7.996
11.2
10.086
8.104
7.237
7.483
8.554
7.981
9.921
8.986
9.753
8.978
7.327
7.421
7.89
7.114
7.057
8.64
6.626
5.344
9.947
7.405
8.896
8.352
8.468
8.013
8.796
7.636
7.049
10.281
5.485
5.038
7.514
7.038
6.885
6.046
6.863
7.518
8.382
7.294
7.2
6.175
6.091
5.403
6.051
9.53
6.179
6.507
5.31
7.14
7.164
5.338
6.557
8.415
7.073
8.298
7.667
6.099
6.807
5.845
6.43
6.256
6.041
6.118
7.764
6.735
5.731
5.841
6.285
6.84
5.838
6.594
5.384
4.67
6.747
6.052
7.733
9.634
5.704
6.959
7.315
6.852
7.359
5.753
7.019
9.689
6.189
8.536
9.582
4.943
6.519
7.566
6.939
7.01
7.198
7.111
5.517
10.77
6.884
7.396
7.275
7.479
6.751
7.807
6.109
6.241
11.322
7.723
6.921
6.322
7.035
7.021
5.628
6.823
7.262
5.861
7.782
6.622
5.434
7.029
7.297
5.918
6.667
6.99
6.912
5.906
7.777
7.78
7.591
6.89
6.629
4.967
6.656
7.279
5.395
5.068
7.246
6.069
7.034
7.194
6.263
5.77
6.41
4.889
6.689
6.717
5.569
7.77
6.85
6.021
6.404
5.713
6.817
6.385
6.011
5.628
5.333
5.215
7.001
5.464
6.164
7.037
6.871
6.394
5.193
6.361
7.241
5.877
6.11
7.034
6.555
5.281
6.603
6.717
7.479
6.07
6.423
7.638
5.684
7.035
5.652
6.686
6.14
6.272
6.207
9.844
4.769
6.915
7.832
5.376
5.639
7.197
6.062
6.509
5.762
6.692
6.641
7.87
4.903
6.249
7.015
6.751
6.501
6.457
6.743
4.96
5.083
7.956
4.825
6.724
6.275
5.864
6.243
6.513
6.785
6.745
6.201
5.846
5.989
5.672
5.142
6.151
5.985
4.845
6.13
5.272
4.521
4.817
7.028
4.938
5.799
5.431
5.29
5.433
5.788
5.247
5.723
6.391
6.216
6.035
5.322
5.868
6.02
5.159
6.304
8.062
5.711
5.063
5.527
5.232
6.607
6.737
4.82
6.091
4.799
6.397
4.92
5.465
5.598
5.519
4.653
4.733
4.792
4.595
4.712
5.22
5.299
5.962
5.422
5.013
5.691
5.009
4.708
5.103
5.55
5.477
4.82
4.512
4.882
4.604
4.806
6.271
4.542
6.753
5.372
5.843
5.249
5.902
5.085
5.588
5.143
4.697
6.326
5.432
5.563
4.329
5.128
4.645
4.998
4.889
4.438
4.895
4.344
4.532
5.38
6.367
4.646
4.651
4.496
5.775
4.488
5.447
4.003
4.707
6.33
5.31
5.06
5.727
4.487
5.481
6.28
5.657
5.697
6.448
6.017
5.731
6.812
6.522
6.394
7.379
5.86
6.643
6.626
6.705
5.077
6.513
6.977
6.378
6.855
7.565
6.28
6.548
7.112
5.868
7.145
6.543
8.155
5.141
6.531
6.16
7.276
7.667
7.264
7.601
7.053
5.175
4.894
6.704
7.806
7.206
6.894
7.741
7.196
5.888
6.587
5.515
6.633
6.6
6.606
6.936
6.259
5.46
6.443
6.852
7.004
6.993
7.054
7.206
7.534
6.402
7.377
4.864
6.354
6.598
5.939
6.275
10.514
7.445
6.018
6.585
6.875
5.887
8.828
6.407
6.516
6.356
6.185
7.071
7.196
5.77
6.809
6.703
6.281
6.29
7.011
6.514
6.915
7.607
6.192
7.225
7.719
7.299
7.671
5.604
6.598
7.021
4.891
5.079
6.762
5.531
6.421
5.618
6.685
5.604
5.248
7.842
6.505
7.293
5.101
5.297
5.398
5.863
5.523
6.016
5.888
6.414
5.32
6.187
5.607
5.252
4.766
5.017
5.286
5.533
4.428
4.865
4.844
5.867
4.831
6.35
5.185
6.108
4.611
6.6
5.122
6.308
4.554
6.518
5.127
4.731
4.417
4.269
4.293
5.06
4.256
6.072
5.218
6.172
5.315
4.553
8.8
4.524
5.058
5.169
4.911
4.461
6.01
4.666
4.411
4.73
5.587
5.019
4.319
5.236
4.435
4.228
4.297
5.524
4.46
5.878
4.504
5.362
4.062
4.461
4.276
3.903
4.393
4.936
4.055
4.064
4.012
4.604
3.844
4.697
4.173
4.26
3.743
5.236
4.377
3.935
3.838
3.931
3.731
4.459
4.405
5.525
4.219
4.018
3.835
4.369
4.25
5.816
3.831
3.99
3.723
4.061
4.876
3.678
4.961
3.86
4.999
3.843
5.758
4.688
5.33
7.275
4.334
6.219
5.866
6.177
5.371
6.042
5.598
5.543
6.556
6.439
7.726
7.845
5.259
7.521
4.996
5.946
5.614
6.283
6.736
9.791
7.012
7.117
6.575
7.651
7.282
7.797
9.345
6.958
6.793
7.348
6.885
5.502
7.521
7.403
8.154
7.695
8.156
7.516
5.571
6.711
7.488
8.276
8.702
8.158
6.602
7.13
10.577
8.26
8.593
9.657
7.304
6.85
7.548
7.654
6.788
7.773
10.199
8.598
8.627
6.159
8.432
7.253
7.132
6.987
5.163
7.311
7.878
8.184
6.829
6.782
7.121
7.434
8.048
6.966
7.231
6.199
6.999
6.312
5.27
5.392
4.758
4.451
6.358
5.686
5.031
6.567
4.81
6.173
6.158
5.641
4.919
5.015
6.026
6.602
4.197
5.373
6.991
8.105
5.585
7.019
6.122
5.85
5.995
5.282
7.295
6.115
5.493
4.918
5.474
6.033
6.002
4.537
6.443
5.197
7.359
4.374
4.648
7.617
5.238
6.177
5.023
4.865
4.33
6.677
4.46
6.363
4.669
4.548
6.601
4.563
5.797
4.53
5.939
4.95
4.011
5.857
3.514
6.699
5.554
5.041
4.835
7.936
5.258
4.952
6.852
5.962
5.31
4.59
4.07
4.188
4.458
5.369
3.945
5.653
3.766
4.433
3.751
4.462
5.044
5.158
5.852
3.809
5.514
4.535
4.632
4.143
5.212
4.043
5.194
3.822
5.771
3.775
5.778
4.467
4.006
3.824
4.415
4.853
4.829
4.711
3.864
5.495
6.798
5.572
5.156
4.954
5.968
5.745
6.93
5.068
4.424
7.808
7.857
5.564
6.775
8.342
6.474
6.656
5.959
7.02
6.689
6.793
8.144
7.84
8.86
8.399
6.777
6.199
7.785
8.105
7.517
10.37
7.611
7.328
7.599
6.614
9.928
6.911
7.281
6.175
7.229
8.48
6.15
6.973
7.834
6.246
5.603
10.131
7.817
8.096
7.383
10.188
7.661
8.541
7.907
7.137
6.68
6.692
6.527
8.631
10.177
8.147
8.7
9.146
8.323
5.682
6.553
7.343
5.974
6.541
4.705
6.144
6.283
4.645
6.054
5.069
6.0
6.002
5.54
5.699
4.794
5.656
5.985
5.605
5.616
5.675
5.523
5.893
6.128
4.634
6.638
5.252
4.951
6.027
5.437
4.681
5.455
5.961
5.288
6.139
6.184
4.441
5.815
5.022
5.605
5.791
4.941
5.086
6.393
5.484
5.615
4.919
5.621
5.163
4.428
5.784
6.589
6.121
5.238
4.863
5.501
5.133
6.161
5.736
5.834
5.682
5.249
6.016
6.843
5.742
5.603
5.091
5.946
7.172
4.667
5.526
5.36
5.006
5.631
7.086
4.997
5.371
7.166
5.852
5.161
5.272
5.707
5.284
5.129
4.781
5.413
5.779
4.765
6.9
5.015
6.545
6.484
5.98
7.153
5.751
5.661
5.944
5.769
6.304
5.671
6.768
5.918
6.645
4.891
6.515
6.63
6.093
5.906
6.53
6.254
6.096
6.44
6.094
6.356
5.685
5.719
6.316
4.798
5.875
5.492
5.246
5.822
5.72
4.637
6.57
5.873
5.156
5.79
4.957
5.505
5.656
6.079
4.62
5.897
5.61
6.115
5.92
5.816
6.385
6.141
5.72
5.378
6.17
6.456
6.345
6.436
6.845
4.855
5.762
6.292
4.906
5.868
5.771
5.182
5.983
6.241
6.236
5.905
6.125
5.642
5.362
5.925
4.876
5.116
6.689
6.099
5.717
6.211
6.767
5.555
7.393
5.024
6.646
5.396
5.231
5.525
7.123
5.287
5.059
5.784
5.525
5.019
5.565
5.207
4.965
6.037
7.121
5.38
5.794
5.76
5.642
5.288
5.632
4.669
5.325
6.426
4.478
5.556
5.925
5.499
5.563
6.343
4.289
5.384
5.756
5.524
5.369
5.947
6.314
5.099
6.151
6.186
5.703
5.819
5.872
6.179
5.807
6.02
5.644
5.3
6.015
6.572
6.463
4.743
4.842
5.806
5.894
6.281
5.627
5.425
6.415
5.828
5.388
5.665
5.6
5.396
5.268
5.88
6.548
5.567
6.034
4.559
6.507
5.596
4.609
6.014
6.067
4.79
6.654
5.962
5.091
6.056
6.284
4.92
6.264
5.708
6.703
5.833
6.086
5.654
6.219
4.944
6.199
6.074
5.556
5.882
5.818
4.414
5.299
6.733
5.913
5.772
5.38
5.528
5.844
5.979
4.799
6.792
7.662
6.416
6.586
6.961
7.358
6.882
6.024
6.908
6.497
7.119
6.307
5.539
6.079
4.916
6.12
6.041
4.403
5.704
5.927
5.835
5.988
5.632
6.272
4.415
5.305
4.452
5.703
4.818
5.923
5.08
6.277
5.919
4.47
5.935
5.182
4.34
5.533
6.049
6.092
5.549
5.69
5.991
5.453
5.48
4.573
5.687
5.564
6.295
5.469
6.401
5.577
5.25
5.897
4.789
6.376
5.733
5.752
5.688
5.845
4.469
4.33
6.344
4.65
4.968
4.707
5.32
5.149
4.288
4.441
4.026
5.872
4.014
5.05
3.817
8.136
3.921
5.884
3.965
4.916
3.947
4.078
3.803
5.966
2.981
7.356
5.7
5.802
5.388
5.226
3.777
5.383
4.645
4.238
4.599
4.658
4.3
6.745
4.297
6.953
3.562
4.967
5.988
5.49
5.226
5.394
5.417
7.941
5.209
4.679
8.035
6.359
8.522
6.521
4.847
6.503
4.807
5.408
5.927
7.233
5.546
5.048
4.216
5.992
5.238
5.436
4.224
8.683
6.07
5.276
5.345
7.11
4.576
6.925
4.781
6.044
3.867
7.886
4.265
4.641
5.444
5.987
5.076
7.344
4.623
6.905
4.649
7.43
3.973
6.05
4.179
6.866
4.604
5.722
3.994
7.357
4.895
7.392
5.119
5.638
5.172
4.371
4.329
6.462
4.892
7.037
5.296
6.111
5.169
5.592
5.104
5.562
4.712
9.122
4.009
4.412
4.363
6.731
5.24
6.027
5.304
7.696
5.498
8.386
5.392
6.147
4.883
8.175
5.062
4.459
5.381
6.204
4.748
4.253
4.415
5.103
3.874
4.302
5.245
4.619
3.874
6.593
4.968
3.501
5.814
4.283
5.397
3.533
4.438
3.616
6.879
3.594
4.176
4.305
6.32
3.492
6.24
4.37
4.133
3.434
5.411
3.927
5.612
3.536
3.624
4.625
5.041
3.72
4.889
4.18
3.596
4.023
4.791
6.399
6.459
3.609
4.603
3.528
6.253
4.848
5.371
4.322
3.592
4.154
4.715
4.974
3.229
4.981
3.016
4.919
3.822
5.312
3.169
6.4
3.893
4.896
3.912
5.927
4.323
4.998
3.357
4.346
3.114
4.325
3.636
4.699
4.792
4.592
4.964
4.465
4.558
7.0
4.792
6.556
5.418
6.464
5.61
6.128
5.57
5.279
5.194
6.077
5.128
4.99
4.812
6.54
5.897
4.928
5.368
6.53
5.811
8.715
4.21
6.744
7.432
5.153
5.043
6.178
4.648
6.598
6.202
6.146
5.653
5.11
7.602
5.648
5.481
5.714
5.651
5.226
5.393
5.812
6.538
4.85
5.805
6.148
6.0
6.357
6.907
4.997
7.003
5.881
5.972
6.418
6.127
6.208
8.162
6.036
6.921
6.373
6.858
7.065
7.755
6.155
6.082
4.837
6.615
8.016
5.981
5.677
5.037
8.54
4.944
4.88
7.486
6.952
5.996
6.128
6.027
7.615
5.447
6.775
4.975
7.093
7.611
5.152
4.999
5.982
5.117
6.746
5.112
5.662
5.607
5.346
6.618
3.709
4.798
4.586
4.208
4.739
6.044
4.726
4.23
5.395
4.219
5.374
4.976
6.004
4.601
5.708
4.471
6.041
3.84
5.165
4.612
6.719
4.174
7.819
3.371
4.166
5.766
4.291
5.123
4.802
8.72
4.624
5.28
4.344
4.094
4.272
4.927
4.93
4.778
4.215
4.827
6.714
5.033
4.689
4.11
5.934
4.818
7.887
3.915
5.186
5.421
6.748
4.85
6.498
6.613
7.092
4.542
5.595
4.76
4.012
6.142
4.678
5.694
6.088
4.403
6.088
4.026
5.911
4.176
4.939
4.685
4.417
3.686
5.028
4.341
4.025
3.917
5.215
3.573
3.83
4.65
6.4
3.967
6.958
4.166
5.102
4.784
5.321
4.383
4.678
4.449
6.274
4.217
5.321
5.035
6.611
5.769
5.75
5.308
4.451
5.889
5.55
4.488
6.308
6.517
7.035
5.281
6.612
5.184
6.315
6.364
5.014
8.031
7.151
5.759
6.625
6.448
6.96
6.525
6.332
8.004
7.417
6.597
6.045
6.671
7.371
6.186
5.007
7.224
5.989
6.133
7.914
6.029
5.818
6.118
5.84
7.74
5.647
9.921
7.462
4.511
5.398
6.469
5.308
6.641
5.654
5.923
5.735
7.128
7.746
6.56
6.805
6.939
6.447
7.022
6.685
6.535
7.395
8.988
7.513
6.043
6.478
6.325
7.065
7.6
7.093
5.988
6.378
8.733
6.33
7.804
7.701
6.711
6.715
5.33
6.296
7.457
5.262
6.374
6.922
7.757
6.861
8.194
6.628
7.194
7.539
7.898
7.011
8.271
6.559
6.382
8.107
7.345
7.112
7.609
6.386
5.846
8.93
6.646
7.286
8.66
5.454
6.336
6.218
8.256
8.339
8.497
8.507
7.619
6.23
5.972
10.939
5.28
4.96
8.289
4.832
6.504
9.986
5.374
7.646
5.568
5.821
3.503
5.367
3.342
6.739
3.985
4.289
6.472
4.999
4.943
4.845
6.106
5.074
5.725
6.189
5.003
4.308
5.917
7.287
6.657
5.823
5.999
6.202
6.063
4.747
5.346
9.017
4.579
8.028
5.961
3.884
6.539
4.766
5.036
5.302
7.349
7.417
6.587
8.442
5.749
6.53
9.3
3.901
8.806
5.414
4.924
3.555
7.571
4.61
6.012
5.92
4.999
3.759
5.382
4.034
4.277
6.457
5.967
6.172
5.62
5.306
5.952
5.068
5.296
6.939
6.139
4.427
4.153
6.086
6.548
5.81
6.758
5.369
5.505
6.831
6.41
8.303
6.674
6.446
5.017
6.822
7.026
5.545
4.999
8.199
5.378
6.316
5.654
7.75
8.089
6.937
8.753
6.692
6.426
5.975
6.41
6.302
6.124
6.191
6.829
5.832
6.741
6.613
8.487
5.482
6.891
6.518
7.495
7.596
6.185
5.16
7.593
5.797
6.528
5.464
7.194
6.492
6.221
5.368
5.065
6.926
7.142
10.272
9.801
7.915
7.806
6.802
8.358
7.13
7.024
9.369
6.931
7.613
9.546
7.726
6.708
7.822
9.607
6.764
8.247
6.945
7.303
8.219
9.771
8.039
9.29
8.27
6.872
10.792
7.664
6.401
7.585
6.584
5.622
8.065
6.478
8.383
5.372
6.413
6.315
6.494
7.187
7.022
6.588
5.523
6.326
6.175
6.239
6.944
9.014
7.019
7.099
7.07
7.209
5.927
8.051
6.667
7.162
6.295
7.315
6.69
7.243
6.707
6.832
6.723
9.516
9.187
7.43
8.767
7.75
7.346
8.823
7.328
5.935
6.657
6.989
6.802
5.991
6.111
7.538
6.153
6.472
6.102
6.026
7.815
6.135
5.466
7.37
6.354
7.681
8.724
8.038
7.23
6.072
6.897
7.545
9.222
7.812
5.487
8.702
8.428
8.108
7.417
7.927
7.535
6.022
6.683
8.967
5.929
7.484
7.302
7.435
7.239
7.613
8.254
6.394
6.376
7.681
7.338
5.771
6.938
7.638
8.115
10.012
7.315
5.159
5.074
6.288
7.799
7.56
7.788
7.6
6.357
7.892
5.019
6.779
6.988
7.837
6.63
6.449
5.706
7.328
7.895
7.387
7.589
7.066
5.913
6.745
6.091
7.463
7.824
6.537
7.376
6.302
5.727
5.913
8.91
6.893
7.835
6.236
7.121
5.058
7.1
7.998
6.76
7.645
7.779
9.685
6.775
7.735
5.036
5.514
5.37
6.559
5.496
7.351
6.645
7.897
7.611
6.428
6.719
5.963
6.155
7.021
5.221
8.069
6.352
6.367
9.243
6.497
6.14
6.262
7.775
7.693
5.71
7.407
6.779
5.445
8.688
7.645
7.727
6.638
7.124
7.755
5.895
8.35
7.221
9.607
5.081
5.086
7.945
7.501
6.477
6.493
8.427
8.06
9.213
6.74
7.525
8.621
6.604
6.236
8.954
7.767
9.682
7.21
6.493
6.87
8.196
8.232
7.227
8.185
6.714
7.251
8.009
5.247
8.092
6.333
8.304
7.092
6.5
8.237
7.365
5.823
5.158
7.168
6.729
8.487
4.519
5.35
5.413
5.04
6.708
4.461
4.995
5.041
5.815
5.672
6.391
9.566
6.317
7.278
5.464
7.455
5.591
7.879
5.643
7.927
3.613
4.674
4.945
5.57
3.869
6.899
5.925
6.441
4.378
6.821
4.462
5.27
4.147
5.19
5.515
6.161
4.456
6.055
5.457
4.666
7.995
4.844
6.093
4.39
6.766
4.284
5.053
4.279
5.942
4.314
4.773
5.036
4.911
7.997
4.975
6.278
3.82
5.295
4.23
6.997
8.409
4.467
7.779
4.411
6.614
4.346
4.746
4.516
5.762
4.055
4.901
4.394
6.632
4.735
5.335
4.774
4.536
4.125
4.596
4.573
5.472
7.819
3.566
6.579
4.476
3.693
3.979
3.6
4.127
4.638
4.078
3.63
4.835
4.621
4.96
4.383
4.455
4.685
4.84
4.765
4.407
5.826
4.178
5.776
4.547
5.132
3.65
5.76
4.029
4.657
4.441
6.574
3.094
5.098
4.128
5.172
6.026
5.076
4.812
5.016
7.12
5.358
6.4
5.234
6.708
5.333
6.712
6.005
5.082
6.903
4.825
6.374
7.475
5.978
7.015
7.863
7.439
6.222
6.182
7.518
4.693
5.703
7.876
9.363
6.714
6.568
6.99
7.03
7.797
5.498
6.83
9.042
6.162
8.73
6.468
6.139
5.531
5.312
9.011
8.439
8.061
9.383
6.793
6.884
6.894
5.977
7.374
9.114
9.459
7.199
7.563
7.155
6.712
9.377
7.525
7.977
4.923
6.638
6.893
7.149
5.972
6.104
6.322
8.248
6.995
6.336
6.864
6.165
7.21
8.939
9.103
6.852
9.107
10.481
5.917
6.919
6.111
7.972
6.799
8.386
7.735
9.272
8.904
8.681
5.26
6.047
6.828
5.105
5.016
6.543
5.793
6.463
8.022
5.501
5.505
4.948
5.254
7.873
6.082
4.905
6.642
5.502
7.127
5.942
5.663
5.748
5.433
4.551
4.125
5.706
6.468
4.457
5.256
5.343
4.124
4.223
6.001
6.018
6.336
4.385
6.083
6.65
4.193
5.875
4.055
6.695
4.166
5.228
4.343
5.567
5.777
6.044
6.043
5.066
5.206
5.67
4.039
8.068
4.934
5.861
4.036
5.76
4.751
5.96
4.786
5.583
4.275
6.15
5.808
4.737
4.002
4.644
3.693
5.091
5.743
3.276
4.999
3.771
6.983
4.106
6.252
4.256
5.547
3.857
5.634
3.895
5.237
3.431
4.806
4.486
3.133
4.435
4.47
4.209
3.146
5.196
4.064
7.205
3.981
8.181
5.326
4.468
3.123
5.229
4.765
7.266
2.901
3.38
3.786
3.491
4.681
3.296
4.545
3.304
3.69
2.804
5.304
3.133
5.979
4.503
6.181
4.405
6.942
3.793
4.381
5.063
4.762
3.556
4.257
4.178
2.518
4.983
3.512
5.646
4.179
4.565
3.471
4.362
4.513
4.946
3.834
3.784
3.803
3.775
4.046
6.599
4.892
5.712
4.202
5.837
3.68
5.033
3.089
4.711
3.513
4.621
4.99
4.582
3.158
4.453
3.198
4.952
4.311
4.084
4.094
4.225
6.642
4.389
5.878
3.05
4.797
4.089
5.686
4.172
4.605
3.227
5.06
4.422
6.237
4.323
3.582
2.838
4.712
3.556
5.921
4.901
3.897
4.699
5.042
3.384
3.592
6.004
4.473
3.615
3.75
4.56
5.726
4.636
5.982
5.117
3.758
3.088
5.525
3.82
4.372
2.751
3.873
3.414
4.944
4.937
3.461
4.645
6.921
4.35
4.751
4.164
6.226
3.815
6.349
3.968
5.276
5.247
4.906
4.783
4.478
4.477
5.009
6.265
2.868
4.881
6.079
4.618
4.471
4.979
6.22
3.668
4.201
3.723
7.604
4.902
5.426
3.448
5.054
3.855
5.855
2.908
6.046
4.016
4.123
5.399
4.2
3.978
4.441
3.553
4.715
3.837
3.631
3.372
3.756
3.166
2.787
4.265
3.239
5.11
3.762
4.533
4.773
4.609
3.59
5.87
3.265
4.528
3.001
4.615
3.38
7.787
3.32
5.361
3.772
6.539
3.365
4.409
4.906
5.943
3.578
3.326
4.49
4.455
5.345
3.623
4.502
4.225
3.784
4.378
3.828
3.812
4.201
5.619
4.701
6.637
3.688
8.065
4.53
6.23
5.715
3.696
5.721
3.607
5.021
7.954
5.0
5.907
4.825
6.721
5.57
5.871
9.631
5.212
6.023
5.445
5.333
7.106
4.368
7.682
4.45
5.364
4.725
4.826
4.814
7.792
4.885
7.544
6.382
6.279
5.238
7.376
4.22
7.172
4.734
5.936
5.966
4.465
5.147
5.726
4.825
5.766
5.115
4.384
4.891
4.605
5.552
4.622
5.282
4.73
5.651
5.249
6.649
5.212
6.788
3.289
8.672
4.115
7.991
2.937
4.332
5.434
4.745
4.935
3.135
4.672
3.778
6.106
3.411
4.555
5.088
6.023
7.09
4.763
4.633
3.776
6.879
4.866
8.405
4.892
4.521
3.905
4.68
3.556
5.385
4.776
4.962
4.378
4.851
4.495
4.444
5.951
3.782
6.614
4.156
7.182
5.553
4.777
4.716
5.251
3.765
5.671
3.726
4.352
5.758
5.222
4.117
4.52
4.784
4.492
4.394
5.505
4.062
5.399
4.566
7.118
4.224
3.969
3.748
6.017
4.372
5.472
4.25
5.865
4.255
3.032
5.018
6.307
3.682
4.982
3.559
5.515
3.464
4.342
3.996
4.525
4.081
3.853
3.951
3.905
3.623
7.235
3.248
5.573
3.841
4.548
2.675
7.888
3.7
5.143
4.05
5.457
5.531
4.121
4.808
5.127
6.133
6.627
6.302
5.133
6.033
5.669
5.222
5.613
6.805
4.853
5.243
7.667
5.686
5.74
8.107
7.738
7.43
6.728
5.565
7.452
7.911
7.754
6.963
7.424
8.123
7.433
5.371
6.001
6.823
7.133
5.852
7.958
7.17
10.058
7.722
8.11
9.074
7.816
8.262
6.338
8.677
10.928
10.273
9.252
7.368
7.148
8.504
7.249
8.445
6.748
6.963
7.921
7.485
8.28
7.464
8.204
7.42
7.646
10.019
8.711
6.56
8.158
9.769
9.779
9.148
9.408
7.228
7.94
6.564
6.912
7.261
6.811
7.573
8.887
7.193
8.788
9.317
6.839
6.623
9.43
6.503
5.884
6.005
7.452
8.083
9.555
8.138
9.898
6.908
6.015
7.911
5.809
6.99
8.061
9.76
8.87
7.796
5.401
7.988
8.132
6.273
8.165
7.521
8.046
8.782
9.594
6.838
7.76
8.95
8.738
5.712
5.861
7.357
7.28
7.768
8.405
11.306
8.002
8.408
6.933
10.409
9.408
8.479
8.941
8.34
6.537
8.699
8.793
10.335
7.799
6.236
9.298
8.444
7.176
9.341
9.128
7.429
7.198
8.271
6.741
5.232
6.684
6.623
7.084
8.426
5.33
5.484
7.377
7.846
9.462
8.914
7.924
7.474
8.061
10.155
9.012
6.96
8.523
10.019
8.729
8.707
9.661
8.123
8.366
7.576
8.292
7.726
10.17
7.421
8.172
7.981
8.318
9.248
5.781
5.857
6.576
6.677
7.286
7.954
7.682
7.268
6.749
7.993
7.237
7.514
5.083
6.093
5.064
7.428
8.713
8.97
8.605
7.835
6.621
9.696
9.111
9.91
7.763
6.103
7.719
8.506
8.953
10.335
7.494
9.271
7.643
7.477
9.399
7.563
7.119
9.66
4.992
5.456
5.783
6.536
8.039
8.586
7.991
9.89
8.884
7.674
9.399
9.28
7.543
7.075
7.567
8.037
7.973
9.271
8.98
11.402
8.638
5.881
7.714
7.978
7.356
10.373
7.779
7.669
8.192
7.772
7.737
6.931
8.725
5.432
7.017
8.3
8.514
8.62
7.851
6.058
6.978
7.269
5.107
6.696
6.542
7.952
7.4
6.959
7.349
6.436
8.685
8.605
8.613
7.67
9.412
7.54
9.295
6.273
6.83
7.275
7.208
7.6
6.486
9.113
8.253
7.101
7.321
5.721
5.464
9.264
8.446
8.135
9.598
10.133
7.587
7.998
7.385
8.965
8.099
10.167
9.488
8.237
8.414
7.148
8.297
8.008
9.206
7.699
9.241
9.545
8.143
8.768
7.379
10.138
8.68
8.183
6.543
8.214
7.644
6.121
6.73
9.157
6.781
5.996
6.594
5.294
6.642
6.679
7.067
7.847
8.695
6.673
6.203
5.009
6.615
7.608
7.336
7.344
8.139
7.41
6.734
9.71
6.603
6.553
6.522
8.656
11.917
8.664
7.518
9.94
6.989
8.418
7.923
8.524
10.058
6.423
6.743
7.834
9.747
9.306
7.149
8.024
6.401
6.68
5.999
6.665
6.453
8.934
7.582
9.101
7.472
7.189
5.528
5.733
6.697
7.342
9.001
7.379
6.849
6.435
7.475
7.657
7.386
7.167
8.304
6.166
5.44
7.117
6.601
5.949
7.009
7.072
6.88
6.738
8.805
5.732
6.79
7.936
7.262
9.078
5.325
6.633
6.539
6.554
7.588
7.397
8.658
6.474
7.035
7.925
5.647
6.095
7.86
6.805
9.075
7.171
5.251
5.336
6.833
7.806
6.726
6.947
7.715
6.284
7.929
6.742
5.914
6.793
7.75
8.246
7.531
7.154
7.73
4.841
5.006
5.12
7.378
7.339
7.818
6.653
6.375
6.558
6.726
6.979
9.278
7.254
7.069
7.907
5.767
7.808
6.465
7.449
8.074
7.778
5.362
7.637
7.584
7.712
7.477
8.956
6.477
5.982
9.873
7.188
8.104
8.228
6.077
6.402
7.416
6.886
6.394
7.028
7.785
7.699
6.93
5.523
7.561
6.636
6.446
7.764
7.441
7.479
7.49
7.0
5.429
6.438
7.107
6.889
9.041
6.963
7.654
6.352
8.041
4.849
5.531
7.318
6.489
6.858
8.597
7.064
7.242
6.516
6.151
6.212
6.35
6.479
8.26
6.742
7.511
8.321
6.85
6.972
9.37
6.236
8.747
7.276
6.632
8.239
7.444
6.712
6.821
6.781
7.351
7.236
8.708
7.929
7.324
9.361
6.253
6.375
8.0
6.719
4.88
7.527
7.09
6.137
6.534
5.523
7.128
6.138
6.929
8.956
8.512
7.792
6.705
7.606
5.928
6.393
6.559
6.516
6.428
8.341
6.573
6.072
8.755
8.149
6.07
6.707
7.098
7.407
6.312
6.589
6.785
9.003
6.369
8.313
8.722
8.286
8.418
6.625
5.809
8.577
7.552
5.734
7.714
6.689
7.391
6.382
7.52
6.687
7.965
8.218
7.113
8.795
8.427
7.298
6.807
5.26
5.047
6.297
6.078
6.004
6.014
6.249
7.415
7.032
5.711
5.619
6.729
9.104
6.686
7.64
6.631
7.459
6.497
8.792
6.644
6.816
6.296
7.254
7.102
6.826
8.238
6.589
7.828
8.951
6.011
5.545
6.883
8.814
8.539
6.53
5.91
6.101
7.46
6.625
6.337
5.084
4.983
8.842
7.279
8.557
7.319
6.874
7.471
6.726
6.919
7.939
6.669
7.013
7.296
5.808
7.93
7.069
6.171
7.738
6.901
8.547
5.56
8.0
7.876
9.074
8.309
8.447
9.478
7.479
7.099
6.331
8.819
10.077
8.828
8.658
9.391
8.298
8.147
7.031
10.526
8.028
8.918
8.363
6.402
7.267
10.383
8.755
10.077
9.776
7.594
6.674
8.123
9.867
8.023
7.851
7.189
6.084
7.053
10.644
5.848
7.306
8.523
7.359
7.533
5.93
7.301
7.715
5.592
6.126
7.979
7.428
6.366
8.532
10.346
9.745
8.923
9.319
8.164
7.552
8.769
10.751
10.026
11.771
12.075
12.712
6.821
9.42
8.254
9.509
9.622
8.364
10.357
8.267
11.061
9.387
10.582
10.417
10.785
9.793
11.114
12.049
12.958
11.429
11.7
9.201
9.635
10.206
8.357
7.855
7.43
8.414
8.22
8.102
11.394
7.703
8.906
8.58
8.736
9.46
10.104
11.134
8.503
8.813
7.676
9.661
9.523
9.958
8.688
9.251
8.33
8.943
10.204
7.687
7.397
9.322
7.09
6.724
7.282
9.348
7.713
7.549
9.416
8.526
9.609
8.945
9.955
7.097
7.715
8.102
9.687
9.606
8.92
10.25
8.375
9.883
8.657
7.741
6.854
7.33
8.139
8.038
10.515
8.528
7.43
6.893
6.62
6.38
5.689
5.517
6.818
6.169
7.421
6.077
6.602
6.659
6.323
5.775
6.697
6.927
8.798
7.066
5.839
8.388
6.57
6.584
4.981
6.376
5.442
7.43
4.866
6.537
7.254
8.672
6.878
6.535
8.775
4.938
6.439
5.09
6.642
5.168
5.075
4.647
3.729
5.437
4.602
5.054
4.908
5.162
5.07
3.57
8.026
5.438
5.78
5.659
5.929
4.861
4.563
5.017
5.407
5.104
7.37
6.765
5.445
3.934
6.34
7.696
5.283
5.117
6.544
8.104
7.272
4.669
6.3
4.662
4.656
7.672
6.615
6.611
5.407
6.84
5.623
5.23
7.933
4.624
7.02
4.288
5.555
6.365
5.052
8.267
4.71
5.379
5.717
5.466
5.224
4.259
4.937
4.87
6.442
6.463
5.013
4.172
4.898
6.542
4.661
4.51
4.641
4.921
4.8
4.127
4.653
4.099
5.733
5.222
6.22
7.251
4.404
6.475
7.387
6.709
8.475
5.072
6.518
9.073
7.184
6.873
6.778
8.193
7.766
8.698
6.961
7.627
8.634
5.157
8.281
9.05
7.963
7.074
9.352
9.398
9.509
8.183
8.743
8.754
8.535
8.305
8.887
7.833
9.016
9.114
7.194
8.908
9.998
7.664
9.897
8.947
9.65
7.837
7.396
6.962
6.637
8.735
6.281
8.567
8.874
8.76
9.239
9.264
8.162
9.442
6.625
6.92
6.172
8.71
7.843
7.387
8.626
7.399
9.12
8.407
9.281
8.815
7.01
7.78
7.526
7.241
6.751
8.46
9.464
7.935
7.22
9.478
8.192
8.39
6.912
7.677
7.512
7.098
6.48
5.8
10.133
5.824
6.464
8.023
5.72
8.127
7.186
6.939
8.607
6.874
4.997
7.236
5.65
7.422
5.765
4.812
5.244
7.851
5.525
5.199
7.367
5.806
6.549
5.409
6.265
6.403
4.498
4.036
5.764
5.211
4.124
4.916
6.457
6.134
4.986
9.35
6.278
7.198
5.372
7.034
8.357
5.202
7.271
5.523
6.314
8.044
5.048
8.42
5.789
4.838
5.129
6.299
8.197
5.668
5.777
5.547
6.253
8.257
5.702
5.535
5.639
5.379
4.497
6.088
7.194
5.699
7.121
5.504
6.084
5.607
5.156
4.649
5.332
4.401
4.068
4.46
6.573
7.607
4.449
6.798
3.515
4.981
6.137
4.548
5.07
5.385
5.046
4.88
5.811
5.365
5.043
5.869
6.642
4.407
7.948
4.415
4.997
6.216
5.393
6.21
4.393
6.184
5.019
6.554
4.707
6.193
4.945
5.396
4.404
5.211
5.544
4.616
3.767
6.137
4.236
5.257
4.732
4.93
5.576
4.608
4.656
4.07
4.192
5.742
5.045
6.362
5.168
4.901
5.987
4.949
5.438
4.035
4.548
5.504
4.092
5.073
5.295
4.241
4.677
4.72
5.148
4.478
5.128
3.885
5.205
5.012
5.561
5.255
3.862
5.319
3.493
5.176
6.525
3.575
4.202
3.66
6.161
4.069
5.184
4.198
4.836
4.998
4.496
5.489
3.611
4.912
3.654
5.545
5.263
5.392
4.84
4.865
4.579
6.256
5.473
5.948
3.77
5.895
5.778
7.039
6.092
6.614
6.681
6.653
6.998
7.222
8.32
7.566
7.626
8.775
5.871
8.181
6.578
7.631
7.388
7.473
8.058
8.434
7.965
7.655
7.721
7.656
7.789
6.207
8.75
6.971
5.891
8.542
7.492
8.622
7.902
5.048
7.796
8.875
6.683
6.302
6.462
5.966
6.513
6.863
6.929
9.445
6.267
6.86
6.902
6.75
8.284
6.726
6.468
8.042
7.752
6.196
7.814
6.011
5.831
7.877
5.439
4.738
6.143
5.891
5.313
5.497
5.503
5.756
4.85
5.094
7.763
5.215
8.247
5.039
5.919
4.043
6.048
4.749
4.904
6.831
6.26
5.811
8.046
5.845
5.743
8.583
5.535
7.248
6.548
5.923
5.121
4.459
5.505
6.521
5.309
5.986
6.246
6.706
5.114
4.637
4.531
6.199
7.906
5.964
5.279
5.067
4.554
4.231
4.894
5.885
5.579
5.388
8.43
5.13
5.551
6.843
4.691
4.465
7.994
4.838
5.051
4.775
5.831
4.8
4.731
5.062
6.061
6.261
4.73
6.981
5.884
5.181
6.163
5.565
4.414
7.902
7.026
5.514
4.178
5.028
7.492
5.509
6.806
7.033
6.292
5.409
5.707
5.313
7.145
7.708
6.523
6.471
5.33
7.074
8.66
5.039
5.508
6.064
5.476
6.511
5.202
6.311
5.067
7.607
6.42
5.565
5.306
5.746
5.392
6.368
4.53
6.682
4.389
5.635
6.188
4.714
5.159
6.545
4.623
5.584
5.904
5.856
5.812
4.745
6.091
4.999
5.927
6.056
5.645
7.118
4.836
6.279
6.128
6.01
5.279
6.109
6.646
6.807
5.867
6.795
6.642
5.788
6.618
6.882
6.282
5.077
6.14
7.051
8.498
5.744
9.542
6.212
6.146
6.63
8.019
6.127
7.101
6.108
6.349
6.025
6.835
6.948
7.306
7.312
9.084
7.812
6.03
7.003
7.264
7.113
7.179
7.257
6.46
6.548
5.855
6.066
6.311
5.132
5.918
5.072
4.768
4.669
4.704
5.93
4.738
5.302
5.947
4.692
5.178
5.821
4.646
5.94
4.99
4.834
4.489
4.315
4.269
6.252
4.131
6.385
4.372
5.914
4.399
3.651
4.441
3.819
4.096
3.663
3.829
5.559
3.493
6.707
3.973
3.781
5.628
4.804
4.665
5.015
4.738
5.155
4.459
6.923
3.908
4.653
4.887
4.587
4.996
3.725
4.386
3.712
3.824
5.545
4.074
6.49
3.91
5.431
3.857
6.761
4.062
3.97
4.454
3.65
6.851
4.663
6.188
3.808
5.135
4.378
5.516
6.1
3.888
6.824
4.574
4.456
6.138
5.95
6.133
6.137
5.9
5.577
5.926
7.044
5.874
5.863
6.094
5.614
6.836
6.282
4.467
5.939
7.118
6.455
7.081
5.323
6.221
5.364
6.211
5.895
6.768
4.804
5.154
4.872
4.399
5.954
4.488
6.44
4.383
5.643
4.894
5.934
4.414
5.747
4.311
6.477
4.236
5.895
4.419
5.638
4.321
6.65
4.728
4.417
5.126
3.48
4.862
4.168
5.593
4.643
5.297
5.219
4.969
5.285
4.897
5.848
5.661
4.176
3.726
4.071
4.7
4.977
6.899
3.783
6.821
5.316
3.989
5.321
5.207
5.992
4.999
6.698
5.103
5.696
4.068
5.711
4.986
4.355
6.836
4.974
6.281
5.744
5.946
6.579
6.326
8.891
6.922
8.036
6.55
5.395
6.036
6.813
4.592
6.297
4.673
5.36
6.104
7.169
6.18
5.79
7.7
8.171
7.95
8.517
7.692
4.98
6.966
7.07
6.108
4.722
6.658
6.545
6.826
6.527
7.975
5.497
7.198
7.158
6.334
6.623
7.953
7.328
6.54
7.242
6.096
6.14
7.43
6.845
5.779
6.278
5.911
5.244
5.184
5.309
4.891
5.283
4.955
4.424
7.389
5.059
5.575
5.548
4.94
6.468
5.315
6.36
5.367
5.723
7.578
4.743
5.313
8.585
5.128
3.798
3.815
4.377
5.979
5.032
6.126
4.738
6.449
5.445
6.013
5.527
6.439
7.527
5.603
7.25
8.278
6.099
6.127
3.719
5.345
5.938
6.859
4.868
4.895
5.173
6.299
4.86
9.312
4.025
6.609
4.211
5.139
5.781
4.522
4.388
4.103
4.958
4.293
4.99
4.647
4.478
4.974
6.439
3.969
6.777
5.085
5.098
4.285
5.097
4.808
7.19
5.121
6.11
4.867
6.718
5.428
5.606
3.771
6.243
4.047
5.979
3.965
8.659
4.525
4.887
4.287
5.355
5.054
5.752
5.411
7.314
5.861
7.853
4.905
6.622
4.43
7.171
5.431
5.872
4.084
5.623
4.414
5.025
4.388
5.304
5.896
5.854
3.949
6.906
5.412
6.066
4.076
6.203
4.789
6.322
4.853
6.004
5.196
6.06
4.046
4.401
5.892
4.408
3.974
4.415
4.717
5.547
5.188
4.522
5.341
3.619
5.777
5.173
3.72
5.484
5.023
6.95
4.906
5.877
3.76
3.987
7.092
3.682
8.685
6.019
7.73
5.248
4.231
3.621
4.98
3.813
4.819
4.25
4.66
3.456
3.688
3.99
4.149
3.45
4.158
3.148
4.363
3.857
4.659
4.489
5.678
3.61
5.102
3.529
5.095
3.412
3.158
4.6
6.984
3.243
3.922
3.685
4.669
4.276
3.754
5.209
3.602
4.249
3.789
4.716
3.71
3.417
4.106
5.136
3.216
5.09
4.278
4.526
3.446
4.567
4.382
4.627
4.74
7.334
4.688
4.202
3.923
6.024
3.719
4.071
3.949
3.951
4.668
4.394
4.023
5.313
4.628
4.118
5.207
5.658
5.171
5.382
5.511
5.771
5.864
6.5
5.308
5.155
4.378
4.946
4.247
7.224
5.005
6.792
4.817
5.514
5.986
6.713
5.701
5.273
5.592
6.968
4.061
5.165
4.853
6.097
6.336
3.971
4.45
8.098
6.655
7.195
5.856
7.235
9.643
4.546
6.18
6.676
5.477
7.463
7.426
7.125
5.824
4.73
8.204
4.969
7.091
7.353
6.984
6.91
5.532
5.593
7.252
5.443
8.008
7.658
8.021
7.509
6.766
5.763
5.373
5.141
7.568
5.48
6.343
8.774
7.118
8.568
8.5
9.166
7.069
7.534
7.858
6.919
7.434
7.483
5.967
9.226
9.234
9.363
8.45
7.662
6.963
7.683
8.335
8.558
9.841
7.162
8.064
7.939
8.342
7.687
8.652
7.391
6.103
7.507
5.151
6.763
10.785
5.026
6.267
6.476
4.546
7.424
6.194
6.64
4.41
5.048
7.119
5.407
6.455
3.184
3.772
4.595
3.668
4.166
3.742
5.132
4.211
6.528
2.911
7.04
3.488
7.066
4.745
6.711
4.516
4.931
3.321
6.005
4.307
3.811
5.345
4.123
5.227
5.944
4.921
6.36
7.374
7.959
6.98
7.286
6.004
8.416
5.759
5.093
5.61
6.494
4.919
7.027
9.178
6.563
6.845
8.951
5.53
6.021
7.662
7.092
6.256
6.506
5.811
4.581
8.196
6.125
5.644
5.773
5.545
5.624
6.762
6.622
5.388
6.524
5.865
7.428
6.057
5.807
6.46
6.169
7.57
9.927
7.662
6.713
7.404
8.048
8.087
10.248
9.072
9.55
9.515
10.221
7.678
7.823
7.842
6.17
6.402
5.031
5.765
7.014
7.278
5.649
8.331
7.062
8.057
5.868
8.82
7.862
5.962
7.651
8.19
6.379
5.961
7.074
7.703
8.981
6.306
5.429
6.338
5.795
7.616
6.711
6.85
7.267
6.608
6.44
6.653
6.907
7.224
8.763
9.005
7.547
6.822
6.888
6.574
6.992
6.718
7.919
7.211
6.087
7.114
7.68
7.965
9.884
8.582
9.433
7.962
7.025
7.967
9.907
7.673
7.519
6.351
7.575
7.124
7.759
10.064
9.354
9.546
9.511
9.7
9.84
8.212
8.798
9.696
9.384
7.02
7.74
8.58
8.071
8.746
5.89
6.664
6.925
9.133
5.673
7.028
6.632
9.937
6.016
6.132
7.459
6.239
5.616
7.164
7.583
7.259
9.236
6.695
6.796
7.306
6.024
7.095
7.526
8.556
10.379
7.686
6.863
6.916
9.765
9.698
9.866
9.326
7.395
9.948
10.166
6.607
9.284
8.011
8.026
8.257
8.857
9.9
8.479
10.339
10.771
11.236
8.281
8.396
9.501
9.927
9.257
8.751
10.522
7.036
9.923
8.885
8.508
9.74
8.345
8.721
8.405
9.421
11.112
8.751
8.984
6.893
9.056
9.025
8.993
10.347
8.115
7.613
8.697
10.042
12.091
6.8
8.743
8.91
8.615
6.029
8.576
8.035
10.113
8.15
6.77
9.174
7.924
7.889
7.257
7.806
8.177
8.841
9.273
7.924
7.417
6.805
6.59
5.784
7.079
5.015
6.315
7.681
5.293
7.289
5.807
8.388
7.864
6.66
6.899
7.63
7.074
8.681
6.434
7.583
7.871
8.171
7.795
6.299
6.483
5.74
8.391
6.183
7.712
6.23
5.356
6.826
6.526
5.777
6.197
5.116
4.999
4.577
4.78
5.414
5.258
7.141
3.845
4.721
3.928
3.496
5.081
3.64
6.148
4.548
4.894
5.836
6.034
7.155
4.558
5.783
4.455
4.799
4.608
5.818
4.486
7.347
4.768
4.666
4.139
4.498
4.988
7.755
7.261
5.755
8.629
6.91
4.433
5.575
5.366
5.614
8.442
5.613
6.653
6.267
6.69
6.025
6.089
5.367
6.25
6.313
7.376
8.246
7.904
8.971
10.079
8.087
7.161
8.587
6.823
5.631
8.786
7.207
7.542
8.852
5.999
7.303
7.092
6.289
6.856
6.146
6.272
7.081
7.539
7.056
6.945
6.911
8.059
5.473
7.053
4.861
3.959
6.036
4.147
5.617
6.078
5.08
5.315
5.317
4.771
4.479
3.895
3.025
4.209
4.194
4.562
5.622
5.126
4.752
4.048
4.903
7.005
5.421
5.832
4.645
6.164
6.308
6.417
4.558
7.612
6.569
4.454
6.27
5.645
6.876
7.025
6.476
8.038
5.692
7.895
6.67
5.557
5.042
8.092
9.258
4.606
6.764
6.528
9.126
7.517
5.751
7.371
6.4
8.43
5.012
6.616
6.818
8.66
6.38
6.222
7.671
7.183
7.109
6.109
8.986
9.002
10.208
9.49
10.186
7.834
7.52
10.702
9.644
10.26
9.126
10.562
10.274
6.707
6.274
5.723
8.348
6.074
6.146
6.437
4.939
8.765
4.373
7.234
5.217
5.722
5.476
7.367
5.176
5.925
6.064
5.078
4.336
4.154
4.439
3.786
6.132
5.429
6.001
5.477
5.49
6.169
6.318
5.922
4.407
5.721
3.722
5.008
3.604
6.636
4.261
4.15
5.345
7.007
4.457
4.649
4.34
4.837
5.475
4.974
5.905
5.227
6.876
3.865
6.407
4.391
4.394
8.102
6.386
5.746
6.078
4.211
5.797
4.28
5.386
4.771
4.369
4.677
5.881
3.709
7.379
3.515
6.037
5.071
4.308
3.598
6.841
5.338
6.043
4.41
6.754
4.124
6.562
4.519
6.367
5.481
5.971
4.809
8.092
4.485
4.835
3.291
6.74
4.601
8.862
4.008
5.282
4.606
6.585
4.489
7.828
4.665
5.666
4.575
7.588
4.902
6.773
4.518
6.207
5.269
6.622
4.291
4.713
4.283
5.287
4.346
4.493
4.858
4.461
5.052
4.2
6.725
4.136
4.269
3.873
5.431
3.951
5.238
4.1
4.464
4.197
3.967
4.072
5.502
3.6
3.907
3.498
4.363
3.668
3.857
4.131
4.848
3.493
5.79
4.184
5.138
4.583
4.591
4.08
5.095
3.533
4.094
4.45
4.96
5.395
6.091
3.509
5.091
4.639
4.606
4.521
4.175
5.556
3.174
3.239
5.807
3.87
3.833
3.873
3.834
4.076
5.73
3.975
4.996
3.657
4.361
3.116
6.177
4.326
3.94
3.972
6.196
4.689
7.093
4.802
6.079
4.845
4.22
4.619
4.573
5.235
5.315
5.05
4.239
4.074
4.309
3.846
5.75
4.184
5.467
8.38
5.244
7.429
4.842
6.573
5.311
4.652
4.727
4.994
4.059
5.8
5.015
6.834
4.478
5.889
4.842
5.114
8.56
5.84
7.225
5.691
7.307
4.087
7.44
5.629
5.475
5.18
7.633
5.262
5.904
5.955
5.337
4.686
5.583
6.125
4.288
7.737
3.956
5.62
4.176
5.652
3.555
4.573
4.439
4.379
4.917
6.694
3.374
5.638
4.295
5.844
4.58
4.979
3.732
4.422
4.171
7.04
4.574
6.102
4.586
4.728
5.276
5.978
5.327
5.317
4.595
5.309
6.018
6.361
5.182
5.387
5.031
4.634
5.002
4.671
6.251
5.797
5.591
6.546
5.033
5.056
7.077
4.485
5.388
4.161
7.15
5.022
8.825
4.795
5.473
5.661
7.41
4.824
6.836
3.756
6.525
4.385
6.34
5.854
5.559
4.639
4.839
4.635
7.689
5.167
6.675
4.108
4.781
4.256
5.357
3.597
5.176
6.764
6.175
6.844
5.114
6.185
4.871
7.246
4.863
8.696
6.094
6.083
4.427
6.994
5.949
5.252
4.769
6.533
5.299
5.073
5.273
4.004
4.655
3.889
3.292
4.989
4.083
4.29
3.607
6.445
4.728
6.464
5.288
4.953
4.404
5.66
2.969
7.351
4.549
5.943
6.099
5.252
6.062
6.003
5.34
3.958
4.594
6.041
3.694
6.994
4.523
4.209
3.754
4.875
3.969
5.327
4.168
5.281
2.737
3.923
2.526
4.51
6.339
4.921
4.754
5.111
4.834
5.669
5.559
5.048
7.425
5.647
5.425
7.774
6.314
7.481
5.432
6.187
7.211
5.475
8.039
7.992
7.151
5.646
7.882
6.248
5.148
5.61
5.93
7.147
8.834
7.109
8.245
7.428
7.878
6.335
5.124
6.806
4.927
5.773
7.279
6.144
6.543
6.547
6.186
7.037
7.007
6.99
7.273
7.213
5.576
7.411
8.434
6.407
7.316
7.183
5.031
5.351
7.948
5.413
6.848
8.069
5.899
6.37
6.971
7.84
6.468
10.485
7.557
7.583
7.283
5.515
5.803
6.922
6.771
10.265
7.763
6.124
7.263
7.207
6.962
6.385
5.611
6.859
7.501
5.857
5.996
4.939
4.958
7.436
5.528
4.798
6.703
5.758
5.565
5.508
7.857
4.865
5.222
5.073
4.982
5.236
5.304
5.173
4.643
4.722
5.118
3.443
3.773
3.766
4.106
5.271
3.478
5.623
5.2
4.445
6.034
4.719
8.139
4.394
8.409
5.326
5.676
4.702
4.014
5.122
4.022
6.558
6.156
6.734
6.707
6.756
6.042
6.143
5.294
5.653
4.936
6.763
6.723
6.751
6.665
5.003
6.988
5.38
7.273
6.806
8.977
7.188
6.305
7.811
7.298
7.132
8.251
5.685
7.146
8.123
5.902
6.347
8.876
6.334
8.197
7.242
8.378
7.454
7.63
7.688
8.108
6.104
6.012
6.846
5.383
5.786
5.274
5.467
6.743
5.041
5.288
4.704
5.394
7.352
5.013
7.241
4.557
5.166
4.789
10.463
5.094
4.788
4.311
5.796
4.599
4.18
6.102
4.27
3.785
3.314
3.711
3.56
4.869
5.486
6.34
4.616
5.205
4.738
4.319
4.063
6.201
4.148
4.536
4.152
3.753
3.884
4.838
3.474
2.722
4.762
4.134
5.636
3.744
5.052
5.139
5.841
5.521
5.873
5.398
9.563
8.113
4.268
9.27
5.41
6.221
5.563
7.086
5.553
6.171
5.245
4.885
6.911
5.994
7.166
6.305
4.86
6.756
5.171
5.677
5.905
6.503
6.557
6.71
6.146
5.113
6.334
6.831
6.102
6.474
7.073
6.855
7.134
6.609
7.168
6.472
6.182
6.527
7.002
5.342
5.06
6.041
7.912
5.147
7.109
5.123
5.211
5.433
5.446
7.578
6.361
5.035
8.377
5.898
5.754
4.924
4.699
7.608
4.989
7.383
7.327
5.453
4.807
5.296
5.394
5.098
4.736
4.805
5.021
4.805
4.602
6.78
6.339
11.424
4.637
7.524
4.74
6.656
6.712
6.621
6.548
6.391
4.76
6.125
7.854
5.916
5.912
6.849
5.823
7.876
7.092
6.955
5.292
7.004
7.574
5.582
6.908
6.597
7.068
5.742
7.607
5.698
8.109
7.378
5.65
6.334
6.998
7.265
7.726
7.77
6.42
5.635
6.124
6.567
5.366
5.652
5.883
5.405
7.886
5.875
5.942
4.855
6.613
4.918
4.674
4.767
6.211
4.694
5.487
4.69
4.674
4.733
4.649
4.328
5.952
4.422
5.501
5.331
4.942
4.424
6.462
4.686
5.628
4.704
4.469
4.026
3.291
3.605
5.245
4.937
3.344
4.981
3.77
5.643
4.565
3.851
3.783
3.94
4.483
4.177
5.654
5.167
4.083
4.845
4.223
5.735
4.153
5.136
6.394
4.748
4.786
4.099
3.392
4.891
4.274
5.233
3.832
5.384
4.606
4.101
4.331
4.005
3.916
5.423
2.828
3.506
4.569
4.571
7.428
4.615
4.865
4.253
5.172
4.204
5.304
5.095
5.052
5.164
5.292
5.351
4.234
5.121
6.038
5.834
4.621
4.188
5.898
5.325
5.866
5.723
6.427
5.95
6.172
6.251
4.887
6.089
6.109
6.395
7.184
6.745
5.772
5.224
6.123
6.899
5.375
5.391
5.675
4.645
4.471
5.854
4.569
4.855
4.297
5.338
4.13
4.428
5.158
4.742
4.617
5.396
7.722
5.143
7.909
5.244
8.097
4.753
6.069
5.432
6.927
8.096
7.565
7.858
8.687
6.852
7.883
8.624
6.81
8.226
8.301
6.359
8.447
8.838
7.68
8.539
9.228
6.935
8.053
6.695
7.54
7.884
11.782
6.044
6.253
7.066
8.05
6.928
5.506
6.961
6.936
5.766
5.56
6.561
7.055
7.347
7.913
6.892
6.708
5.967
6.569
6.797
6.632
7.83
6.342
7.237
7.166
6.018
7.029
5.677
6.838
6.097
6.14
9.511
5.873
7.787
6.541
7.527
6.96
4.829
6.151
6.509
7.002
6.634
5.75
6.912
6.192
6.423
6.749
6.706
7.23
6.211
5.972
8.938
8.916
6.884
8.09
8.233
7.712
8.228
8.925
6.361
7.673
7.693
5.977
8.01
7.412
8.533
6.319
5.673
8.561
8.033
7.861
7.744
6.85
7.109
8.576
5.522
6.683
6.97
6.053
7.462
6.251
6.271
6.718
6.171
8.168
5.563
7.059
8.423
7.72
6.731
5.479
6.045
5.655
5.403
7.097
6.338
5.334
6.326
6.925
5.656
6.411
5.016
6.257
6.301
5.273
6.16
7.628
6.314
5.179
6.676
7.006
5.561
6.175
6.792
5.952
6.889
6.528
7.097
4.947
6.194
4.827
7.193
5.324
5.305
6.637
5.428
5.461
5.904
6.866
5.203
5.421
4.77
5.648
6.754
5.232
5.952
5.298
7.054
6.009
5.995
5.018
4.962
5.141
4.987
7.947
5.095
4.962
4.596
5.318
4.549
6.178
5.11
4.688
4.76
5.555
5.264
4.671
4.749
4.538
5.069
5.577
4.496
6.403
6.95
5.616
6.406
5.947
6.498
7.228
6.196
6.043
6.858
6.237
6.576
8.722
5.882
6.618
5.23
6.156
7.749
5.675
6.838
6.505
6.721
6.805
6.961
5.755
5.364
6.726
7.419
8.506
5.869
11.748
7.922
8.378
7.924
6.912
7.293
8.59
8.584
6.127
6.675
7.315
6.74
7.115
7.445
8.73
7.679
7.659
8.064
6.59
7.982
8.035
6.602
8.529
8.227
5.818
6.954
7.524
6.765
5.929
8.135
8.828
5.767
5.833
7.653
5.931
6.677
10.221
7.116
6.653
5.44
5.89
6.446
4.754
4.703
6.275
6.507
5.535
6.109
5.575
6.53
6.511
6.202
6.291
6.753
6.276
5.049
6.121
6.11
6.732
6.733
6.354
6.391
5.658
7.099
7.833
6.595
6.149
6.758
6.622
5.77
6.74
6.758
6.645
5.886
5.755
6.893
5.845
7.134
6.713
7.141
5.285
6.365
5.253
4.869
7.496
6.113
6.697
7.464
4.947
5.432
6.526
5.973
5.482
5.228
4.909
5.861
5.601
5.068
7.194
4.68
6.041
5.35
5.343
5.115
5.026
4.929
5.122
6.55
5.623
5.832
5.446
5.296
4.782
5.329
4.778
4.815
4.939
6.603
4.543
6.133
3.49
3.807
4.368
4.184
5.432
3.293
3.552
4.129
3.743
3.804
5.347
4.628
3.742
3.696
6.62
4.405
6.665
4.612
4.263
5.629
4.891
5.561
4.006
6.987
4.288
5.756
5.294
5.286
5.258
4.788
6.21
3.97
6.509
4.449
5.815
4.958
4.915
5.032
4.168
4.501
4.299
5.42
4.752
4.371
4.331
4.608
4.728
4.808
4.627
4.537
4.782
4.175
5.511
4.776
5.995
4.74
4.352
5.772
4.361
6.004
4.646
5.613
5.705
7.915
4.849
4.01
5.43
4.133
6.419
4.907
6.297
4.393
4.611
5.05
3.556
4.439
4.577
4.446
4.048
8.345
4.627
5.327
5.2
4.676
6.308
4.488
6.752
4.491
5.368
4.364
5.487
5.806
5.153
5.136
4.241
5.712
3.661
5.773
4.438
8.092
4.613
5.244
4.486
5.242
5.011
5.241
6.06
4.519
5.772
4.528
5.723
5.136
5.515
4.534
6.807
4.15
6.395
5.035
4.753
4.345
5.487
4.136
5.203
4.923
4.487
7.805
4.799
5.623
4.886
4.698
4.733
4.105
4.855
4.295
4.659
4.006
4.045
4.047
4.835
3.284
4.317
4.763
3.687
4.687
3.695
5.269
4.184
3.681
3.661
5.026
3.993
5.726
3.914
5.505
3.148
5.242
4.242
5.956
3.915
4.158
5.399
6.149
5.032
6.065
5.911
5.417
5.613
5.606
7.29
5.138
5.805
6.202
8.084
8.182
6.655
4.673
6.561
7.441
4.848
7.134
7.329
7.142
5.203
6.821
8.026
10.106
7.774
7.11
9.755
7.244
8.863
6.96
6.585
9.803
6.647
8.135
5.534
4.837
6.022
4.488
4.849
4.945
4.395
4.804
5.566
4.733
6.395
8.088
6.47
7.137
4.978
7.436
5.068
4.77
5.923
5.464
6.139
5.909
4.846
6.309
4.945
6.012
6.674
7.139
7.457
5.08
6.298
4.391
6.8
4.967
6.048
4.66
6.445
4.972
4.865
6.117
5.774
3.978
5.085
5.047
8.202
4.001
6.541
4.113
5.204
5.206
4.543
4.507
5.201
5.334
4.722
6.918
4.546
6.933
4.817
6.928
4.868
6.273
7.554
6.185
7.201
4.74
5.499
5.003
6.494
4.413
6.788
7.311
4.642
5.066
5.148
7.241
4.71
6.731
4.558
6.306
5.131
7.642
5.017
5.889
5.249
5.881
4.566
4.859
4.251
5.304
3.581
5.112
3.843
6.155
5.69
5.809
4.774
5.877
4.101
5.801
4.968
4.594
4.977
4.952
4.936
4.313
4.6
6.381
5.493
5.201
5.653
5.252
5.713
6.126
5.348
5.361
6.093
5.131
4.332
3.722
4.365
3.515
5.362
4.082
6.085
4.192
4.828
5.28
3.965
4.905
4.167
5.617
5.106
5.27
4.37
3.897
4.777
4.609
4.361
4.923
5.47
4.161
6.861
4.595
6.43
5.27
5.691
5.856
5.235
5.441
5.469
4.683
5.925
7.244
6.105
5.955
7.928
7.722
6.473
7.822
7.653
7.98
5.613
5.088
7.216
6.185
6.369
7.537
7.563
5.062
7.027
7.132
6.405
7.018
6.707
8.878
7.988
8.493
6.683
9.143
6.379
7.99
8.112
7.054
8.352
7.78
6.637
5.721
7.099
8.227
7.297
7.735
6.4
6.781
6.43
7.223
6.514
9.011
6.486
5.114
6.21
7.316
5.823
4.497
4.502
4.769
5.502
4.393
5.757
5.401
6.634
4.802
5.446
5.353
7.956
6.563
5.557
5.945
6.191
7.109
7.218
7.436
5.725
6.596
4.741
5.572
5.479
7.789
6.367
6.741
4.961
5.639
5.916
5.46
5.237
5.687
6.559
6.053
5.39
6.878
4.644
5.733
6.048
5.418
6.443
5.364
5.369
5.1
6.751
4.468
4.283
7.28
6.559
5.819
6.808
5.554
5.662
5.743
8.764
5.716
8.077
4.335
4.213
6.548
4.923
5.738
4.136
4.541
4.279
4.835
4.267
4.667
4.173
4.372
3.759
4.091
4.904
3.636
4.52
3.754
3.996
4.176
4.502
5.377
4.953
3.561
3.807
3.243
5.984
4.119
6.385
3.863
5.265
3.494
5.576
4.045
3.705
4.129
5.151
4.581
3.701
4.501
4.282
4.197
5.032
5.723
3.489
4.569
3.593
6.589
4.599
5.459
3.909
6.361
4.879
4.532
4.834
7.765
4.787
5.331
7.669
4.183
5.766
6.623
5.109
5.481
4.151
4.28
5.01
4.568
6.926
4.411
4.46
4.872
4.993
4.778
5.6
6.051
4.567
7.75
5.206
7.825
3.942
4.774
5.513
6.561
5.342
7.384
5.606
5.738
4.024
7.064
4.418
6.501
4.544
5.514
4.899
8.639
6.149
7.79
3.827
6.999
6.012
6.797
5.317
7.419
4.676
6.808
6.694
5.491
7.004
6.371
8.423
7.224
7.331
7.459
6.867
6.319
8.5
5.249
6.112
5.724
5.194
7.145
5.028
6.609
5.766
4.734
6.947
3.796
8.523
5.432
5.55
4.945
8.429
3.556
5.389
5.854
4.81
4.73
3.861
4.547
5.074
4.164
4.751
4.789
3.586
3.819
7.477
6.212
5.676
4.472
5.005
5.286
5.323
4.006
4.024
3.735
5.067
3.576
4.154
3.825
4.801
4.059
4.965
3.888
5.395
4.271
4.488
3.894
3.97
5.426
3.51
4.32
4.575
3.898
3.265
3.958
4.579
3.815
3.326
5.167
3.755
5.436
3.492
4.869
4.098
5.384
5.544
5.06
4.925
4.998
6.342
5.501
6.163
5.214
5.183
4.757
5.599
5.767
5.753
4.998
7.514
5.161
6.206
6.604
5.768
7.149
4.376
5.306
8.346
6.751
5.951
8.14
5.956
7.221
5.504
5.608
6.05
6.068
6.525
8.127
5.465
6.662
8.818
5.038
6.752
5.796
5.246
6.554
7.231
5.302
7.664
7.014
7.386
6.938
9.02
7.611
6.756
6.273
6.809
8.607
6.386
6.179
5.809
5.785
7.251
6.909
6.138
6.576
8.778
6.294
6.233
7.482
5.935
5.607
5.955
5.706
5.419
5.27
4.636
5.695
5.884
7.171
7.028
6.765
6.532
8.262
5.678
5.409
6.629
8.409
7.829
6.46
6.184
6.675
7.423
6.917
7.775
8.284
6.23
6.154
5.874
6.442
7.363
6.803
6.007
7.445
7.107
8.638
6.209
6.823
6.482
6.091
6.028
6.012
6.75
7.552
6.327
5.555
6.415
7.705
5.68
7.138
7.561
4.946
8.595
6.304
6.315
5.787
8.755
7.191
4.908
7.826
6.025
7.763
7.666
4.916
7.961
6.159
6.364
5.78
8.251
6.491
5.673
5.911
7.465
4.812
5.574
5.44
6.691
7.6
6.389
6.652
6.41
4.488
4.154
5.441
6.269
7.062
5.386
4.309
5.895
5.0
4.254
5.999
5.082
5.755
3.939
4.326
3.753
4.398
4.17
5.213
3.797
6.2
3.831
4.765
5.434
6.294
3.925
5.126
3.832
5.822
4.968
5.522
4.525
4.816
4.188
2.747
3.026
4.335
3.412
4.147
4.315
5.851
4.165
8.268
4.482
3.92
5.361
5.207
5.694
4.847
4.421
7.331
5.362
2.926
2.909
6.353
4.728
6.652
3.307
6.22
4.599
6.908
5.8
3.795
6.087
3.902
8.348
4.167
6.45
4.239
6.078
4.332
7.593
3.786
3.977
4.961
4.804
5.749
5.737
5.103
5.596
6.447
5.284
5.859
5.495
6.739
4.438
5.276
7.112
4.022
8.26
3.92
6.64
5.013
8.394
5.189
6.455
5.701
6.149
4.569
6.362
4.542
6.498
5.216
4.155
6.711
5.773
5.524
7.792
5.363
6.84
6.456
7.691
4.574
7.537
4.33
5.133
4.708
7.357
4.763
6.379
4.849
5.765
4.897
7.22
5.301
7.019
4.407
6.41
5.913
7.107
5.813
5.278
4.907
4.425
4.651
8.961
5.699
6.655
8.155
4.443
7.492
7.989
5.363
5.662
3.847
5.876
4.573
4.505
5.008
7.158
3.553
5.249
4.614
4.492
4.006
5.478
3.934
5.877
4.724
3.899
3.971
5.563
4.187
5.179
4.999
4.032
5.285
5.489
5.819
5.175
4.267
5.156
3.925
5.715
5.033
4.373
6.034
5.012
6.079
4.653
5.753
4.031
5.198
5.425
5.274
5.368
5.627
5.397
6.024
6.607
5.463
6.838
8.459
8.51
8.228
6.259
5.671
8.211
8.096
7.536
5.869
6.299
6.906
7.197
6.722
7.731
7.912
7.234
6.24
7.684
6.089
6.923
7.604
8.383
8.108
6.577
6.558
8.13
6.674
7.362
5.632
6.154
7.214
7.034
7.715
6.787
6.458
5.798
7.44
6.072
8.368
6.428
6.22
5.504
6.242
6.177
6.152
8.661
7.961
6.713
6.284
6.187
7.333
7.38
6.196
7.28
8.421
8.843
7.99
6.681
6.154
7.583
6.607
6.39
5.963
6.623
6.713
6.233
7.168
6.512
5.722
5.172
7.349
6.985
6.986
8.015
8.169
5.933
8.034
6.25
7.198
6.277
5.661
7.842
5.328
5.987
8.598
7.619
7.171
7.979
6.289
7.471
7.352
7.381
6.958
6.515
6.522
7.46
6.42
5.591
5.611
5.449
4.516
4.319
6.154
5.301
4.334
3.907
4.005
4.322
4.803
6.373
4.723
3.81
4.704
4.683
4.135
6.1
3.601
4.777
4.128
4.426
4.276
4.743
4.702
4.828
5.07
4.939
4.783
8.531
5.23
4.933
4.053
7.918
9.477
5.829
5.335
7.551
6.487
4.583
6.768
4.932
6.672
4.334
5.784
4.958
5.984
4.147
6.187
4.453
6.067
3.988
5.81
3.945
4.275
4.663
4.77
4.78
4.34
7.118
4.897
5.732
4.214
5.512
5.224
4.515
5.235
5.317
4.656
5.008
5.427
6.721
4.169
4.628
4.161
4.468
3.976
6.077
3.889
6.127
3.906
4.708
3.913
6.31
5.465
5.82
4.938
5.744
5.676
5.197
5.984
5.963
5.811
4.482
5.248
5.733
4.977
4.917
6.147
4.989
6.69
5.97
7.042
5.373
6.605
7.077
6.881
6.41
5.53
5.579
7.71
5.704
6.463
6.348
5.568
6.343
7.232
7.407
8.596
6.663
6.61
7.275
7.733
7.176
7.672
7.323
6.697
7.608
7.194
8.495
6.13
7.204
7.892
9.367
6.479
5.391
6.275
7.336
6.726
8.03
5.282
6.528
7.424
5.181
6.176
4.981
6.684
5.557
5.69
5.807
5.9
6.287
5.572
6.056
7.104
8.274
7.118
5.36
5.816
7.582
6.43
4.444
5.854
9.366
5.66
5.187
5.77
4.509
7.469
6.116
5.69
4.581
4.599
6.948
5.662
5.487
7.486
5.772
5.709
6.006
5.735
5.089
6.47
5.976
5.206
6.692
6.4
6.787
7.124
7.328
8.241
7.204
7.524
6.92
8.754
8.849
7.542
7.903
7.273
6.513
7.046
7.087
7.126
7.065
7.057
7.175
7.141
7.14
8.25
9.33
8.06
7.702
7.931
5.007
4.863
6.208
7.197
6.238
6.811
5.578
6.429
6.546
7.597
5.926
5.852
6.108
7.153
6.788
6.205
8.082
6.638
7.724
9.331
7.256
6.44
6.469
8.829
6.386
6.684
6.572
8.64
7.711
7.722
8.853
7.827
6.188
7.103
7.921
6.953
7.754
7.848
7.578
7.073
5.532
7.477
7.397
5.605
7.493
8.719
7.2
6.894
5.631
9.035
7.4
7.703
9.746
6.61
7.016
7.819
8.346
7.996
5.892
5.174
7.598
7.966
6.662
8.846
9.571
8.131
6.514
7.592
9.542
6.466
7.141
7.52
7.595
7.487
6.142
7.523
7.473
6.638
6.615
7.791
8.406
6.556
7.775
8.828
5.722
6.645
6.262
7.313
9.1
8.271
7.001
8.826
7.229
5.519
8.259
9.036
9.034
6.445
6.634
6.603
6.734
8.702
8.856
8.273
7.372
6.911
8.522
8.65
8.109
5.94
7.389
7.201
10.077
9.855
8.34
8.934
6.416
7.051
7.208
6.758
7.219
7.333
7.906
8.218
8.085
7.036
5.454
6.779
7.823
8.57
6.397
5.5
5.395
6.725
6.053
6.341
6.949
7.02
7.095
6.868
6.429
8.945
6.233
8.437
6.942
8.761
7.82
9.275
7.416
5.748
7.544
8.345
6.374
8.66
9.345
6.633
6.921
7.008
5.805
6.211
5.869
19.37
8.494
6.984
7.745
7.905
7.46
6.474
6.546
7.378
7.266
5.73
7.714
7.005
8.319
8.62
6.431
5.608
7.087
7.542
6.826
7.072
5.975
7.511
6.078
6.018
8.276
7.014
4.965
5.487
6.692
6.557
6.529
6.276
6.125
9.13
6.737
6.221
8.021
6.831
5.597
6.223
6.721
5.559
9.068
7.273
6.876
6.215
7.746
6.423
7.278
6.196
7.097
6.593
8.306
7.191
8.44
6.89
6.233
6.52
7.035
7.846
6.959
6.337
8.559
6.705
7.005
5.729
6.652
7.121
7.314
7.776
5.641
9.522
7.504
9.821
8.575
10.945
6.501
6.806
5.366
6.594
8.019
7.548
6.793
7.728
8.871
8.983
7.738
7.818
7.598
8.118
8.602
8.277
7.723
6.715
7.745
7.913
8.697
7.368
8.472
8.876
7.379
5.697
5.141
5.458
8.82
6.66
7.02
5.921
7.899
6.767
6.122
4.288
5.622
6.053
4.891
5.338
6.812
6.407
5.54
6.137
6.516
6.799
7.239
6.89
6.11
7.07
6.607
6.562
6.543
9.415
7.488
6.445
6.663
8.969
6.357
8.074
6.987
8.121
9.129
5.4
7.414
8.909
7.345
9.052
7.79
6.969
9.468
8.815
6.57
6.39
7.049
6.853
8.66
6.845
8.113
8.137
9.165
8.099
6.955
6.913
7.024
8.729
6.078
6.171
7.758
7.93
7.153
4.866
6.111
7.441
4.197
5.028
5.306
4.925
5.734
4.017
5.464
4.13
5.029
5.622
5.988
5.282
6.326
3.928
5.918
4.065
5.068
3.156
3.771
3.948
3.417
4.537
2.744
4.517
4.471
6.602
3.983
6.038
4.956
5.361
3.648
5.126
5.092
5.599
5.756
5.751
3.177
4.776
5.684
5.115
4.461
5.668
4.664
5.15
4.851
4.759
4.429
4.396
4.473
5.363
4.649
4.11
6.677
4.388
3.874
4.769
3.885
4.904
4.453
6.231
4.59
7.154
3.421
5.079
5.753
5.211
5.152
5.331
5.509
4.209
5.207
5.374
6.252
6.575
5.357
5.424
5.897
5.96
7.595
4.882
7.386
7.081
6.205
6.258
6.347
5.922
5.752
7.633
6.796
7.752
6.187
6.026
8.222
7.419
7.335
7.658
5.837
7.041
9.197
10.363
9.323
8.468
8.274
7.431
8.618
7.011
6.529
7.792
10.075
8.608
9.169
8.288
5.866
7.317
5.288
7.948
7.358
5.589
9.457
9.284
7.106
9.045
6.029
5.895
6.705
7.523
4.866
6.252
5.496
7.431
4.578
4.541
5.381
5.377
6.526
4.355
4.224
5.424
4.326
5.545
4.938
5.627
5.176
5.374
6.573
5.096
7.031
7.04
6.385
5.193
5.903
5.719
4.355
8.413
4.608
4.887
5.879
6.601
5.472
6.074
7.571
4.908
5.679
5.286
5.726
5.179
6.376
8.012
4.631
3.682
5.455
4.456
6.467
4.996
7.027
3.956
7.054
4.388
4.92
4.903
5.846
4.74
6.675
6.29
5.29
7.306
4.417
5.265
4.575
5.652
4.944
6.559
3.33
7.269
5.881
8.233
6.018
6.057
6.585
4.573
5.134
4.481
6.304
4.001
6.271
4.673
5.355
4.099
4.271
3.8
5.219
3.529
4.154
4.802
5.134
4.175
5.078
4.362
5.079
3.815
4.034
3.813
3.749
4.262
4.426
3.656
3.704
6.161
4.696
5.332
5.354
5.54
4.176
4.319
7.826
5.523
7.589
5.806
6.919
5.945
6.169
4.774
5.711
7.89
5.91
6.28
8.065
5.391
5.347
7.157
6.631
5.753
8.351
5.81
5.3
7.309
6.786
6.882
6.789
6.173
8.699
6.908
8.029
8.685
7.948
9.484
9.297
6.542
6.617
8.031
7.351
9.578
7.396
6.893
5.838
8.494
7.003
8.479
6.604
7.076
6.561
7.749
6.684
8.511
7.178
7.61
7.175
6.605
7.36
9.1
7.742
6.691
6.675
7.206
7.694
7.365
7.279
8.988
6.761
8.647
7.716
7.085
6.833
7.464
7.151
7.793
6.551
7.592
6.487
5.355
7.155
6.625
7.329
6.121
7.545
6.73
5.789
5.76
6.05
7.249
9.171
6.658
5.373
8.268
5.79
6.418
4.854
5.933
4.651
6.556
7.897
5.024
5.041
6.394
6.983
5.433
5.786
6.178
7.57
6.553
7.795
5.381
5.448
8.057
9.334
5.249
8.55
6.15
7.602
4.861
6.468
4.469
4.181
5.705
5.643
5.89
7.492
5.217
6.027
4.443
7.964
4.938
7.74
4.548
5.394
3.853
5.789
5.096
6.414
4.476
5.121
5.298
6.887
5.374
5.284
5.732
4.608
4.739
5.31
6.352
5.011
7.647
6.277
9.139
6.105
4.7
7.935
5.325
5.773
7.061
4.09
4.423
3.665
4.581
3.255
6.303
4.875
6.419
3.498
6.103
3.337
4.047
4.514
5.15
3.774
5.291
3.708
4.184
4.333
3.826
3.342
3.972
3.579
5.122
3.441
4.582
5.852
5.222
5.782
5.699
5.707
6.08
4.998
5.035
5.867
5.158
7.533
7.3
4.818
6.797
7.067
6.192
7.202
5.506
5.715
5.169
7.621
8.661
6.572
6.231
7.005
6.129
6.471
8.419
6.284
6.724
7.081
8.208
6.943
6.945
6.995
7.997
6.95
8.829
9.585
6.197
7.761
8.982
7.835
6.475
7.36
8.488
7.722
8.908
7.863
6.199
7.542
7.778
8.63
6.429
8.356
8.255
10.319
8.983
5.402
8.428
5.536
6.985
9.268
9.017
9.007
8.543
6.657
6.947
9.202
8.443
8.856
6.888
8.179
9.268
8.864
6.016
8.732
7.597
6.269
7.19
7.076
7.901
5.869
6.106
6.541
5.742
5.89
6.652
5.178
4.928
5.124
5.843
6.038
4.38
6.035
5.212
4.696
5.638
6.242
6.87
5.69
5.797
7.031
5.633
5.794
5.762
5.826
5.476
4.706
4.849
6.158
5.281
6.179
7.533
3.983
6.015
4.228
6.947
5.588
5.82
4.502
8.444
4.39
7.123
5.202
5.568
4.427
6.712
5.964
4.928
5.505
5.625
4.927
4.706
5.347
5.246
4.693
5.232
4.873
7.343
9.115
4.608
6.979
4.581
6.384
4.965
6.733
5.935
7.972
4.764
6.371
10.348
6.447
8.376
5.728
6.486
4.794
6.547
5.658
4.956
7.604
4.585
6.762
5.274
4.945
4.722
6.691
5.071
4.565
7.324
5.415
7.651
3.959
5.091
4.969
4.722
4.849
5.671
4.303
5.622
5.421
4.649
5.963
5.526
5.898
5.941
6.191
5.287
7.345
5.298
5.81
5.711
6.128
6.888
6.608
5.413
6.513
9.154
6.261
5.457
5.305
6.42
5.039
5.701
8.386
8.138
5.353
7.613
7.752
6.453
7.976
6.407
7.599
8.047
7.345
7.518
6.713
6.597
7.286
8.29
7.644
8.753
9.009
6.637
7.063
6.476
6.91
7.566
6.02
7.072
10.476
5.478
6.848
6.58
5.952
7.498
7.908
8.189
8.553
8.044
7.283
6.809
8.47
8.353
11.13
9.748
9.674
8.104
9.79
10.8
5.837
7.304
7.513
8.453
9.582
7.584
6.351
10.918
9.096
7.178
6.865
10.695
9.876
8.286
6.958
7.086
6.59
9.899
7.068
6.181
6.732
8.512
8.008
7.468
8.809
6.698
7.237
6.763
7.267
5.973
7.198
7.717
7.019
7.099
5.861
6.768
7.833
8.188
8.755
6.906
10.021
7.872
10.408
5.69
7.708
9.218
9.722
7.703
5.461
7.672
5.729
8.264
7.014
6.227
7.318
6.76
6.755
5.808
5.928
8.309
6.759
6.472
6.921
6.193
7.418
11.691
6.168
6.495
6.927
5.138
6.913
10.873
6.628
8.227
7.814
5.934
6.288
6.727
7.79
6.416
7.254
6.467
6.636
6.799
7.129
7.07
9.131
6.799
6.322
6.266
5.751
6.666
6.684
9.087
6.997
6.603
7.598
7.232
6.733
7.479
8.409
7.073
7.072
6.8
6.587
6.483
6.488
6.748
6.505
6.228
6.267
6.874
7.941
7.389
11.113
6.866
6.541
5.101
7.151
7.764
6.532
6.872
6.907
6.212
8.001
6.582
8.369
5.78
6.748
7.552
4.994
5.944
6.754
5.123
6.461
6.935
8.212
7.286
6.939
5.38
7.471
7.057
5.42
6.83
7.922
5.91
7.066
6.127
7.015
7.537
6.478
5.835
7.773
6.53
5.535
6.558
7.547
6.509
6.271
7.719
7.805
6.654
5.167
7.198
7.108
6.885
6.862
6.184
8.084
7.597
8.972
5.723
6.962
7.984
6.913
7.219
6.325
8.177
6.769
6.584
7.181
6.817
5.907
7.399
6.762
6.538
5.395
7.08
8.376
5.391
6.803
5.492
5.851
5.75
6.298
5.552
5.118
7.275
6.724
6.225
6.883
7.865
7.617
6.301
5.177
5.634
7.257
6.65
6.228
6.914
7.075
5.911
7.414
6.324
7.04
7.493
6.876
6.891
7.486
5.988
6.746
8.786
5.822
6.596
8.839
7.896
5.016
6.402
6.101
7.052
6.544
5.593
8.566
7.006
4.982
6.563
6.413
8.012
7.416
6.053
7.175
5.741
6.847
6.597
6.318
4.976
6.617
5.73
6.808
7.905
5.194
8.207
5.217
6.153
7.113
7.234
7.673
7.649
4.98
5.494
5.504
6.852
6.029
7.124
6.874
5.449
6.855
6.819
6.868
4.933
7.274
7.775
6.722
6.416
6.415
6.505
5.609
7.719
6.692
6.497
6.977
8.133
8.105
6.937
6.671
5.485
7.134
7.339
6.543
5.381
6.739
6.919
6.51
5.551
6.092
7.989
7.155
5.156
6.721
6.721
6.866
6.473
5.606
6.703
6.814
6.986
5.739
5.893
6.768
6.677
5.438
5.09
8.044
7.469
7.571
6.735
5.716
6.927
7.145
7.014
8.441
7.465
7.301
5.549
5.696
6.562
6.333
7.097
7.028
7.217
7.449
7.552
7.511
6.246
6.863
6.592
6.275
7.084
7.379
6.268
7.099
5.544
8.975
6.343
6.81
5.335
5.892
7.519
7.18
6.504
6.75
6.629
7.071
5.693
6.25
6.838
6.44
6.71
5.308
6.32
7.587
8.953
7.085
5.056
6.076
9.728
6.656
6.866
4.969
7.372
8.431
4.991
7.083
8.166
5.02
6.925
5.7
6.437
6.437
11.163
7.627
6.343
10.442
6.694
6.7
5.635
6.946
7.25
6.204
6.763
5.345
5.668
6.312
5.369
5.769
6.351
7.031
5.352
5.648
6.385
5.317
8.419
10.673
7.371
11.336
5.648
6.702
7.164
6.439
6.141
7.9
7.218
7.132
7.242
6.894
7.394
6.684
5.927
7.25
6.954
6.16
6.757
7.384
5.725
6.99
6.165
6.701
6.869
7.607
6.441
5.027
6.853
5.176
6.232
6.01
6.666
6.924
4.833
6.705
5.153
6.887
5.962
7.187
8.028
4.984
5.615
4.936
5.057
6.788
6.522
6.585
10.326
6.122
9.151
5.002
6.322
5.109
5.463
7.485
4.898
5.419
6.249
5.616
4.661
6.69
7.003
5.475
6.621
6.52
7.385
7.071
7.247
7.484
6.138
7.937
7.287
7.755
5.945
8.016
7.604
6.275
5.992
8.991
6.583
5.321
5.788
5.28
7.12
5.408
7.004
5.773
6.03
5.241
5.644
7.811
5.038
5.404
5.36
6.79
5.077
6.948
5.123
5.091
5.216
5.523
5.756
5.802
5.7
4.858
8.127
5.749
6.909
5.058
5.633
4.773
5.929
8.374
4.813
7.099
5.44
8.42
7.239
6.03
7.624
6.551
4.433
6.559
4.92
4.516
5.513
6.224
5.359
6.065
5.784
5.439
5.993
8.393
5.496
5.924
7.484
4.482
6.233
5.511
5.584
6.761
6.061
6.256
6.562
5.892
6.945
6.961
8.07
6.017
6.475
8.779
6.47
5.064
7.497
7.641
9.549
10.082
9.662
9.076
9.455
7.698
9.08
9.122
8.052
8.832
8.807
11.127
6.11
7.386
10.317
5.331
5.54
5.824
7.785
5.676
9.179
7.644
7.298
8.091
7.652
7.721
7.709
7.139
8.346
7.783
8.195
8.032
6.819
7.787
7.681
8.767
7.003
7.519
8.033
8.085
8.432
6.524
10.198
5.547
6.784
5.924
7.077
5.476
8.581
8.015
5.264
8.972
9.893
7.863
8.104
6.92
5.039
6.349
7.433
5.412
6.635
6.758
6.229
7.281
5.659
9.619
8.153
5.164
5.389
8.706
6.114
6.234
6.981
7.853
6.746
7.31
8.032
9.307
10.353
7.881
7.895
6.126
8.7
6.017
5.873
7.389
6.549
6.478
6.724
6.186
7.247
6.302
8.324
5.076
5.415
6.669
8.754
5.444
7.371
6.698
5.388
6.507
5.425
5.305
4.994
4.76
9.061
6.272
5.179
6.029
7.142
4.756
6.165
4.431
5.889
6.118
7.55
6.801
4.458
5.405
7.125
6.483
6.973
4.337
5.585
4.927
4.851
5.454
8.259
7.676
7.56
6.936
7.409
7.546
5.827
7.53
8.537
6.333
6.512
7.165
7.062
9.064
6.406
8.175
8.357
7.659
7.926
6.338
11.353
6.077
8.648
8.359
9.445
8.143
6.5
10.652
8.504
10.08
8.171
7.495
8.01
8.284
7.608
6.751
6.929
6.112
8.434
6.763
6.343
7.288
7.928
6.835
7.873
8.779
7.251
5.557
7.585
7.776
7.779
8.145
9.012
9.319
9.243
7.989
7.292
9.31
8.598
7.703
6.489
6.725
7.876
9.614
9.095
10.775
9.203
8.501
9.111
9.325
9.877
10.175
8.332
7.285
7.264
6.403
7.314
6.643
6.759
8.369
8.042
7.588
6.27
5.319
5.478
4.4
5.075
6.01
6.457
5.453
5.952
9.066
5.046
8.398
10.363
6.11
8.778
5.13
5.907
5.301
7.831
5.755
5.573
4.985
6.278
7.485
4.972
4.624
9.027
4.397
5.532
6.114
4.447
5.565
5.619
5.363
3.636
3.934
4.77
3.802
5.539
3.462
6.794
4.865
5.666
5.829
5.563
4.99
5.742
4.01
5.273
5.625
5.61
5.456
6.172
5.763
6.35
6.117
4.843
5.962
4.572
6.488
5.398
6.195
6.698
6.198
5.519
6.406
6.625
5.9
7.651
6.643
6.049
7.148
7.647
6.201
6.244
6.45
7.387
7.374
5.414
7.911
7.345
8.265
8.042
8.635
7.364
7.095
7.71
8.731
7.79
8.474
6.832
10.506
8.737
9.684
9.743
9.576
8.322
7.953
8.617
8.159
8.935
8.509
10.456
7.471
8.77
12.246
8.111
9.779
7.857
5.672
8.789
8.518
8.579
9.309
7.396
7.486
5.763
6.805
6.356
4.914
7.052
6.518
7.385
5.469
6.896
6.766
6.485
6.957
6.115
5.034
6.806
6.753
6.969
8.024
6.887
5.44
6.516
9.146
7.349
7.681
7.464
5.708
5.037
7.15
7.49
6.215
6.628
8.735
6.855
7.962
6.186
7.177
8.098
7.542
6.671
5.378
6.984
7.265
6.904
6.421
8.041
7.72
7.436
6.067
5.893
5.624
5.931
6.382
7.195
5.547
8.647
6.094
4.896
5.057
7.373
5.222
5.88
7.305
6.963
6.888
6.442
7.168
6.853
6.21
8.553
5.955
7.664
8.152
5.137
7.134
5.127
6.546
7.667
7.414
7.141
7.177
6.919
6.415
7.644
5.552
7.711
8.944
7.704
7.276
5.942
7.612
7.956
7.353
6.266
8.902
7.687
6.223
7.164
9.054
8.528
7.842
7.857
8.339
7.58
9.746
9.37
6.516
7.479
10.389
8.238
8.12
5.313
6.899
10.365
5.931
6.597
6.396
5.123
5.669
4.493
5.181
4.432
4.509
5.86
4.454
5.358
4.244
4.589
4.275
6.394
6.654
4.28
5.226
5.13
5.524
5.599
4.526
6.692
6.203
7.758
6.389
6.117
6.611
4.681
6.486
6.624
4.957
6.116
7.343
6.747
5.971
5.285
6.064
5.139
6.073
7.544
5.442
7.253
8.058
8.229
6.724
6.602
7.035
7.346
6.626
7.444
7.394
8.453
8.048
8.923
7.335
8.228
6.796
6.393
6.863
6.045
5.32
7.006
7.302
8.159
9.279
6.91
9.487
7.184
7.889
7.347
7.252
6.063
7.036
6.763
7.421
6.064
5.404
6.537
6.245
8.136
6.004
5.662
6.094
7.195
4.941
6.111
6.961
4.805
4.476
4.523
4.818
6.51
5.273
5.036
6.735
6.442
7.865
5.208
8.808
5.725
6.675
5.14
6.397
6.825
3.651
5.085
5.079
4.28
5.734
4.283
5.492
4.682
5.902
9.086
4.898
8.775
6.337
5.12
4.766
5.967
5.506
5.654
5.882
5.61
4.994
4.702
4.47
5.636
5.294
6.264
4.64
4.889
5.469
6.858
4.131
5.671
4.312
4.713
4.295
4.463
5.009
6.238
4.515
4.926
4.408
5.606
5.967
4.612
7.261
5.339
5.852
7.288
4.23
6.12
4.25
6.557
5.675
7.083
5.531
5.937
4.898
5.605
4.805
5.812
4.305
