0,-2,-1,-1,-1,0,0,1,0
0,-2,0,0,-1,-2,-5,4,4
0,-3,-2,-2,-1,-2,-3,-2,-1
0,1,0,-2,0,-1,3,-4,-4
1,1,-1,-1,-2,-2,1,-1,-1
1,-2,1,-1,-1,-1,-2,1,3
5,-2,-2,0,0,-2,-5,-1,0
5,0,-2,0,-2,0,2,-3,-3
7,2,-3,0,0,-1,1,0,0
7,1,0,-2,0,-1,-3,3,2
20,5,1,-1,-1,-1,-3,-2,2
20,-2,-1,-2,-2,-1,2,-3,-7
44,-2,-3,0,-1,-1,0,0,0
44,-1,-1,-1,-2,-1,-4,3,3
45,-2,-1,-2,-1,0,-1,-2,-1
45,-1,0,-1,0,-1,-1,-6,-4
49,-4,-1,-1,0,-1,-1,-2,-3
49,0,-1,-1,-1,-1,-3,-1,1
65,-2,-1,-2,-1,-1,1,-3,-2
65,-2,0,-1,-1,0,-1,-2,-3
66,-4,-1,-1,0,-1,1,-1,-1
66,-1,-2,-2,-1,-1,-2,3,0
88,1,1,0,-1,-3,0,-2,-1
88,-1,-1,-1,-3,-1,0,-1,-1
89,-1,0,-2,-2,-2,-1,0,-2
89,-2,-1,1,0,-2,-2,0,-2
110,1,0,-3,-1,-1,-1,0,1
110,0,-1,1,1,-2,0,-1,-1
112,3,1,0,-2,-1,0,-2,-1
112,-2,-2,-3,-2,0,-1,-1,-1
156,-5,-1,-1,1,-1,-1,-4,-1
156,2,0,-1,0,0,0,-1,0
164,2,1,0,-1,0,-2,-2,0
164,-1,-2,-3,-2,1,2,-7,-6
164,0,-1,-2,0,0,1,1,-4
164,-2,-1,-2,-1,-1,-5,5,2
165,-1,-2,-1,-2,-1,-3,-1,-1
165,0,-1,-1,-1,-1,3,-5,-7
177,-2,-2,-1,1,0,2,-4,0
177,-3,-1,-1,-1,-2,-2,3,4
177,-4,0,0,1,-1,-4,1,-1
177,0,1,-2,-1,0,1,-4,-3
185,-4,-2,-1,-2,0,1,-2,-11
185,1,1,-1,-1,-1,-1,4,9
199,-2,-1,1,-1,-1,-4,1,-15
199,2,0,-1,-2,-1,1,-2,11
206,2,1,0,-1,0,2,-2,-4
206,-2,0,-1,-1,0,-3,-1,-4
221,-4,0,-2,-2,0,1,-1,10
221,3,-1,0,1,-1,2,-2,-4
228,2,-2,-2,0,-2,-2,-3,1
228,-1,-1,-1,-1,1,-2,0,0
245,-1,-1,-1,-2,-2,-3,-2,2
245,-3,-2,-1,-1,-2,0,0,-7
252,1,0,-3,0,-1,-1,0,4
252,-1,0,1,-1,-2,-2,-2,-3
253,1,-1,-2,-1,0,0,0,1
253,1,-2,0,-2,0,-1,-3,-3
274,2,-1,-1,-2,-1,0,0,-3
274,-1,0,-2,0,0,-3,3,1
275,-1,-2,-3,-1,-3,2,-2,0
275,0,0,1,3,1,0,-5,5
290,-1,-2,-2,-7,-3,2,3,2
290,1,-1,0,-1,-5,-7,-6,-5
296,-4,-3,-3,-2,-1,2,-1,-30
296,2,1,1,0,0,2,20,62
322,-4,-1,-2,-2,-3,-6,-8,-10
322,-1,-1,-2,-1,1,2,3,-12
322,2,0,-2,-3,-4,-8,-15,11
322,0,0,0,0,-1,1,1,-18
335,2,1,2,4,5,5,6,0
335,-2,-2,-2,-4,-4,1,1,4
342,-3,0,0,2,1,2,0,-32
342,1,-2,0,-3,-2,-2,-8,28
365,-2,0,-1,-1,-6,-5,1,-2
365,-1,-2,-2,0,1,-2,-3,-6
365,-1,-3,-2,-1,2,1,1,8
365,-3,0,-2,-1,-1,-1,-7,-20
371,3,-2,-1,-1,0,-1,2,0
371,-3,-1,-1,0,0,-1,-1,8
372,-1,-1,-1,0,-2,-3,-1,12
372,-3,-2,-2,0,-2,0,-6,-28
394,-2,0,-1,0,-2,-1,-2,-15
394,-1,-1,-2,0,0,-1,-3,11
395,-1,0,1,-4,0,-1,4,15
395,-3,1,-2,-1,-2,-2,-8,-12
409,-2,-3,0,0,-2,0,-3,14
409,-2,-1,0,-1,-1,-1,-4,-18
416,1,-1,0,-1,-3,-3,-12,1
416,1,-1,0,-2,0,3,8,10
433,-1,-1,0,-1,1,1,1,-7
433,-4,-1,0,1,-1,-2,-5,-4
433,-1,-3,-1,-2,-2,-1,-1,-43
433,0,-1,0,-2,-2,0,1,6
454,-2,-3,-3,-1,0,-1,-3,-16
454,-1,-2,-1,-1,-2,-1,1,10
455,-3,-1,-1,-2,1,0,1,-36
455,1,-2,-1,-1,-2,-1,-6,-6
477,-1,-1,0,0,0,-1,-1,11
477,0,0,0,-3,-2,-3,5,-5
478,-3,-1,-1,1,-1,1,1,12
478,1,-1,-3,-1,-1,-2,8,3
499,1,0,-1,-1,0,-5,-8,48
499,-1,1,0,-1,2,1,3,-11
500,0,0,0,1,-1,-4,-1,33
500,-1,-2,-2,-3,-1,0,0,-18
522,0,0,-1,-1,-2,3,0,-11
522,0,1,0,0,-2,-5,-2,-3
522,2,-2,0,-2,-1,2,3,28
522,-6,-2,-1,0,-1,-1,-8,-44
529,7,0,2,0,0,-1,0,55
529,-1,0,-2,1,0,3,8,47
536,1,1,-1,-1,-1,-1,-2,-19
536,-4,-4,-2,-1,-4,-8,1,21
552,-5,-1,-2,-2,-5,1,0,-106
552,7,4,3,3,4,5,0,-18
552,6,2,0,0,-2,-3,14,28
552,-1,-3,-2,-3,-1,-1,-1,12
575,-5,-3,-3,-1,1,1,3,-45
575,-1,-3,-3,-2,-4,-5,-2,-9
575,-1,-3,-2,-3,-3,-1,-14,-9
575,5,1,-1,0,0,3,-4,19
596,2,3,3,1,2,-1,5,53
596,-2,-3,-5,-2,-3,-3,-4,-15
597,-3,-2,-2,0,1,0,-4,-19
597,-1,0,-2,-1,-2,1,9,26
620,-3,0,0,0,-2,0,2,10
620,-5,-1,-1,-2,-2,-4,-15,-4
621,-6,-3,-1,-1,-4,-7,-11,-22
621,5,4,1,0,2,6,8,22
642,1,-3,-2,-2,-1,-2,1,22
642,-4,3,-1,0,-2,1,4,-48
643,10,5,1,1,2,0,-6,63
643,-8,-2,-1,0,0,2,0,-58
665,1,0,-2,1,-3,-2,-9,-7
665,-6,-4,0,-1,-1,-2,1,-2
666,3,-9,-3,-1,0,-2,1,-31
666,2,2,-1,-2,0,-3,-8,-48
671,10,16,3,-2,-3,-5,-15,-17
671,-11,-5,-3,-4,-3,0,16,46
672,5,4,0,3,4,5,1,27
672,-13,-12,-4,1,0,2,-8,-12
694,8,-1,-3,-5,-4,-5,-5,-25
694,2,-2,1,-3,-1,-3,-5,-14
695,-1,24,2,-2,-5,-3,1,-27
695,7,1,1,7,6,3,6,59
717,-13,-15,-15,-7,-3,-3,-4,-6
717,-2,-5,0,-5,-3,-2,2,-11
718,-6,-5,-1,-2,-4,-1,-4,-19
718,13,9,3,-4,-3,-5,-11,-1
732,-7,1,1,4,2,6,20,-3
732,2,-3,-1,1,2,-1,-4,23
732,-6,-9,-3,0,2,-2,-2,-18
732,-3,-1,-6,-5,-5,-3,-11,-1
762,-9,-8,0,-2,-1,0,-3,-50
762,9,2,-1,-1,-1,-1,16,59
763,-5,-3,-2,-2,-1,1,-6,-52
763,0,-3,0,-1,-1,-1,-7,-29
776,-9,2,3,-1,1,3,-5,-40
776,-1,-1,-2,1,-2,-5,-3,8
777,-5,-2,1,-2,0,-3,2,24
777,1,-3,0,-1,0,3,-3,-36
800,-6,-8,-1,-1,-1,-1,-5,-34
800,-5,-2,-3,-3,-4,-6,-16,-31
801,11,4,3,3,3,4,16,39
801,-6,-3,-2,-4,-2,-1,-4,-45
822,3,0,3,4,2,-2,4,12
822,-2,0,-1,0,-3,-4,-9,-44
823,-4,-5,-5,-6,-1,-3,-7,1
823,-2,1,-1,-5,-5,0,0,16
837,3,0,-2,-2,0,-2,2,17
837,0,3,1,6,4,2,5,11
837,0,-1,0,2,2,3,2,9
837,-3,-4,-4,-11,-5,-2,-3,-4
852,-1,-5,0,6,0,-3,-3,16
852,1,0,-2,-7,-5,-3,-2,15
852,15,7,1,0,3,4,11,62
852,-3,-3,4,2,3,0,-1,-36
874,-9,-2,-2,0,-1,0,-5,-42
874,8,3,0,2,1,9,4,-12
875,-9,-5,-6,-4,-6,-10,-10,-13
875,0,-2,-4,0,-5,-12,-2,18
897,-3,-4,-4,-4,-2,-1,-1,-19
897,1,-1,0,1,1,2,4,3
897,-2,-3,-1,0,2,7,3,-25
897,1,-2,-17,4,2,0,-1,8
920,-1,2,16,0,10,-2,-5,9
920,-4,-1,-2,-13,-17,-1,-3,-31
921,-3,-4,-2,-10,-3,-2,-1,32
921,-14,-5,-4,-5,-3,-5,-12,-110
943,14,6,-5,0,2,5,24,104
943,11,0,2,5,8,-2,-3,-7
943,-11,-2,0,4,0,-3,-15,-123
943,3,2,1,1,-1,2,14,108
956,1,1,1,-1,-2,0,4,16
956,-6,-1,0,2,0,-2,-12,-25
958,-10,-5,1,-4,-7,-3,-4,-69
958,12,4,-7,4,10,5,16,24
971,1,1,12,21,10,-1,0,17
971,1,11,2,24,-9,-3,-5,-2
972,-6,-16,-10,-39,-23,-4,-10,-30
972,-10,-4,-5,5,11,3,-2,-20
994,18,-2,-4,-11,-12,-4,9,89
994,-15,-4,-5,7,14,-6,4,33
995,14,12,4,10,5,7,6,-4
995,-5,-1,5,0,-2,0,-4,-26
1034,-16,-4,-8,23,21,-1,-9,-56
1034,-2,-2,-1,-38,-19,1,-4,-61
1035,5,2,-4,-7,-8,0,7,66
1035,-6,-4,2,-4,2,-2,-6,-17
1036,3,-4,-8,-16,0,-2,-4,2
1036,-1,-2,1,32,21,5,3,-13
1039,-8,-6,-8,-42,-37,-7,-14,-11
1039,-6,3,14,2,17,-2,-3,-16
1063,-5,1,4,-15,-14,-3,-3,7
1063,10,-1,1,36,-1,-2,-2,-41
1063,-14,-3,5,33,32,6,-19,-87
1063,34,4,-6,16,19,6,45,127
1085,1,6,24,12,-33,-6,-13,-128
1085,-4,-7,-14,-25,-16,-8,0,2
1086,-19,-12,-25,-14,27,1,-14,-23
1086,21,29,40,52,-9,17,18,8
1091,-1,-1,-10,-80,8,-5,1,-69
1091,16,-14,-4,45,5,5,4,34
1092,-29,-13,-9,41,7,-13,-24,-66
1092,-22,-2,21,37,30,9,-21,-110
1121,19,8,-28,-23,-35,-1,31,127
1121,25,7,0,-35,-5,4,28,-18
1123,-21,-20,22,-25,9,5,-18,-16
1123,6,6,10,22,-30,-23,-17,-71
1152,-22,-20,-35,29,0,-6,-23,-95
1152,-13,10,22,-20,16,4,-15,-89
1152,2,-5,3,48,14,-6,20,73
1152,11,3,23,-64,-11,3,0,77
1175,-16,-4,-44,-32,-20,-2,-6,-32
1175,-26,-10,-18,16,25,-9,-14,0
1175,15,6,-4,-76,-51,9,10,7
1175,-31,-13,6,-13,3,-15,-28,-83
1182,13,4,25,61,20,1,18,54
1182,-12,-7,0,-53,3,9,-4,-23
1182,21,-5,15,68,17,8,10,-33
1182,16,-5,-75,-49,14,12,3,0
1211,-2,-3,37,-26,-58,-21,-17,-32
1211,3,4,45,44,16,13,10,9
1213,4,14,-13,-10,-7,-38,-14,47
1213,-14,-28,-22,-12,-35,5,-8,-69
1221,8,-7,2,38,63,12,10,56
1221,-7,11,1,-16,-8,7,-3,-53
1221,14,-4,-4,-42,-23,14,13,38
1221,-10,-8,-33,6,-34,-43,-13,2
1242,-6,9,0,-53,-33,-14,-10,-17
1242,-5,-18,-22,29,9,7,1,27
1243,-10,3,12,30,54,15,8,4
1243,12,-26,-14,-43,-26,27,13,11
1265,-11,-1,-9,16,10,-8,-16,-41
1265,34,53,1,58,5,-11,-6,28
1266,7,-2,-22,-9,-8,26,1,-43
1266,-23,-22,-32,-10,-3,-10,-1,-2
1289,-26,1,20,-10,-26,-8,13,27
1289,-4,-43,-13,-18,-1,-45,-39,-1
1290,45,21,23,-1,-2,7,18,52
1290,33,47,42,25,32,26,6,5
1310,-16,-6,-17,8,31,41,6,2
1310,-34,-53,-12,-25,-27,-37,24,62
1311,4,26,-87,-23,-31,-24,-34,-106
1311,6,42,47,3,8,-12,13,22
1317,-8,-71,-97,-29,0,13,-2,-16
1317,27,63,105,2,-6,22,8,29
1317,2,55,42,42,16,14,-8,-26
1317,-18,-54,4,-70,-14,-11,1,20
1340,8,44,127,126,25,-8,-12,-2
1340,22,29,-3,-2,6,-3,1,-14
1341,6,-19,-51,-65,-36,42,8,22
1341,-15,-31,-28,17,26,-32,20,27
1362,-11,-27,64,67,-1,-21,-22,-49
1362,0,-24,-95,-55,-53,-25,-6,18
1362,4,59,127,29,6,-27,-19,1
1362,-22,-14,-61,77,45,34,-5,-26
1376,14,-30,11,-67,-3,25,27,49
1376,10,50,-5,31,42,19,10,-7
1377,-5,-34,-128,-71,-40,-19,-14,-19
1377,-36,-68,-27,-77,-55,-33,-13,38
1400,28,79,94,70,10,-17,25,1
1400,0,-8,55,87,16,42,-17,30
1401,-20,-26,-2,16,40,0,4,-33
1401,34,52,51,8,-3,11,9,12
1422,-4,-10,9,11,-3,13,-25,-46
1422,-18,29,-58,-40,-3,-36,-12,-5
1423,-6,-29,-6,-1,-10,20,31,40
1423,3,11,-46,-28,7,14,-9,-39
1437,-1,1,-60,-28,1,-1,-4,-23
1437,-18,-41,27,19,-11,-6,-1,-6
1437,-8,-17,-2,-15,-2,-33,-4,-2
1437,7,15,-15,-46,-33,-1,-14,-36
1459,5,-5,-21,-18,10,-5,13,28
1459,-6,-5,51,58,19,27,-3,1
1460,-8,-3,8,42,5,-15,-15,-61
1460,2,5,27,16,-13,31,10,-36
1482,12,20,-26,-44,-14,-40,1,3
1482,8,3,-23,-38,17,24,1,-69
1483,0,8,27,7,-9,1,12,85
1483,-8,-6,9,27,10,-9,-20,-25
1497,-6,6,-27,-6,7,-11,0,17
1497,-11,-21,-29,-42,-22,2,9,-2
1497,-21,-32,21,20,10,35,-5,-11
1497,27,63,59,44,9,-60,-1,29
1520,23,-1,-29,-21,-14,-9,1,31
1520,-13,-23,-17,-45,-32,-1,-14,-26
1521,-28,-20,11,4,19,8,11,5
1521,47,9,6,36,24,53,13,20
1543,13,34,10,11,4,-22,-4,57
1543,-12,-29,-44,-48,-19,11,-6,-23
1543,6,-12,-4,8,-18,-53,1,13
1543,-28,12,27,20,0,8,-15,-100
1565,-12,9,-17,0,19,14,-1,23
1565,24,6,-9,-7,13,15,26,26
1566,1,-2,9,-26,-31,-29,-10,-37
1566,-10,-22,-12,-29,-47,-39,-13,-1
1587,-8,-26,-18,-41,-9,34,0,-66
1587,-16,5,-21,-7,21,-2,-2,15
1588,17,26,11,43,30,30,5,11
1588,-8,-9,1,27,13,1,-2,3
1610,-1,-1,5,24,6,13,1,5
1610,-7,4,2,-56,-23,-42,-1,4
1611,-11,-75,-39,-68,-71,-35,-7,4
1611,-3,26,4,24,24,37,-1,15
1617,-58,-9,-31,5,22,-14,-32,-118
1617,99,16,14,34,28,19,56,50
1617,32,37,59,22,-22,11,0,-55
1617,-19,-37,-12,-13,-16,-25,-11,-18
1640,-11,-18,-18,-31,-4,-1,4,-30
1640,-47,-4,6,40,23,3,-24,-52
1641,7,9,1,47,38,55,17,75
1641,9,-8,-21,-2,15,-21,21,91
1662,-67,-9,-16,-36,-63,-39,-13,-57
1662,70,6,45,-4,-38,-61,-30,43
1663,-2,-3,-14,-41,-11,1,15,76
1663,-11,10,-2,6,51,32,8,25
1677,19,-16,-23,9,0,32,12,-68
1677,-112,-10,25,30,17,19,-1,-95
1677,62,28,-7,-18,11,-20,-3,3
1677,29,-12,-10,-2,-26,7,-8,-128
1707,-3,-3,5,-1,19,16,11,67
1707,-16,-3,-14,-10,-25,-7,-12,-75
1707,7,12,14,46,89,42,1,-108
1707,-25,-2,9,-6,-76,-36,5,-68
1730,20,-12,-7,-17,10,-54,-18,98
1730,5,17,-2,12,0,-22,-22,-44
1730,-13,-10,-21,18,41,39,10,27
1730,8,0,5,11,39,20,14,63
1736,3,1,6,8,-11,25,1,-37
1736,-14,-11,-13,-42,-33,7,-6,1
1751,-15,-1,6,30,10,-23,-5,-46
1751,4,9,-3,20,22,34,8,71
1758,10,18,11,-21,-25,-26,-11,-29
1758,-1,-36,-37,8,-52,-39,-12,20
1760,-12,-1,-5,-52,-38,-3,-12,0
1760,-11,-9,-9,14,31,10,1,-75
1782,17,13,23,-1,11,-6,14,77
1782,8,-6,-9,27,22,12,11,18
1782,-21,-3,-15,-6,-8,-12,-15,-46
1782,-6,1,6,-26,-4,20,-4,-10
1796,11,0,-8,53,16,4,8,6
1796,4,2,-5,-65,-29,-14,-11,-12
1804,-12,2,5,22,10,-9,2,1
1804,-2,1,2,2,26,29,10,34
1818,12,14,7,28,27,20,-4,-29
1818,-7,-13,9,-4,-1,0,6,13
1827,-3,7,15,34,-20,-26,-6,-17
1827,-2,-9,-14,-8,-27,-50,-20,3
1843,-6,-18,1,-4,-19,-5,2,-17
1843,-2,15,4,-7,39,29,6,-1
1844,9,-5,52,36,28,-16,4,21
1844,-16,-5,22,-8,-24,-17,-9,-12
1865,0,15,-19,0,12,13,-7,-17
1865,8,-4,10,7,-23,17,1,22
1866,-4,-14,-23,-13,30,-1,10,-7
1866,-7,0,-14,-44,-26,16,2,-5
1888,5,3,18,56,-11,-27,3,-1
1888,-13,1,-18,-6,-25,-34,-33,-90
1889,-8,-6,17,57,44,16,11,52
1889,21,0,-18,-79,-47,7,1,37
1902,-10,10,-2,-6,42,30,-5,-98
1902,51,-1,0,3,24,5,31,74
1904,-27,2,-6,-55,-94,-32,-24,-75
1904,-33,-26,-19,31,40,0,-13,-106
1916,46,7,13,18,38,-21,40,108
1916,0,7,15,-18,-45,-8,-12,-62
1925,-17,-1,-51,-34,-8,31,-16,-91
1925,18,-9,5,49,35,-14,22,52
1938,2,-17,-23,-44,-6,-13,2,19
1938,2,0,-6,-21,-66,-2,0,-24
1948,-14,-16,-17,-27,13,-9,-10,-6
1948,-37,0,-5,12,12,-13,-28,-123
1963,23,2,22,75,57,42,45,-46
1963,-9,17,-1,6,7,14,-14,-58
1964,3,19,-4,-69,-67,-10,-5,-63
1964,13,-21,-5,-21,-19,-46,10,99
1976,18,-8,3,-20,-11,15,1,-67
1976,-59,-14,-7,40,67,23,-25,-128
1985,50,22,18,63,21,19,29,-49
1985,-15,-6,-4,-18,-53,-28,-23,-94
2008,-11,-10,6,-35,-23,6,-5,75
2008,-6,-22,-3,30,58,8,1,7
2009,-8,-3,-3,27,29,16,-5,29
2009,15,17,10,-22,-56,-31,12,18
2030,-21,-9,-25,-47,-90,-52,-49,-50
2030,-8,1,1,-9,18,3,9,35
2031,1,7,14,3,38,47,7,64
2031,13,11,1,46,62,30,17,-16
2036,-15,-1,0,0,-40,-31,-11,-10
2036,8,0,5,29,19,-15,9,54
2052,4,-4,-19,-77,-64,-6,-2,-3
2052,1,5,4,-1,27,14,2,11
2059,-17,2,0,0,14,30,-13,-22
2059,-1,-4,1,8,34,24,19,26
2066,7,15,2,47,-7,-50,-6,-8
2066,-6,-9,-11,-55,-49,-30,-16,-56
2082,3,0,3,-29,19,27,26,90
2082,6,6,-3,37,-4,25,-1,-50
2084,-15,-15,-19,-31,-8,4,-2,-29
2084,-4,1,3,9,8,-25,-8,-26
2105,-18,-3,-5,37,10,-4,-25,-69
2105,33,26,5,-6,13,41,31,99
2107,17,-19,-1,-8,-11,-9,18,17
2107,-9,12,6,36,23,-4,-12,-46
2119,-8,-2,8,28,-17,-5,-16,-79
2119,8,-14,-44,-104,-63,-22,-15,-34
2142,-27,-6,18,34,26,1,-6,70
2142,17,8,5,-9,23,33,17,51
2143,-6,-3,-18,17,19,7,-6,-37
2143,-13,-2,34,92,56,-3,6,-47
2149,15,-10,-17,-32,-73,-41,-16,47
2149,-11,-4,-15,-24,-40,-24,-14,-18
2165,-3,-5,-4,7,19,26,6,-38
2165,-2,15,6,28,37,54,2,53
2166,-4,-12,-1,-30,-48,-84,-7,-58
2166,2,8,17,42,13,-12,-7,57
2178,-12,-20,-16,-13,7,4,-11,-29
2178,9,-10,-39,-2,26,8,22,-32
2187,11,21,31,30,20,47,9,5
2187,-1,8,10,-67,-37,-8,-5,-11
2203,6,3,-1,-25,-15,-10,-4,16
2203,-16,-13,-4,-12,-16,-32,-13,-20
2204,-10,5,-22,11,19,16,3,-2
2204,8,-7,6,8,8,4,9,1
2224,1,-3,0,-5,11,19,-3,17
2224,-5,-1,22,-5,-31,-33,-15,1
2226,4,17,-21,-44,-15,-5,-5,-23
2226,-10,-8,12,21,19,6,-5,-31
2239,2,7,5,0,0,2,10,43
2239,-3,-8,-1,-14,-21,-5,-9,0
2247,-21,-19,-25,-7,26,-3,-12,-71
2247,26,11,19,10,0,17,19,84
2261,29,18,-19,21,8,-18,9,65
2261,-26,-12,21,-38,-61,-34,-15,-33
2268,-6,-13,5,1,28,6,-1,-3
2268,0,2,-16,21,18,18,4,7
2285,16,19,35,28,0,0,-2,-33
2285,9,8,-23,1,10,10,5,50
2287,-5,-10,-9,-8,1,-3,-4,-5
2287,-4,0,4,2,-13,-2,-2,-5
2307,-6,-6,-1,-12,1,-3,-1,-35
2307,0,-2,-7,-15,-9,-22,-12,-2
2309,0,0,3,11,7,16,2,-9
2309,-3,-7,-15,-24,13,16,8,-62
2329,-2,-1,36,14,-19,-3,-1,66
2329,-7,1,13,25,10,-2,-16,-76
2331,5,-2,-11,-2,-18,-19,0,-3
2331,2,3,21,-7,7,5,9,74
2352,-15,-11,-17,-62,-31,11,-1,-67
2352,1,3,-1,3,17,15,3,47
2353,2,3,22,45,14,-18,-2,-22
2353,-3,10,-6,-51,-29,-4,-4,-10
2358,-5,-6,-16,-4,-22,-21,-1,30
2358,5,-10,11,27,16,5,2,12
2375,-3,0,-6,-32,10,7,-4,-58
2375,4,-1,-1,41,-3,2,9,81
2382,-10,-4,5,21,5,-5,-4,-69
2382,5,0,-15,-27,-20,8,2,-27
2384,-1,16,15,22,28,11,7,17
2384,-12,-9,-10,7,-29,-20,-16,-24
2404,-4,-4,-11,-17,13,-6,4,24
2404,5,2,-2,-21,-4,-3,7,-88
2407,2,-2,-2,9,7,22,4,-27
2407,0,-2,-5,10,-14,-16,-5,-1
2419,-6,0,-11,-25,13,-1,-7,-1
2419,-8,-5,12,-30,-17,-2,-2,-31
2427,4,1,-1,32,-12,-7,-3,89
2427,1,-6,-4,12,5,-2,-1,22
2443,-4,1,4,9,-4,-10,-6,-57
2443,-6,9,-26,-32,3,2,-1,44
2444,-2,-16,4,-4,10,17,7,-14
2444,-4,1,12,44,27,5,-3,-41
2464,-2,5,-6,-39,-21,-11,7,57
2464,9,5,-9,-8,-11,-9,-1,68
2466,-3,-4,-2,9,39,7,-3,-57
2466,-2,-3,-2,-18,-47,-2,-3,-24
2478,-11,-5,-1,-14,-18,-11,-11,-48
2478,0,1,3,8,5,-13,-6,-17
2493,0,2,1,11,3,-4,-1,24
2493,-5,3,-2,4,19,18,4,-25
2502,-2,-17,-16,-4,0,12,-1,-8
2502,6,9,3,7,1,1,3,37
2503,10,2,25,49,11,-9,-5,35
2503,-2,7,-29,-78,-42,-18,-10,-38
2525,-4,-11,2,7,7,7,3,-6
2525,-7,-8,-1,1,-7,-8,-12,-28
2526,-4,2,-4,-5,16,2,-4,-91
2526,3,1,-9,5,19,14,12,51
2539,3,7,10,16,-26,-11,-1,-29
2539,-8,-19,-2,8,6,-17,-3,-13
2546,-7,1,1,-1,2,7,-6,-19
2546,-1,-13,-5,-8,-11,-15,-11,-22
2562,3,5,1,2,2,2,1,5
2562,-1,1,6,7,8,8,0,-3
2563,-4,2,-5,14,-17,0,4,19
2563,-5,-3,5,20,16,4,1,6
2585,-2,-6,-1,-16,2,-2,-7,-51
2585,6,5,-3,5,-19,0,2,-43
2587,4,-7,18,-24,-24,-3,0,17
2587,-4,9,-29,-35,29,-5,-3,-43
2607,6,-10,0,-46,-41,-8,-9,-18
2607,-7,-1,-4,19,9,-4,3,7
2609,5,8,-5,-14,-6,-4,0,5
2609,-5,-8,20,22,8,7,1,-8
2621,1,8,4,19,9,10,0,-5
2621,0,0,-9,27,27,-3,-1,-22
2629,-1,-8,-5,-29,-32,-5,0,0
2629,-8,-3,-8,-32,-25,-10,-8,-45
2645,2,-9,0,28,36,6,12,56
2645,0,1,16,18,-12,8,-7,-23
2646,10,0,-11,-9,11,3,10,96
2646,5,5,2,20,4,-2,0,-19
2659,-5,6,2,-7,7,13,0,-9
2659,-3,-4,-5,-15,-10,-13,6,36
2675,-2,-1,-20,-28,-16,-5,-4,-23
2675,-1,-9,3,15,4,-6,0,7
2682,0,2,-4,16,-6,2,-7,16
2682,-2,-1,6,-31,4,3,-2,-9
2698,2,-11,-27,-18,-11,0,3,-13
2698,4,-3,16,28,24,16,4,-14
2705,4,8,5,17,5,-10,0,30
2705,-3,-8,-7,-11,-14,-10,-12,20
2707,-5,-2,0,-8,-8,9,0,-19
2707,2,1,-4,-19,-3,-10,2,-1
2719,2,-1,1,20,10,0,-4,-36
2719,-1,-7,-9,-33,-12,-2,0,15
2727,0,14,7,52,24,2,3,15
2727,-12,-6,-11,-19,3,14,-3,-13
2741,1,5,23,-21,-22,-25,-3,-30
2741,6,-4,-4,28,-4,1,-1,-19
2749,-9,-6,1,-16,-4,-6,-4,-17
2749,-4,-9,6,22,6,1,2,0
2765,0,4,-11,-3,0,12,3,19
2765,-2,3,8,18,32,14,4,-1
2766,-7,-4,1,-15,-24,-10,-9,-82
2766,9,4,-5,29,0,-14,4,34
2779,5,-1,-24,-67,-35,-2,-3,32
2779,1,3,8,30,16,17,2,-15
2787,-4,0,3,-5,-5,-11,-4,-14
2787,-1,1,5,-2,14,2,-1,3
2803,-2,-18,-11,19,4,9,-2,-9
2803,-1,6,-3,-29,-28,-12,-2,15
2804,2,-2,-2,-1,9,-2,-1,17
2804,2,3,5,12,5,9,3,16
2824,-10,-4,-7,-6,-5,6,0,-65
2824,-3,1,2,12,6,-2,-7,-13
2825,4,0,8,21,28,-10,4,69
2825,-1,-5,-18,-84,-69,-15,-6,-21
2838,-12,2,11,25,21,2,-12,-83
2838,7,-7,3,15,18,8,11,3
2848,3,5,-1,-15,-22,1,-4,-25
2848,-2,-1,-9,12,17,-2,0,-5
2862,-6,0,-9,-16,5,2,-7,5
2862,-10,-9,-3,-20,-22,-14,-7,-22
2863,9,6,10,7,2,7,10,10
2863,-1,-2,2,37,11,8,1,-4
2884,3,2,2,7,23,0,4,30
2884,-2,9,20,-29,-17,-2,-3,1
2887,0,0,3,-36,-24,-9,-2,-8
2887,-8,-7,-12,-4,-3,7,-8,-72
2899,16,-2,-1,20,17,-4,15,95
2899,-1,3,-11,7,-22,-11,-6,-32
2908,-1,5,1,7,5,7,1,-44
2908,5,-1,17,-12,10,9,2,7
2930,-6,0,-7,12,-4,-5,-2,12
2930,-7,-6,-1,-18,0,3,-2,-6
2932,0,-1,-3,-15,-13,-4,0,31
2932,-1,5,9,38,17,-5,-2,16
2952,-2,-3,-13,-24,-25,-2,-2,-23
2952,-5,0,-1,8,14,9,4,54
2953,-2,-4,1,-3,4,1,-4,-44
2953,0,2,-2,4,9,-7,-1,8
2958,-4,-2,0,-8,-20,-7,-3,8
2958,1,3,0,-7,5,7,-4,-20
2968,-8,-8,-11,-18,-4,0,-2,-9
2968,2,0,-1,3,2,-15,3,76
2982,-6,-3,0,6,-15,-2,-7,-53
2982,5,0,-2,12,12,-2,6,75
2983,1,0,-3,11,17,13,3,0
2983,3,3,17,27,-8,0,5,-11
3004,-2,2,9,49,16,4,0,2
3004,-4,-1,-3,-36,-17,-11,-9,-35
3006,-5,-10,1,15,0,-7,-6,20
3006,-9,0,-8,15,11,9,1,-86
3028,12,13,4,2,4,6,1,31
3028,-8,-13,12,-53,-49,-16,-14,-52
3029,3,0,-10,12,1,-7,-4,-36
3029,-2,-1,-8,-1,24,6,2,-14
3050,-5,-6,-4,-33,-14,-7,-2,9
3050,-1,4,-3,17,16,0,-4,-5
3052,2,1,2,5,7,17,3,-39
3052,6,-1,8,44,4,-12,5,102
3065,4,1,4,-44,-33,-14,-6,-41
3065,4,-4,-20,0,3,2,5,29
3067,-9,-2,11,53,34,1,0,-18
3067,5,16,9,-27,-29,8,-2,-14
3087,2,0,1,-20,12,3,4,45
3087,1,-12,-8,1,-5,-9,-6,-28
3089,-4,-2,3,35,14,-3,-2,-8
3089,-4,-7,-4,-49,-28,-2,-4,-16
3102,-7,-8,-8,19,19,1,-5,-41
3102,1,15,1,25,4,5,9,-8
3104,10,-4,-21,-67,-21,5,-3,46
3104,0,-5,3,5,-8,-5,-8,11
3125,-6,-2,-4,-2,0,-7,-3,-18
3125,-10,1,12,51,47,15,0,-53
3127,4,-5,-26,-47,-45,-9,0,41
3127,-4,-6,-10,-1,-6,0,-3,-21
3147,1,5,0,-2,4,-7,0,5
3147,0,-15,0,38,31,15,4,-9
3148,-7,9,21,-39,-30,-16,-6,-13
3148,4,-4,-10,7,-18,-7,1,16
3162,-4,-7,-9,14,10,6,-1,-15
3162,2,6,5,8,4,1,0,8
3168,-4,-2,0,-9,-5,12,7,17
3168,1,-1,-1,-5,13,-8,-4,17
3185,2,2,-21,-22,-28,-23,3,61
3185,1,-10,-9,-2,-5,5,-1,7
3186,-4,-5,4,30,23,4,3,1
3186,-6,-1,-4,15,14,10,0,-62
3207,6,5,9,-28,-14,10,2,64
3207,2,1,-9,-17,-23,-14,-8,-22
3208,3,-4,15,24,8,-8,3,50
3208,0,-1,-4,-3,4,-8,-3,-14
3222,-5,-4,9,16,7,10,5,-27
3222,3,4,-5,-29,-11,-2,-6,-9
3230,-1,-4,-2,1,4,-2,-1,-3
3230,-3,14,11,10,-4,-6,-3,-11
3252,5,-5,7,17,30,15,8,-15
3252,-2,0,0,-4,-12,2,-2,0
3254,-2,1,-6,6,-1,-13,-7,-13
3254,-5,-5,-7,-24,-3,-1,1,-7
3275,-5,0,12,48,15,-2,-4,-25
3275,0,2,-26,-27,-24,-1,1,4
3277,-4,2,12,-18,-7,3,-2,11
3277,-2,-9,-3,-2,-1,0,2,-26
3281,-2,1,6,14,17,-3,-4,-30
3281,17,7,2,28,14,7,12,89
3289,-5,2,-7,-19,-28,-9,-5,-16
3289,-1,-4,-1,-6,-11,-7,1,22
3305,-7,-3,-8,-14,1,-3,-7,-15
3305,-6,-3,10,14,22,5,2,-22
3306,4,2,1,-20,-1,4,1,-1
3306,1,-3,-5,-6,0,6,0,12
3328,-1,-2,3,-6,-21,-8,-3,-7
3328,-5,-4,8,13,14,-1,-9,-34
3329,-1,-1,-2,16,-5,1,7,69
3329,-1,-1,-8,-9,0,6,3,10
3341,2,1,7,28,0,-11,0,-4
3341,-9,-1,-7,-39,-26,-13,-2,41
3348,9,-1,-4,25,19,5,-1,-10
3348,2,0,-7,-33,-7,-2,3,59
3372,0,1,11,42,42,12,2,1
3372,1,-3,9,-68,-43,6,-6,-24
3374,-4,-4,-18,9,-4,-16,-5,-21
3374,-4,-4,-6,-22,-11,-18,-8,3
3395,-12,-3,-3,-8,-10,-5,-10,-31
3395,12,7,2,12,14,4,11,15
3396,-19,-4,-1,-2,11,18,-5,-31
3396,18,-2,11,20,26,1,4,-6
3402,-6,-1,-8,-30,-39,-2,-10,1
3402,-8,-2,0,-1,-3,-9,2,-15
3425,-19,-5,2,8,-3,-3,-3,-33
3425,16,8,-7,24,22,8,10,48
3426,-4,-7,-15,-40,-27,-9,-14,-23
3426,-7,-6,-5,26,14,1,1,-9
3428,-16,1,10,31,1,-17,-8,-22
3428,3,-4,-8,-51,-34,-7,-5,-108
3447,22,8,11,3,29,11,6,27
3447,-28,-3,-13,-14,-32,2,-8,-82
3448,21,-2,1,9,23,1,4,64
3448,57,13,5,26,25,7,27,-34
3461,-38,-9,-14,-60,-52,2,-23,-67
3461,19,1,1,-3,19,-14,7,23
3475,68,19,8,18,15,23,13,24
3475,-52,-15,-10,-27,-38,-23,-17,-40
3484,19,6,7,50,7,1,8,-14
3484,-36,-15,-3,48,21,-3,-16,-55
3487,13,3,3,-70,-41,7,21,83
3487,-46,-12,-5,-11,10,12,-17,-47
3507,47,17,9,37,18,-5,11,59
3507,-1,3,3,-11,-1,-12,-10,-25
3508,-45,-23,-6,-4,9,-2,-4,-41
3508,-11,6,9,26,16,19,-1,-23
3529,-2,-1,-3,-9,-12,-14,-6,10
3529,5,-1,-14,-58,-38,-2,-1,41
3531,11,-8,3,-4,5,2,-4,-42
3531,-20,6,1,30,5,1,0,2
3551,-8,-11,-20,-45,20,-3,3,16
3551,23,9,15,0,-6,5,2,27
3554,-28,-6,-1,38,-3,2,-11,-57
3554,4,-5,-1,-17,-2,-18,-6,41
3568,11,-2,6,7,-5,3,10,17
3568,-5,-13,-10,-27,-21,-3,-10,-17
3569,-3,5,4,21,39,-1,2,-44
3569,8,8,3,-9,6,-2,-4,-9
3581,-14,-25,-33,-102,-87,-15,-10,-21
3581,26,20,8,32,23,14,10,48
3590,3,4,-6,-24,-6,-14,-14,-28
3590,13,-10,0,-17,-14,6,6,29
3605,-23,-22,2,41,36,8,4,-24
3605,15,47,8,7,3,-1,-4,-3
3606,1,2,-4,-15,-7,-8,-4,26
3606,5,3,-4,3,-6,-1,1,22
3627,-9,-6,4,10,-1,-2,1,5
3627,-5,-21,-6,23,24,-2,-6,-48
3628,18,10,1,-10,-37,-4,8,106
3628,-22,-6,-6,-37,1,3,-4,-16
3649,-23,-2,-13,6,5,-11,-11,-61
3649,11,-8,3,-38,-29,-15,-4,31
3652,-10,-2,-7,5,-4,-6,-7,-30
3652,-8,-12,1,-3,-5,0,1,9
3672,-3,3,4,49,47,18,5,12
3672,-14,-6,-6,-39,-23,2,-8,-60
3673,5,-4,-3,-20,4,-1,4,38
3673,8,12,0,8,-32,-11,-5,12
3695,15,12,6,15,18,-5,0,-2
3695,-42,-19,-3,10,7,0,-9,-57
3696,9,3,9,44,17,31,1,-20
3696,7,-1,-2,15,13,-20,-1,-22
3701,6,3,-11,-39,-51,-14,-4,82
3701,-18,-12,-7,-15,-6,-32,-4,-7
3718,-13,-7,-7,-10,4,10,0,-15
3718,35,9,13,48,33,32,10,70
3725,-9,-2,-3,13,16,-10,-5,-42
3725,11,-4,-1,-34,-26,14,5,32
3726,-3,1,-6,19,22,-10,-1,-13
3726,-2,5,10,8,-53,-21,0,1
3747,0,-8,-10,-22,16,18,5,11
3747,7,8,0,21,24,12,-2,-9
3762,4,5,0,2,-4,-12,2,43
3762,-20,-4,1,16,4,-3,-1,-32
3763,14,2,1,3,3,7,0,-22
3763,5,-3,-3,-23,-19,-8,-3,50
3770,-20,-9,-2,9,9,16,1,-62
3770,17,-1,-9,-4,-4,-5,0,69
3785,7,8,4,-12,-23,-34,-9,-73
3785,4,1,5,23,28,16,4,14
3791,-10,-7,-7,-14,-30,-16,-11,-38
3791,-9,2,0,-15,23,12,5,-2
3807,-7,3,5,9,-7,2,-1,-13
3807,0,-6,0,20,8,-2,5,15
3809,1,2,-7,-16,-17,-6,0,-3
3809,3,-2,5,20,28,2,-4,-25
3830,-1,-1,10,-5,8,13,5,32
3830,8,7,-5,6,-3,2,0,-3
3832,-1,-2,5,3,4,-7,-2,-12
3832,-10,-8,-6,12,6,-2,0,13
3844,-6,-4,0,-3,-15,-5,0,7
3844,9,6,-6,6,-3,-4,-6,-35
3851,15,22,9,-6,8,6,4,46
3851,2,3,-3,-4,5,7,-3,-35
3867,5,10,7,2,15,18,11,13
3867,-11,-11,-19,-14,-44,-33,-11,-1
3868,-3,3,-1,-26,-12,-27,-11,-36
3868,-6,-9,1,6,4,10,-1,12
3882,-2,-2,-1,0,16,14,6,28
3882,1,4,6,9,31,38,7,-14
3890,1,-9,1,-7,-23,-27,-7,-48
3890,-10,-1,-11,-12,-24,-8,-5,-6
3905,-7,-14,-13,-28,-25,-15,-7,-17
3905,7,8,6,10,30,5,-7,23
3911,-4,-7,1,24,19,12,1,-2
3911,0,4,12,12,3,4,6,-10
3927,-5,-6,-2,7,-6,1,2,10
3927,0,-3,-4,0,-21,-7,-2,-16
3934,3,-2,-4,-21,3,-11,0,84
3934,-9,-2,8,21,11,19,9,-38
3941,5,9,2,1,24,9,5,59
3941,7,-10,4,-3,-23,-21,13,4
3950,-4,-1,-6,18,-11,2,1,-4
3950,-9,11,20,39,2,3,2,-75
3972,16,-9,-28,-36,-8,6,9,79
3972,0,-4,-3,-7,30,12,-8,19
3974,-2,-7,-5,2,-3,26,5,11
3974,1,-4,-6,-10,-6,-90,-4,2
3995,-8,-8,10,16,-14,9,-19,-33
3995,3,20,18,19,9,8,43,16
3996,-4,-7,-4,12,15,2,-15,-20
3996,2,-4,-13,-48,-27,8,-6,27
4018,-4,4,10,37,35,-1,-3,-22
4018,0,-7,-11,-20,-29,7,-3,24
4020,-5,1,-3,-44,-8,1,-4,-35
4020,0,-3,-7,-1,7,1,4,9
4047,-17,-2,7,8,-28,-34,-28,-93
4047,22,5,22,56,42,20,13,54
4049,3,5,-18,-24,-17,-2,1,-30
4049,-2,-8,-19,-41,-14,3,-5,2
4063,-5,-7,6,15,17,-6,3,-19
4063,-8,1,-6,-18,8,4,-15,-14
4064,-11,-12,-2,1,-25,-10,-10,-28
4064,14,10,6,18,3,2,18,47
4068,-10,-11,-22,-17,1,12,-4,-40
4068,-3,2,6,-31,-47,-45,-8,-45
4095,4,19,19,29,28,25,4,-37
4095,-7,-7,3,14,28,20,-5,-19
4095,7,3,0,12,11,10,16,56
4095,-17,-17,-20,-2,-7,-25,-17,-7
4098,-3,-6,-14,-17,-6,-14,-15,-70
4098,0,-7,-2,-14,-9,3,5,66
4107,8,9,1,3,-10,-2,3,5
4107,-8,-7,-6,-21,2,14,-12,-51
4109,1,3,20,45,3,16,7,21
4109,-8,-9,-20,-48,-29,-33,-6,-31
4130,3,9,7,5,14,11,2,14
4130,0,2,5,36,4,5,-3,-30
4132,-3,-3,3,20,15,22,-5,11
4132,4,-5,-11,-42,-12,-22,6,60
4144,-9,1,-4,-16,2,-5,-5,-43
4144,0,2,8,22,-8,-3,-6,31
4158,2,-20,-9,-38,-12,-14,-5,49
4158,5,17,6,24,17,40,5,-27
4167,9,2,4,-37,-8,-38,-13,-10
4167,-6,-2,-14,-14,24,37,9,1
4169,-10,-13,-8,5,-19,-21,-3,-6
4169,1,2,2,-12,-24,-23,-13,39
4190,9,22,3,8,7,8,5,-4
4190,-2,-13,-2,-24,-17,-2,-9,8
4191,6,8,-1,15,12,-6,2,-41
4191,-2,-7,0,2,27,40,1,21
4204,-2,-2,5,9,-11,-28,1,-8
4204,-9,-6,-10,2,-19,-16,-18,3
4219,-8,-11,-13,-30,-42,-19,5,10
4219,-10,-10,2,-1,-4,7,-11,-82
4227,8,11,13,39,34,20,6,65
4227,2,0,-1,-2,4,9,16,-15
4229,-12,-1,0,0,10,-18,-15,-46
4229,-3,-5,-1,0,-4,2,3,-12
4250,-12,-8,7,19,-1,11,-5,-40
4250,7,2,-13,-11,-9,-11,-4,-32
4252,9,5,7,12,2,9,4,61
4252,-4,2,-1,-23,-3,-2,4,-65
4264,-10,-7,-6,29,-3,-22,-6,50
4264,-3,-7,-2,-16,-8,6,-1,-41
4273,16,6,-1,-15,-1,0,3,24
4273,2,5,8,12,17,26,4,-7
4295,13,-3,-20,-18,-19,-8,17,62
4295,-3,1,4,6,17,6,-12,-13
4297,2,5,-5,-20,-9,1,17,5
4297,-10,-6,5,25,-20,-31,-14,-8
4325,2,-7,12,0,8,19,-6,-63
4325,7,3,-12,-33,-6,-6,2,61
4326,-13,2,9,32,28,21,17,-40
4326,5,-11,-20,-40,-22,-3,0,2
4328,-7,1,-2,-8,-13,-4,-38,-40
4328,8,1,10,5,-2,-9,27,66
4349,-4,-3,2,12,46,-11,-26,-4
4349,-7,-4,4,20,-29,7,16,1
4350,-4,-4,-13,-13,-9,10,3,-8
4350,-2,5,6,35,32,17,16,-15
4386,-2,-3,2,-15,-17,3,-22,-56
4386,5,-3,18,29,-2,-50,-12,34
4387,-16,-3,-30,6,3,9,29,20
4387,4,3,1,3,-1,-13,-20,13
4388,9,19,-6,-17,4,36,29,51
4388,-7,-6,6,73,44,17,-23,-6
4393,-6,12,4,-53,-58,-17,-21,-74
4393,-9,-18,6,29,21,-28,20,-15
4394,13,24,25,20,-20,13,-1,60
4394,4,15,-41,-55,-13,5,17,-51
4407,1,2,20,19,15,-10,7,17
4407,-7,-1,1,39,19,-17,-7,-2
4409,-3,-21,-8,-25,-30,1,-3,-44
4409,-8,-2,29,54,19,-15,15,-57
4430,-8,0,15,32,55,9,-8,-43
4430,17,7,-12,-68,-61,33,11,8
4432,-7,-18,-5,22,32,2,15,7
4432,-10,5,-2,26,6,1,-38,-52
4452,6,-9,-5,-38,-31,-20,-7,-19
4452,-3,10,7,31,44,10,14,-69
4454,-10,-4,-4,-9,-5,-7,-36,-46
4454,-5,-5,-10,-1,-43,-26,10,93
4483,5,-5,-10,-3,27,-7,14,11
4483,8,13,18,14,-14,24,-18,37
4484,1,-7,-22,-25,-25,-38,-2,38
4484,8,10,-1,-33,8,20,-23,-33
4505,5,5,8,2,-1,-5,-12,1
4505,-6,-6,10,46,-13,-4,13,19
4507,-12,-4,-28,-77,-13,-30,-12,-3
4507,9,0,3,-18,19,5,17,32
4508,-2,-7,-4,-9,1,31,-2,-39
4508,-9,-6,-5,-26,2,14,-20,-2
4529,-8,0,12,10,0,-16,-11,-19
4529,-6,-4,-5,9,22,20,35,-19
4530,-15,-5,-8,-17,-33,-9,-8,60
4530,3,5,2,20,20,-15,-31,-8
4532,6,0,36,53,4,-8,32,115
4532,1,0,-38,-92,-52,-9,-3,-18
4549,8,1,14,29,12,2,-17,14
4549,-6,-6,-8,-2,19,4,21,-42
4551,3,2,12,38,7,27,-3,-49
4551,3,6,0,-11,1,-6,0,-23
4572,-7,4,5,-8,-6,2,20,-37
4572,-2,-4,-10,-30,-7,-14,-54,-67
4574,5,2,1,6,21,12,30,15
4574,-13,-6,7,21,23,8,-11,-79
4595,8,10,15,49,-51,-21,9,-11
4595,-6,-14,-22,-27,16,-1,-3,-8
4596,0,-10,-12,16,7,17,2,-31
4596,-5,-1,10,-19,-8,-20,-10,17
4617,-4,-7,-6,-11,11,7,20,14
4617,6,2,13,16,12,28,19,77
4619,-9,-4,-17,-19,-3,6,1,-46
4619,1,-9,8,16,-28,-54,-31,6
4639,-5,-3,-7,14,32,18,-11,-36
4639,4,8,33,1,-34,-20,10,2
4642,-1,-1,-42,-112,-35,2,-4,-23
4642,-2,-2,-3,39,31,20,-14,6
4647,-5,-5,-1,-40,-13,-6,17,67
4647,-10,-2,-2,-5,-25,-21,-9,4
4649,3,10,-10,54,24,-4,-7,-46
4649,12,4,-15,-31,-21,8,21,40
4670,2,1,0,7,11,3,-19,-10
4670,3,-1,-7,-33,1,-12,2,-41
4671,-1,-1,19,52,-9,-10,-3,34
4671,0,1,-6,-15,16,6,11,-3
4692,-3,-7,-4,27,7,16,-7,-39
4692,-6,-6,-12,-7,-18,2,1,-25
4694,-3,-2,5,-4,8,-6,-4,-21
4694,-14,-8,9,35,14,-2,-16,17
4706,28,-10,-3,-3,-21,-1,32,83
4706,0,17,0,3,9,-2,-16,6
4715,4,-2,4,-1,-10,3,14,23
4715,-6,-4,0,-1,0,4,8,1
4730,8,0,-2,-25,-3,-11,-11,14
4730,-1,-1,12,52,39,12,10,13
4731,-3,2,-21,-82,-49,-6,-7,-81
4731,9,7,7,3,13,7,11,-1
4760,-5,-7,-3,-9,-9,-29,-24,-29
4760,0,3,-3,6,-2,-3,0,-25
4761,2,4,16,29,22,3,-4,-21
4761,-1,-1,-1,-18,-9,10,7,74
4767,10,4,-6,2,13,10,28,23
4767,-2,-6,-9,-18,-13,-13,-19,48
4781,2,-5,15,14,15,-12,1,50
4781,1,1,-33,-21,-34,3,6,-16
4791,-7,0,1,-7,6,6,-17,6
4791,-5,-7,-10,-21,-9,3,5,13
4792,1,-1,0,7,7,8,10,-6
4792,10,-5,12,20,4,-19,-3,4
4804,-8,-6,-6,-8,-1,-4,-15,-49
4804,-8,-5,-10,-17,-17,-3,-3,-65
4829,5,-6,3,7,2,-7,6,86
4829,-11,1,10,22,31,9,-10,-77
4829,-10,2,2,11,-11,2,-12,-71
4829,15,-3,-9,-32,-15,-2,7,6
4834,-3,-2,-5,-3,-10,-5,-1,-1
4834,-4,-5,-5,-16,-19,-13,-9,-7
4849,-7,-1,-2,-10,11,1,-5,-29
4849,-11,-6,-2,-23,-23,5,0,-47
4858,6,5,0,-8,1,1,1,15
4858,15,3,6,8,7,2,1,24
4872,2,3,0,-1,7,-2,13,77
4872,6,0,3,29,7,13,11,-23
4874,-3,-1,-2,-3,-4,-10,-10,-15
4874,-10,-6,-1,-6,-11,-12,-6,-4
4895,1,0,-5,-1,-2,0,-13,-97
4895,0,3,5,15,9,1,11,64
4897,-3,1,-7,6,11,14,0,-23
4897,1,-1,1,-15,-12,0,10,-9
4918,-6,-6,2,-16,-18,-16,-18,-64
4918,-5,-6,-9,0,-7,-12,0,55
4919,-12,-1,6,7,9,1,-5,-38
4919,2,3,0,-21,-2,6,6,-5
4940,3,1,-5,-3,2,5,-4,-3
4940,-2,-1,6,3,3,-1,-9,-36
4941,-8,-5,-1,4,-3,-7,24,16
4941,10,1,-1,2,-2,-4,-8,6
4946,-6,-5,-7,-7,-10,-13,-15,-8
4946,5,7,6,10,15,14,21,-7
4961,-2,2,2,2,-4,-1,-21,-47
4961,-6,-2,-1,7,5,4,0,8
4970,0,-1,-3,-3,-1,-3,3,-4
4970,-1,-6,-4,-1,-1,0,-8,-4
4971,2,1,0,-3,-3,-6,7,11
4971,-4,-2,2,1,-7,-5,-14,-33
4993,0,0,0,0,0,2,-3,46
4993,-8,-4,-2,-3,1,-3,-8,-88
4994,1,0,0,0,-3,1,5,62
4994,-7,0,1,5,6,3,0,-62
5008,1,-2,-5,1,0,4,5,59
5008,-4,-1,-1,0,2,-2,12,2
5009,3,-2,0,-1,-1,-4,-15,3
5009,-6,-1,0,1,-5,-3,-21,-6
5037,3,1,-1,-2,-1,4,33,47
5037,1,-4,-4,-3,-4,-7,-13,-19
5039,2,0,-2,-1,-4,0,1,18
5039,-4,-1,0,3,2,-1,5,15
5060,1,3,2,3,3,4,-14,-66
5060,-2,-2,0,0,0,0,-6,-22
5061,-1,-1,-1,-3,-3,-10,7,18
5061,-2,-2,0,-1,-2,-4,-4,-7
5067,0,1,-1,-1,0,5,3,10
5067,-2,-1,0,-2,-2,-2,-4,-39
5081,-2,-1,8,2,-1,-2,-10,-38
5081,1,-6,-9,-5,2,1,6,16
5090,0,12,1,1,0,1,-2,-13
5090,-2,-2,-3,-2,-4,-8,-10,-1
5091,-1,-1,0,0,0,2,2,-10
5091,3,-2,0,1,0,0,7,19
5112,-4,-3,0,0,-2,-1,-4,5
5112,1,-2,-1,-1,0,1,2,14
5114,1,1,0,-1,-1,-7,-12,-26
5114,-2,-2,0,2,-1,3,7,15
5126,0,-6,-2,-3,-5,-4,4,-20
5126,-4,-4,-1,-1,-2,-4,1,11
5174,0,8,-3,-3,-2,-1,-2,1
5174,3,-1,0,0,0,4,-4,-12
5174,-7,-10,0,0,4,7,-14,19
5174,6,-2,-2,-2,-4,-5,16,22
5177,-1,0,-3,0,0,0,-3,-6
5177,0,1,0,-3,0,-1,14,4
5180,-1,-2,0,-2,0,-4,-10,-13
5180,-3,-6,-3,0,2,-2,-5,14
5182,-2,-2,-3,-1,-1,1,3,-10
5182,-3,-3,-1,0,0,-1,-3,-6
5203,1,-2,-3,-1,-2,-3,1,4
5203,-2,2,0,1,1,2,5,2
5204,2,1,1,1,-2,1,-3,-7
5204,-4,-4,-2,-2,-5,-7,0,0
5218,1,-1,0,0,1,1,-5,5
5218,1,0,-1,-1,-1,-1,10,4
5219,-3,-3,-4,0,0,3,1,-5
5219,2,-1,1,0,0,-2,-7,8
5232,0,-1,-1,-1,-1,0,-2,-7
5232,-1,3,-1,-1,0,1,-5,-5
5239,-2,-5,-1,-3,-2,-3,4,5
5239,-1,0,-1,0,0,0,-6,1
5246,-1,2,-2,0,-2,-3,3,-3
5246,2,2,0,-1,0,-1,-5,0
5255,-2,-4,-2,-2,-1,-2,2,-1
5255,1,1,-1,1,1,-2,-4,1
5270,0,0,-2,0,0,3,3,-2
5270,-1,-3,-1,0,-2,-2,-2,3
5271,-3,-3,-1,-2,-3,-2,-1,-3
5271,-1,-1,-1,0,-1,0,-3,-3
5292,0,0,-1,-2,-2,2,1,-2
5292,-4,0,-2,-3,-1,-3,-3,-2
5293,2,-1,-1,-2,-1,-4,1,0
5293,-1,0,1,-1,0,1,-4,1
5315,-2,-2,-2,0,0,-2,0,-3
5315,-1,-2,0,0,-1,-2,-3,1
5316,0,-1,-3,-1,-1,-1,1,-2
5316,-1,-1,-2,-1,0,-2,-4,-1
5337,0,-1,-1,-1,-2,-1,-1,-3
5337,2,1,-1,0,-1,0,-3,0
5339,2,-2,0,-1,-1,-2,0,1
5339,-1,0,-2,-2,2,2,-1,-1
5359,-4,-2,-2,-2,-2,0,-12,-5
5359,-1,2,0,-1,0,-2,6,4
5361,-2,-2,-1,-1,0,-2,-1,-2
5361,1,0,0,-2,-1,0,-2,-2
5366,0,-1,0,0,-1,-2,-1,-2
5366,0,-3,1,0,-2,-2,-9,-2
5382,-1,-3,-2,-1,-3,-2,-3,-2
5382,3,-1,-1,0,-2,-1,-5,-2
5390,-1,-3,-2,-2,-3,2,-1,-2
5390,-5,-2,-3,-3,-1,-5,-7,-3
5391,-3,0,-1,0,0,-1,-3,0
5391,-1,-1,-4,0,0,0,0,-2
5412,0,0,-2,-1,-1,0,4,0
5412,-1,-1,-2,0,-3,-2,2,1
5414,-2,-1,-2,0,-3,-2,-2,-1
5414,-3,-1,-2,0,-2,-1,-3,-3
5426,0,-1,1,-1,-2,0,-2,-2
5426,-4,-2,-1,-1,0,-1,0,0
5435,0,-2,-3,-1,-1,-2,-3,0
5435,-1,-3,0,0,-2,-1,0,-1
5450,0,0,-1,-2,0,-2,2,-2
5450,0,-2,0,-1,-1,-1,0,-1
5452,-2,-2,-1,-1,-2,-3,2,1
5452,-1,1,-1,-2,-1,-2,0,1
5473,-3,-2,-2,-2,-1,-1,0,-1
5473,-2,-1,-1,-1,-5,-2,2,1
5474,-2,-2,-2,0,-1,-3,1,0
5474,0,-3,0,-2,-2,-1,-1,-2
5486,-1,0,0,0,1,-3,0,0
5486,-2,-1,0,0,-1,0,1,1
5495,1,-2,-3,-2,-1,-2,2,-1
5495,-1,-1,-1,0,1,-1,-5,-3
5516,7,2,0,-1,0,-1,1,0
5516,-1,0,-2,-2,1,-1,-1,0
5525,-1,0,1,-2,-2,0,-1,0
5525,-1,1,-3,0,-2,0,-2,-3
5532,-1,-1,-2,-3,-3,-2,-1,-1
5532,-2,-1,-3,-1,0,-3,0,-1
5534,-1,0,1,-1,0,0,3,1
5534,-1,0,-1,-2,-1,2,-2,-2
5546,-1,-3,0,0,-1,0,-3,-3
5546,0,-1,-1,1,-4,-1,-1,1
5554,-6,-4,-2,-1,0,-3,-2,-1
5554,2,0,1,-1,0,-1,2,1
5569,0,-1,0,-1,1,-1,-1,0
5569,-4,-1,-1,-2,0,-2,-1,-3
5572,-1,0,-2,-1,-2,-2,-1,-1
5572,-1,-3,-2,0,-2,-3,-4,0
5592,-3,-3,-2,-1,-1,2,1,-1
5592,-1,-1,1,-1,0,0,2,0
5594,-1,-1,-1,-1,-2,0,-3,-1
5594,-1,0,-1,-2,-3,0,-2,-1
5615,-3,-3,-3,0,-2,0,-1,-2
5615,-1,-2,-1,-1,0,0,0,0
5617,-3,-1,-1,0,1,-1,-2,-2
5617,-1,-1,-1,-2,-1,-2,-2,-3
5637,-5,-2,-1,-1,0,-1,-1,-1
5637,6,1,-1,-3,-3,-2,0,2
5638,-1,-1,-1,0,1,-1,0,2
5638,-2,-1,-1,-1,1,-1,-2,-3
5659,1,-1,0,0,-2,-1,-2,0
5659,-3,-2,-2,-2,0,-1,-1,-1
5661,2,2,-1,-2,-1,-2,-2,0
5661,-1,-3,-1,-2,-2,-1,-1,-1
5665,-2,0,0,-2,0,0,0,-3
5665,-3,-2,-1,-1,-2,-2,-1,-1
5683,-2,-2,0,-1,-1,-1,0,-1
5683,-1,-1,0,0,-1,1,-3,-1
5689,2,1,-1,0,-3,-1,0,-1
5689,-1,0,-1,0,-2,-3,0,-1
5703,-4,-2,-1,-1,-2,2,0,-2
5703,-2,-2,-2,-1,0,0,0,0
5712,-3,-2,-1,0,-2,-1,-2,-2
5712,-1,-1,-1,0,0,-1,-2,1
5714,-1,-1,-2,1,-2,-1,0,-1
5714,-2,-1,-1,0,-2,1,-2,-3
5726,1,-1,-1,-2,0,0,-2,0
5726,0,-1,0,-2,-2,-1,-2,-1
5751,-1,-1,0,0,-1,-4,-1,-3
5751,0,0,1,-1,-1,2,4,2
5752,0,-1,-2,0,0,-1,-3,-3
5752,-4,-1,-1,-2,0,-1,-1,2
5756,1,0,0,-1,-2,0,-3,0
5756,0,1,-1,0,0,-2,-2,-3
5772,-1,-1,-1,0,-3,0,0,1
5772,-1,0,-1,-1,1,-2,-2,-3
5774,1,0,-2,-2,0,-2,1,0
5774,-2,-1,-1,-1,-1,-2,-3,-3
5794,0,-2,-1,0,0,1,1,1
5794,0,-1,-1,-1,-2,-2,0,0
5797,-2,0,-2,0,-2,0,-1,0
5797,3,-1,-1,-1,0,-1,-1,-1
5810,-5,-2,-1,-1,-1,-1,-4,-3
5810,1,-2,0,0,-1,-3,1,-1
5812,0,0,-1,-2,-1,-1,0,-2
5812,0,-2,-2,-2,0,-2,-1,0
5839,-2,0,-2,-2,-2,-1,1,-4
5839,-2,-1,0,-1,-1,-2,1,0
5842,-1,-1,2,-1,1,-3,-1,-1
5842,2,2,-1,1,-1,1,-1,-1
5846,2,1,1,-2,1,1,1,-2
5846,-1,1,0,-1,-3,-1,-2,1
5894,0,-1,-2,-1,-2,-1,-1,0
5894,-3,-2,-1,-1,-3,-1,-1,0
5895,1,0,-1,-2,-2,-1,0,-2
5895,-1,-3,0,-2,-1,-1,-1,-2
5900,0,-1,-1,-1,-3,-2,-2,-1
5900,-2,-2,-1,-3,-3,0,-2,-2
5901,1,1,-1,-1,0,-1,0,-1
5901,-1,1,-2,0,1,-2,-1,-1
5915,4,-1,0,-2,0,-1,-1,2
5915,-1,-1,-2,-1,-1,-1,-1,0
5916,0,0,-2,-1,0,-3,2,0
5916,-1,-1,0,-2,-2,-1,0,-2
5937,-2,-2,-2,0,0,2,-2,-1
5937,0,-2,-2,1,-2,-1,-1,1
5938,1,-1,-1,-2,-1,-1,-1,1
5938,-2,-1,0,-2,-1,-2,-2,-2
5959,-2,0,-1,-1,-2,-2,-1,0
5959,-1,2,-1,-1,-3,0,-2,-2
5962,-4,-3,-1,1,-1,-2,-2,0
5962,-1,-1,0,-1,-1,-1,0,-2
5982,-2,-2,0,-1,-3,-2,-1,-1
5982,-3,-2,-1,-2,0,0,-3,-1
5984,-1,1,0,-2,0,-2,-1,0
5984,-2,-1,-1,-1,0,-1,-2,-1
5988,0,0,-2,-1,-1,-1,-1,-2
5988,-1,0,0,-1,1,0,-1,-1
6005,-1,-3,-1,-1,0,-1,2,-2
6005,1,0,0,-1,-1,-2,0,-2
6012,0,0,-1,-2,-1,0,1,-1
6012,-2,-2,0,-1,-2,1,-2,-1
6036,0,0,0,0,-3,0,-1,1
6036,0,-1,-2,-1,-1,-1,-5,-3
6036,-2,-1,-1,-2,1,0,3,-2
6036,0,0,-2,-3,-1,0,1,-2
6038,-6,-1,-2,-2,-1,-2,-2,-2
6038,5,0,-1,0,-1,-2,-1,0
6049,0,-2,-2,-2,-1,0,-7,-4
6049,0,1,-1,0,0,-2,5,1
6058,-2,-1,0,0,-3,-1,0,0
6058,-1,0,-1,1,0,-2,-3,-1
6073,-2,1,0,-1,-1,0,0,0
6073,0,-2,-1,-1,-1,-2,-2,-2
6074,0,0,-1,-1,-1,-1,0,0
6074,-2,-2,-1,-2,-1,-2,0,-1
6102,0,-1,1,0,-2,-1,-3,-1
6102,-2,0,-2,-1,0,-1,2,0
6104,2,0,0,-1,-1,-1,1,-1
6104,-1,0,-1,-1,0,2,-3,0
6109,-1,-2,-3,0,0,0,-2,-3
6109,-1,-1,-1,-2,-2,-3,-5,-4
6117,0,-2,0,-1,0,0,0,11
6117,-3,-2,-3,-2,-3,-1,4,-1
6132,1,-2,-2,-1,-1,-1,-1,-2
6132,-1,-1,-1,-2,0,-1,2,0
6133,-1,-1,-3,0,-1,-2,-3,-5
6133,-2,-3,0,-1,0,1,-1,0
6162,-2,-2,-2,-1,-1,-1,-1,0
6162,-1,0,0,-1,-1,-1,-7,-3
6163,0,-2,-2,-2,-1,-1,5,-4
6163,-2,-1,-3,-2,-1,2,2,2
6169,-1,1,-1,-1,0,-1,-1,-4
6169,-1,-2,-1,0,-1,-2,-3,0
6193,-2,-2,0,-1,-1,-2,-5,-2
6193,-2,-2,0,0,-2,-1,0,-1
6193,-2,0,1,1,0,-1,-1,1
6193,3,0,-2,-1,-1,0,0,2
6196,0,-2,-1,0,-2,0,0,-1
6196,-1,0,0,-2,-2,0,0,-1
6215,-2,0,-1,-1,0,-1,-1,0
6215,-1,-1,-2,0,-1,0,1,0
6217,-2,-1,-2,-1,-1,-2,-3,-2
6217,1,-1,-1,0,-1,-2,-3,-2
6238,0,-2,0,-1,-1,-1,0,0
6238,-1,-1,0,-1,-1,-2,1,-1
6239,-3,-1,-1,-1,-1,-1,-1,-1
6239,-2,0,-1,-1,-1,-1,-3,-2
6252,-2,0,-2,-1,-1,-1,2,-1
6252,-1,-2,0,-1,-1,0,-2,-1
6260,-2,2,-1,0,-2,-2,-3,-1
6260,-2,-1,-2,0,-1,-2,1,-1
6282,-1,-1,-1,-3,-1,1,1,-1
6282,-1,-1,-1,-3,-1,-1,-2,0
6284,-1,0,1,-1,0,0,0,-2
6284,-2,-2,-2,-1,-2,-2,-6,-1
6289,1,-1,0,0,-1,-2,3,-1
6289,0,1,-3,-2,-2,-3,2,0
6313,2,-1,0,-1,-1,0,-3,-1
6313,-2,0,0,-1,0,-1,-1,-1
6314,0,0,1,1,0,-1,-5,-1
6314,-3,-1,-1,-2,-1,-2,0,-2
6315,-2,0,-3,-2,-1,-2,1,-2
6315,1,0,1,-2,1,0,-3,-2
6334,-1,-1,-1,-1,-1,-1,2,1
6334,-2,-2,0,0,-2,-1,-1,-1
6337,0,-2,-1,-2,0,-2,-2,0
6337,0,0,-1,0,-1,-1,-2,0
6349,1,-2,-2,-2,-2,-1,-2,0
6349,0,0,-2,1,1,-2,1,-2
6356,-3,-2,0,0,-1,1,0,-1
6356,0,0,-1,-1,-1,0,-1,-1
6371,0,-1,-3,-2,-1,-1,-6,-3
6371,-1,0,-1,0,-2,0,3,-4
6386,6,2,1,-1,0,-2,3,11
6386,-2,0,-2,-1,0,0,0,1
6395,-2,-2,-1,-1,-2,-4,-1,-1
6395,0,-4,0,-3,0,1,-5,-4
6397,-3,-1,-1,-1,-1,-1,0,-4
6397,1,-2,-1,-2,1,-1,2,0
6409,4,0,0,-1,-1,1,0,0
6409,1,-2,-1,-1,-2,-2,1,1
6425,-2,-2,0,-1,-2,-3,-4,-3
6425,-1,-1,-1,-1,-2,-1,1,2
6432,-4,-2,0,-3,-1,0,-2,-2
6432,4,1,1,-2,-1,-1,-2,1
6446,0,1,-1,-1,-2,0,-2,0
6446,1,0,-1,0,-1,-3,-4,-4
6454,-2,0,-1,1,0,0,1,-2
6454,-4,-1,-1,-1,-1,-3,1,2
6457,-2,0,-2,1,-1,0,-6,-5
6457,1,-2,-1,0,-2,-2,5,3
6469,-3,-2,-2,-1,-2,-1,-1,-1
6469,-5,0,0,-1,-1,0,-2,1
6494,-1,0,-2,-1,0,0,-2,-3
6494,-3,-2,1,1,-1,-1,-3,-1
6495,0,-1,-1,0,0,0,0,-1
6495,-1,0,-2,0,1,-2,-2,-1
6498,-1,-1,-1,-1,-2,-1,1,-4
6498,-4,-1,-2,-1,-1,0,0,1
6515,-1,-2,-2,-1,0,-1,0,-1
6515,0,-1,2,0,0,-1,-4,-1
6516,1,-1,0,-3,0,-3,0,0
6516,0,0,-1,0,1,-2,1,-4
6537,-1,0,0,0,-2,-2,-2,-1
6537,1,0,-1,-1,-2,1,-4,-1
6539,-3,-3,-1,-1,-1,-1,3,-1
6539,-2,0,-2,-2,-3,0,-3,-1
6560,0,1,-2,-1,0,-1,-1,0
6560,-4,-2,-2,0,0,-1,-1,0
6562,-4,-1,-1,-2,-2,-3,-2,-1
6562,3,1,-1,-1,0,-3,-3,-3
6590,-2,-2,-1,-1,-1,1,2,0
6590,-1,-1,-2,-3,-1,-2,2,0
6592,-1,-2,-1,0,-1,0,-3,0
6592,1,-1,-1,-1,-1,-1,1,-1
6592,-2,-1,-2,-2,-2,-3,-2,-3
6592,-1,0,-2,0,0,-1,-1,-2
6604,2,-1,0,1,1,0,1,1
6604,-1,-1,-1,0,-2,-1,-1,-3
6612,4,2,-1,-2,0,1,0,-1
6612,-1,0,-1,-1,-1,-2,-5,-2
6614,-1,-2,-1,-1,-1,-1,5,-1
6614,-3,-2,-1,-3,-1,-2,-4,-2
6635,-3,-1,-2,-1,-1,0,2,-1
6635,1,-1,-1,-2,-2,1,-1,0
6636,-2,0,-1,-3,-2,-2,-2,-2
6636,1,-1,-2,0,0,1,-2,-2
6658,0,-1,-2,-1,-2,-2,-2,-1
6658,-2,0,-1,-1,-2,-1,1,-8
6659,-2,-2,-3,-2,0,-4,-2,1
6659,-5,-2,1,-2,0,-1,1,-2
6680,2,0,0,-1,0,1,-1,0
6680,0,-1,-1,-1,-1,-1,3,0
6681,1,0,-1,-2,1,2,-7,-4
6681,-2,-1,-1,0,0,-2,2,0
6694,-2,-2,-1,0,-1,-1,-1,0
6694,-3,-1,0,-2,-3,-1,-1,-2
6703,1,-1,0,-1,-2,0,-1,0
6703,1,-1,-1,0,1,-1,-3,1
6709,0,-1,-1,1,-2,-2,-1,-2
6709,0,0,-2,-1,-1,-1,3,2
6725,-1,0,-2,-1,-2,-2,-3,1
6725,1,-2,-1,-2,-3,-1,-2,-2
6732,-2,-1,0,-3,-3,0,-2,-1
6732,1,-1,0,-1,-1,-1,-2,0
6733,0,-1,-2,-2,0,-1,-4,-1
6733,2,-1,1,-3,-2,0,8,-3
6771,-1,-1,0,-2,0,-2,0,8
6771,-3,-1,-3,-1,-1,-1,-4,-3
6772,-3,0,0,-1,0,1,-1,-3
6772,-3,-1,-2,-1,-2,-7,-5,-4
6773,-3,-1,-1,-1,-2,-3,0,-5
6773,1,-1,-1,-1,-2,1,2,3
6777,-3,-2,2,1,0,0,1,-1
6777,-2,1,-1,-1,0,1,0,3
6793,0,0,1,-1,2,-1,0,-3
6793,2,0,-1,-1,1,0,-3,-15
6794,1,0,-1,-2,-2,-1,0,6
6794,0,0,-1,0,-1,2,-7,-3
6823,-2,-2,-1,0,-1,-4,4,-2
6823,-3,-3,-1,-2,-1,-1,-2,3
6824,1,-2,-1,-2,0,-3,1,-15
6824,-5,-2,0,-1,-1,-2,-3,-10
6838,1,0,-1,-3,-3,-1,-2,15
6838,-3,0,-1,0,-1,-1,-1,-28
6839,0,0,-1,-1,-1,-1,1,18
6839,-4,-2,-2,-1,-1,1,-7,-20
6859,1,-1,-2,-2,0,4,2,6
6859,1,-1,2,0,-3,-4,3,33
6862,0,-1,-1,-1,-2,1,-4,-12
6862,2,0,-2,-1,-1,-1,3,7
6883,-4,1,-2,0,-1,-2,-6,-27
6883,1,0,0,-2,-2,0,-3,1
6884,1,-1,-1,-1,0,-3,-2,10
6884,0,1,1,-3,-1,0,2,-23
6904,-2,-2,-2,-2,-1,0,2,14
6904,0,-1,-2,0,-1,-5,-6,-10
6907,-3,0,1,-1,-1,-2,-2,0
6907,-1,-1,0,-1,-3,0,-6,8
6912,1,1,0,0,0,0,1,-6
6912,0,-1,-1,-1,-3,0,2,10
6914,-2,-1,-1,-2,-3,0,-1,-24
6914,2,0,0,-1,0,0,-1,26
6934,-1,-3,-1,-1,-2,-1,0,5
6934,-1,-1,-1,-1,-1,-3,1,-11
6937,0,-1,-3,0,0,0,2,7
6937,0,0,-2,-1,0,-1,-1,2
6957,-3,-2,-1,-2,0,-2,-6,-21
6957,1,-1,-1,0,-1,-2,3,2
6959,-3,-1,-3,0,-2,0,6,51
6959,1,0,-2,0,-1,-2,-3,-6
6980,-1,-1,0,-3,1,2,0,-23
6980,-5,-4,-2,-3,-2,-5,-8,-9
6981,-1,1,1,-2,-2,-1,-2,-12
6981,-1,-2,-2,0,0,0,0,1
6996,-1,-1,1,1,-2,-3,1,10
6996,0,1,-1,0,1,3,3,6
6998,-1,-2,-1,0,-1,-2,-1,-7
6998,-2,-1,0,-2,0,3,-2,-2
7025,-1,-1,-1,0,1,-3,-3,-6
7025,-1,-2,-1,-1,-1,-2,-4,19
7026,-3,0,-2,0,-2,-3,3,-22
7026,1,-3,0,-2,-3,-2,-3,10
7030,-1,0,-1,0,0,1,1,9
7030,0,-2,-1,0,0,-2,-3,-15
7048,-1,-2,-1,-3,-3,0,-4,-4
7048,0,0,-2,-1,-2,0,0,-11
7053,-1,-2,-2,0,-1,-3,-2,-9
7053,0,1,0,0,-1,1,-2,-3
7068,0,-1,0,-2,-2,0,5,29
7068,-2,-1,-1,-1,-1,0,1,1
7077,-5,-2,-3,-2,0,0,-6,-60
7077,1,1,1,0,1,2,5,22
7079,5,2,0,0,0,-3,-5,29
7079,-2,-1,0,-3,-4,-3,4,0
7091,-2,-2,-1,-3,-4,-5,-7,-9
7091,-3,-2,-1,-2,-2,0,0,-14
7099,1,0,-1,1,2,4,2,21
7099,1,-1,-2,0,0,-1,0,0
7114,0,0,-1,1,0,0,-1,13
7114,-2,-1,-2,-1,0,-1,0,-13
7117,0,0,0,-2,-5,-3,2,43
7117,-2,-1,-2,-1,0,-1,-4,-13
7138,-3,1,0,-1,1,-2,2,21
7138,7,1,0,-1,-1,-1,2,6
7139,-3,-1,-2,1,3,-1,-5,-46
7139,-5,-2,0,0,-1,-2,-10,-30
7160,3,-1,-1,-3,-2,0,13,19
7160,-2,-1,-2,1,0,0,-1,-12
7161,-4,-3,-1,-3,-3,-3,-9,-40
7161,-2,-4,-4,-4,-5,-4,-7,-12
7182,-1,1,-2,2,-1,0,-9,-54
7182,0,0,-3,-2,-2,-3,6,23
7189,1,-1,0,2,2,4,-8,-18
7189,-2,-2,-1,-3,-4,-4,17,-4
7197,-3,-2,-2,-1,0,0,-7,-19
7197,-2,-2,-1,-3,-3,-2,-10,3
7199,-2,-1,-2,-1,-1,2,6,2
7199,4,1,1,2,4,3,-11,22
7211,1,0,0,3,0,0,16,19
7211,-3,-2,-2,-2,-3,-4,-11,-3
7220,1,-1,-2,-2,0,-1,6,-29
7220,2,0,0,2,2,4,3,10
7235,0,-1,-1,-3,-3,-6,-3,24
7235,-7,0,-1,-1,-1,2,-2,-108
7236,-1,0,1,-1,-1,2,14,16
7236,1,-1,-1,1,-1,0,-1,38
7258,-1,0,0,-1,0,1,-8,-6
7258,5,-1,-1,2,0,1,3,5
7259,0,-2,-2,-5,-5,-10,5,14
7259,-4,-3,-3,-4,-3,-6,-9,-25
7271,-1,0,-1,-3,-2,-2,-5,-12
7271,-6,-3,-1,-1,-1,-1,4,-21
7280,4,3,1,1,2,-2,6,70
7280,1,0,-1,1,2,-2,4,-7
7294,1,2,-2,-2,-2,3,-5,65
7294,-7,-9,-1,-2,-1,3,13,9
7326,2,-1,-3,0,-2,-6,-11,-24
7326,-3,1,1,1,1,2,-9,-41
7326,2,-2,-1,-1,-3,-4,-2,-3
7326,2,3,0,1,1,1,3,58
7328,2,2,3,2,3,5,2,43
7328,8,1,1,-1,-3,2,12,31
7347,0,-3,-2,0,0,1,2,-34
7347,-3,-1,-2,-2,-5,-7,-12,-10
7349,-9,-6,-4,-3,-7,-11,-11,-32
7349,-4,-2,-4,-2,-3,-6,1,12
7355,4,1,1,1,2,7,-2,8
7355,-1,-1,-1,0,1,2,1,19
7356,-2,3,1,0,0,0,-4,-13
7356,-9,-3,-8,-3,-2,-4,-13,-40
7378,8,2,12,1,1,2,12,3
7378,-7,-1,-26,-5,-2,-2,-17,-97
7379,-5,6,-1,-3,-3,-3,4,-33
7379,-7,-22,7,-1,0,5,2,4
7391,-5,22,7,1,-1,-6,-5,15
7391,2,1,3,-2,0,0,5,15
7417,-3,14,17,4,-3,-6,-17,-50
7417,17,-3,-2,-1,2,4,10,59
7417,-11,-12,-9,-3,-2,2,13,4
7417,-3,-6,0,1,-3,-7,-7,-25
7421,-1,0,-4,-2,-2,-4,-7,12
7421,-12,0,3,-4,-4,-8,-19,-75
7438,6,-2,-2,2,1,3,-8,16
7438,2,-3,3,0,0,-1,-2,-19
7440,-7,-13,-3,-2,-2,3,18,21
7440,-1,8,-1,2,1,3,-9,-49
7451,6,-10,-11,-2,-2,0,2,34
7451,-2,5,3,-1,0,-1,4,6
7466,4,-5,-6,-1,0,1,-12,-4
7466,-4,-1,-5,0,2,-1,-9,-6
7474,-1,3,2,1,-2,-2,1,-41
7474,6,-1,5,-1,-1,-2,5,23
7477,-10,-9,-22,-10,-6,-6,-6,-42
7477,-4,0,13,5,-1,-6,-3,-3
7498,11,5,6,3,3,4,0,45
7498,-9,-9,-6,-4,-4,-1,-8,-28
7499,-3,-6,-9,-2,0,4,9,-5
7499,2,5,-5,5,4,0,-3,-23
7511,-3,-4,-3,-10,-6,-1,-2,31
7511,8,2,6,6,0,1,11,86
7519,-12,1,5,-5,-6,-4,-12,-110
7519,12,3,-2,1,10,3,21,63
7535,-1,-10,3,14,-1,-1,-11,-105
7535,-10,-12,-8,-9,-9,0,-1,-53
7537,15,13,8,1,9,-4,13,127
7537,-1,4,2,-1,-9,3,-4,-57
7558,3,-1,-13,-28,-16,-8,-2,-10
7558,3,5,3,6,15,3,-2,-59
7559,-14,-9,4,8,-10,-4,-17,-128
7559,27,7,-2,-3,19,10,23,123
7580,-20,-9,-11,-22,-33,-8,-17,-37
7580,1,-2,-6,7,18,-1,7,12
7581,0,3,8,-33,-30,-1,-4,9
7581,-5,-2,-6,-1,6,-1,-5,-64
7603,1,2,5,8,10,2,-1,20
7603,0,5,3,8,6,-2,-4,-15
7604,-12,-8,-6,14,15,0,8,29
7604,28,10,1,11,-8,1,9,90
7624,-14,-8,-1,-11,-11,-2,-14,-91
7624,-1,-5,-1,7,12,-5,12,104
7626,15,0,17,7,-8,-1,-7,31
7626,-20,-2,1,-20,-12,-1,-4,28
7631,8,0,8,28,24,5,9,-48
7631,-6,0,0,4,-7,-4,-8,-4
7647,-6,-5,4,-13,15,5,5,-14
7647,-10,-7,-25,-27,-33,-11,-15,-21
7654,-4,-3,-5,-5,6,-2,0,14
7654,1,4,3,19,-1,-3,3,5
7669,3,-3,-8,6,4,0,1,10
7669,-7,-2,7,6,11,11,-2,-63
7677,-3,1,0,8,28,3,4,57
7677,7,1,17,-6,-23,-6,5,51
7678,-3,-3,-22,-15,-19,-8,-5,-8
7678,-13,-10,-8,-16,3,-5,-10,-38
7691,5,-2,-14,-37,-22,-4,1,11
7691,1,8,25,24,77,4,8,9
7700,-1,2,2,7,-35,10,-2,-11
7700,13,3,8,44,12,5,14,65
7714,-5,-5,-5,-28,-21,-10,2,-16
7714,-18,-11,-64,-90,-75,-29,-17,-45
7720,13,-1,-22,2,30,46,16,13
7720,-12,-4,7,24,29,-30,-6,-53
7738,-4,-3,-15,-5,-3,28,-9,0
7738,-5,10,22,59,-6,-23,-4,5
7739,-13,-19,10,8,-5,-36,-15,-48
7739,-4,2,-17,-26,-3,-4,-4,2
7760,3,-3,21,4,8,2,-4,-41
7760,2,1,-7,-2,28,55,25,52
7767,0,3,-7,37,31,-14,2,-11
7767,1,-8,-39,-83,-95,-35,-28,-31
7774,-10,-6,0,34,31,-26,-12,-15
7774,15,3,-11,-34,29,45,9,-5
7782,4,4,-14,37,20,-5,14,16
7782,-9,-12,27,-51,-13,4,-16,1
7805,7,7,-3,12,-62,-32,0,42
7805,-5,-9,-6,-13,-13,-18,-9,-17
7805,8,10,19,-13,45,32,7,25
7805,7,11,17,42,29,1,20,-20
7819,1,-2,-37,3,33,55,10,21
7819,-2,-5,34,-2,-68,-63,-16,-21
7820,-10,-14,-4,-32,-52,-43,-27,-35
7820,-3,9,41,67,22,10,-5,24
7844,10,11,8,-13,23,26,16,32
7844,6,-7,-40,-2,26,39,12,-11
7845,-7,-5,0,-6,31,40,14,-28
7845,-10,-31,-41,-27,-28,-17,-8,-4
7880,-5,13,-4,2,-27,-71,-29,-19
7880,9,46,6,-56,-62,-26,-11,-16
7881,-9,-26,16,20,22,1,-8,15
7881,0,23,-4,27,45,59,18,-24
7889,20,43,16,53,32,3,21,25
7889,-23,-63,-68,-59,-40,12,-3,-15
7890,23,69,10,-20,-6,-17,-16,4
7890,17,19,35,22,35,14,4,13
7903,-12,-1,61,4,-27,-13,13,-23
7903,-12,-12,-14,43,-4,-35,-40,-7
7905,6,-5,-3,-15,-18,-1,8,13
7905,-10,-27,-60,-40,7,24,2,-48
7925,-6,-23,-48,-60,4,-3,1,84
7925,10,-5,109,89,25,24,33,58
7925,-19,-51,-114,-23,28,39,-6,-11
7925,19,50,85,25,-27,-63,-1,-31
7939,-7,-19,-27,-29,-50,-1,-43,-45
7939,0,6,62,35,-12,-73,4,-26
7946,-11,-59,-9,10,14,31,-13,-30
7946,-11,-16,-43,-2,12,28,8,30
7954,-3,4,-89,7,57,32,22,-17
7954,-30,-82,-33,-94,-65,6,12,26
7978,6,41,105,38,-52,-54,-24,-110
7978,45,34,19,29,28,28,2,90
7980,-17,-33,21,-11,-11,-7,-10,-63
7980,4,20,-37,0,32,2,-4,-28
7980,-19,-31,-38,-32,-14,-8,26,54
7980,-36,-37,-12,-21,-28,-22,-22,-123
7999,18,19,17,26,14,6,2,-20
7999,20,41,33,61,89,58,31,64
8000,-6,-13,-57,-31,-55,-54,-5,-35
8000,1,3,13,-24,-26,5,-24,-41
8013,-4,-11,22,-15,-30,-10,-4,-23
8013,-8,-10,15,32,58,50,-1,-52
8021,7,20,21,49,43,28,7,0
8021,-1,11,-7,26,-64,-69,-18,48
8036,-9,-29,-59,-50,1,6,3,15
8036,-15,-21,-1,-49,-12,-43,-2,-18
8037,33,47,17,-1,-8,-2,7,48
8037,11,30,70,118,74,64,18,-13
8059,-8,-3,15,13,-26,-30,-23,6
8059,-5,9,-29,-45,-53,-31,-29,-25
8060,-40,-88,-64,-13,6,1,17,2
8060,6,8,20,-43,-8,26,21,53
8073,47,41,48,90,71,29,6,-23
8073,-4,-4,-22,6,-1,16,-6,-5
8089,29,92,38,-12,-20,-36,-10,3
8089,-28,-18,-46,-39,6,-8,-2,-28
8096,-24,-37,6,-31,-21,44,23,80
8096,16,-11,-8,18,40,-31,0,-10
8097,43,91,23,-12,-35,0,-8,14
8097,-14,-28,-15,3,-16,6,-21,-42
8119,-7,-17,8,6,26,-60,13,24
8119,-7,6,-26,-34,-51,17,-12,-87
8119,-13,-33,-1,-3,25,29,7,57
8119,-15,-64,5,-23,-17,-11,1,-16
8141,24,72,16,14,-3,4,0,-26
8141,6,11,0,41,24,2,1,36
8143,-3,-3,17,21,15,-6,-5,-25
8143,-13,-20,-27,-13,-10,-13,-7,-2
8156,-18,-24,-26,-37,-25,-4,7,-6
8156,44,42,32,18,6,15,12,37
8157,-15,-43,5,7,15,9,-31,-91
8157,3,1,-14,22,28,3,14,47
8178,-10,-14,40,-14,-20,21,-3,-50
8178,-10,1,-35,-46,-20,-24,-12,-2
8180,-16,-28,26,18,-16,-33,-4,-3
8180,10,5,5,0,-13,-25,-8,-53
8202,3,20,-3,33,6,5,-10,-9
8202,-4,3,4,-12,4,21,7,42
8203,6,12,-10,-16,33,33,10,21
8203,-22,-40,-4,20,12,-24,-3,12
8225,5,-11,-20,-34,-53,-33,-3,5
8225,-14,-12,11,-9,-53,-60,-24,-18
8225,19,54,-1,8,28,20,2,-14
8225,7,12,20,17,55,87,16,22
8239,0,5,1,26,54,-15,13,6
8239,-5,7,-14,-13,-38,-3,-7,-44
8246,-19,-60,-1,7,-32,-42,-14,11
8246,14,1,-41,-40,-16,-11,-1,-24
8255,-4,-7,22,6,22,61,5,8
8255,0,3,17,35,31,5,10,-17
8261,2,5,11,14,37,-4,3,45
8261,-8,-4,-52,-79,-102,-52,-22,-36
8277,-19,-47,-7,-26,-47,-16,1,10
8277,37,46,23,91,43,36,-5,33
8277,-7,57,6,-9,7,-16,4,-27
8277,-4,-23,-4,-14,-5,-10,-3,14
8299,-4,27,1,13,37,36,7,3
8299,0,-5,-10,-20,47,-4,6,-22
8300,15,7,11,0,-60,-14,0,25
8300,-9,6,-54,-72,-32,-16,-13,-18
8323,-5,-24,44,36,9,-16,6,43
8323,4,1,-12,-23,-10,31,-3,23
8323,-1,23,20,59,24,3,-6,-27
8323,-2,-1,-14,-36,-22,-19,-5,-21
8336,20,-17,-5,-3,12,23,-1,15
8336,-17,-8,14,6,22,29,6,2
8337,3,-19,-10,-8,10,2,16,-12
8337,10,11,5,5,-44,-31,-18,65
8368,-15,-3,-2,45,47,12,-7,-26
8368,-11,-7,19,-45,-21,0,19,1
8369,-2,-4,-25,-33,-10,9,-7,6
8369,26,8,37,82,42,9,4,11
8374,2,8,-11,-31,-41,-7,-11,-20
8374,-6,-3,-6,10,27,-19,-14,-12
8390,-16,-46,-2,0,-47,-9,4,-4
8390,-2,29,25,1,24,27,-3,-28
8396,1,-1,-12,20,35,-11,6,8
8396,11,-4,-13,-11,-10,19,16,12
8398,-12,-28,-18,-46,-52,-53,-30,-26
8398,-3,1,27,39,27,10,11,16
8419,5,9,-17,-27,7,25,7,9
8419,-4,-5,10,41,59,3,14,-6
8420,-13,-12,-6,-4,-48,-28,-17,-37
8420,4,-27,2,15,-7,-16,-7,8
8444,13,28,-4,-46,-24,-28,-7,-1
8444,-8,-1,15,44,17,57,7,12
8445,6,-15,2,-18,9,0,4,-35
8445,-19,2,-21,-7,6,-18,-16,-55
8457,14,4,5,24,-16,-25,19,80
8457,-3,-12,-11,-10,-1,10,-13,-40
8458,4,10,5,7,23,33,12,37
8458,-6,-2,-3,-6,-7,18,11,-7
8479,-3,2,-19,-4,-11,-20,-19,-33
8479,1,18,6,-19,-31,-46,-10,8
8480,-6,3,5,18,22,33,10,22
8480,-5,-26,-8,12,54,32,14,-14
8503,12,11,5,3,-25,4,-2,45
8503,-7,-4,-24,-40,-57,-45,-22,-17
8503,7,-1,24,-4,-6,-12,-1,-18
8503,4,13,1,19,40,58,18,-12
8517,-13,-11,6,4,19,11,-2,-35
8517,-12,-22,-27,-37,-46,-45,-12,-55
8518,15,9,-14,-6,5,29,19,113
8518,5,21,12,16,33,1,2,-78
8547,-12,4,18,-13,-58,-49,-14,-119
8547,2,2,6,30,-15,-41,-20,-4
8547,-12,-27,-12,-24,-3,21,-1,-20
8547,3,3,-3,-21,-3,16,5,34
8561,6,10,9,37,54,17,19,78
8561,-7,-15,3,-18,-13,-8,-13,-21
8569,10,4,7,15,7,21,1,52
8569,-4,5,-5,8,-6,-14,3,14
8577,-7,-15,-11,-17,7,16,-9,-23
8577,-2,-9,-4,8,-50,-33,1,-27
8577,-1,10,-4,-43,1,-1,-8,18
8577,8,6,5,-23,-2,-3,10,18
8600,-13,-13,-25,-1,-29,-44,-13,-55
8600,-3,-17,20,45,65,42,3,31
8600,5,14,1,-65,-28,-7,5,-44
8600,-5,-10,-27,5,-11,14,0,45
8622,0,0,20,10,24,3,0,-45
8622,2,2,-9,-40,-30,-4,0,17
8623,-3,3,-14,30,20,0,-5,0
8623,-5,3,10,0,-5,-21,-4,-13
8637,1,-8,-3,-7,1,25,8,-1
8637,3,0,-8,2,-8,-59,-6,11
8644,-8,-5,8,40,2,-12,-9,-13
8644,-7,-21,2,-16,-12,34,4,0
8667,1,4,-14,-7,9,-16,-3,16
8667,4,12,15,9,-6,14,-1,2
8668,-6,-8,2,8,1,-10,-5,-35
8668,5,4,2,-24,-26,-20,1,90
8690,-4,-5,6,13,21,22,2,-44
8690,5,8,-4,14,63,37,16,9
8690,0,-5,-16,-55,-62,2,-15,-42
8690,0,8,9,34,11,-61,0,38
8696,-4,-4,1,-6,-49,-31,-17,20
8696,-4,-9,-9,-43,-11,20,7,-27
8698,7,7,3,38,39,8,4,-27
8698,-5,11,12,12,17,17,-6,-83
8734,0,-7,-9,13,3,22,9,36
8734,9,14,-11,7,-13,-28,2,102
8744,-17,-26,-2,-12,-2,-4,-8,-47
8744,34,16,-13,-16,-5,12,3,-21
8746,-4,5,15,26,14,-15,-3,19
8746,-11,-2,-9,2,31,56,1,-51
8746,8,4,-13,-50,-38,-31,9,113
8746,-7,-14,-4,2,-41,-47,-17,-25
8758,-4,-16,-6,-2,16,6,-2,-12
8758,10,-8,-5,-29,4,36,-2,-55
8759,-9,-2,13,39,51,10,7,30
8759,0,7,10,-3,-33,0,-4,-41
8779,-5,-8,-2,-10,-13,-11,-3,2
8779,0,10,-3,8,3,4,-9,-46
8780,6,16,1,21,32,1,2,12
8780,-3,3,3,-17,-27,-33,-7,-16
8811,-16,-6,-4,-20,-8,4,-7,-71
8811,16,2,2,30,14,-4,10,36
8811,9,11,-22,1,11,50,9,-58
8811,-10,-12,11,-9,10,-12,-7,-29
8825,17,11,-1,-11,-67,-47,3,109
8825,-19,-11,-24,-8,9,-5,-5,-31
8826,-1,-13,16,22,6,-4,-1,-41
8826,-2,-7,-6,-8,22,28,4,7
8848,-2,0,1,-6,19,22,2,-12
8848,4,-5,9,3,-24,-18,-6,14
8848,-3,3,2,25,21,-1,-9,9
8848,-8,-1,-3,-1,-30,-15,-2,6
8863,-2,6,-2,-19,-1,0,3,-32
8863,-6,-4,-9,32,1,-1,6,24
8863,-7,-15,6,20,49,36,-5,-20
8863,16,12,12,-43,-67,-9,-3,3
8877,-44,12,13,7,19,-13,-11,-25
8877,-2,-31,-27,-3,-6,8,17,64
8878,-3,-7,-3,-25,-21,-25,-10,-1
8878,8,18,-4,43,33,15,3,43
8899,4,-6,7,17,12,15,2,8
8899,0,0,7,-18,4,10,2,23
8899,1,17,6,0,-30,-23,-4,21
8899,-7,-12,-7,-11,-3,-7,-1,-4
8922,5,2,-16,-29,-8,7,-5,-24
8922,-7,5,17,26,19,-1,1,19
8923,7,-15,-7,-52,-31,-17,0,-15
8923,-2,0,-1,34,23,8,1,-15
8936,17,-2,-3,4,15,20,7,-5
8936,-12,9,22,-6,-1,-3,-13,-25
8938,-9,5,-9,-4,-16,-10,0,-22
8938,4,15,8,3,-2,-15,-2,25
8967,10,-10,-53,-29,-16,-12,-4,-20
8967,-21,2,12,4,8,10,-1,-25
8968,-2,10,8,28,20,6,1,-46
8968,-9,11,16,4,23,27,5,14
8990,5,-8,-12,-7,-35,-26,-4,1
8990,4,2,-3,6,-11,-18,-10,-45
8991,1,-7,-15,-21,10,19,8,70
8991,-16,-14,11,7,22,12,1,-24
8996,4,19,1,42,20,5,8,13
8996,8,-8,-1,-50,-73,-42,-13,-50
8998,-5,-28,-20,-41,-37,-24,-19,-17
8998,6,-2,-7,8,29,16,11,16
9020,-5,4,27,2,18,26,4,-6
9020,2,-5,6,24,15,-10,4,5
9020,10,16,-18,7,-11,-5,-4,5
9020,-6,-22,3,-14,-2,2,-4,-18
9042,1,-5,-1,5,7,3,-6,-37
9042,-4,-4,-18,16,-1,11,-1,-27
9043,12,8,22,8,4,-2,10,89
9043,-4,0,-16,-20,-16,-13,-5,18
9056,1,-6,13,32,26,4,2,1
9056,-6,7,7,-5,-18,-15,-1,-22
9057,-3,-5,20,-42,-27,-16,-7,2
9057,-6,-23,-44,-1,7,19,10,7
9079,-3,2,20,-4,-4,-6,-16,-72
9079,15,7,6,8,23,12,6,-27
9080,-3,12,-14,26,4,12,-1,-82
9080,-4,-9,1,-9,-11,-23,-6,9
9103,-8,-9,0,-15,12,19,0,-3
9103,3,1,-7,6,0,-15,-4,5
9103,-6,-3,-1,-7,-27,-1,-4,-5
9103,2,9,7,20,-17,-26,-16,-8
9117,3,-18,-17,-48,-20,-13,6,48
9117,1,11,-2,-9,19,20,-2,-7
9118,-6,-15,0,17,20,16,10,14
9118,1,6,-16,13,24,30,-1,-54
9139,13,6,7,20,-28,-37,4,114
9139,6,14,1,-34,-24,-1,-8,-4
9140,-8,-1,2,17,17,1,0,-36
9140,6,8,16,11,-5,1,0,-17
9162,-8,-14,-2,6,25,23,1,-31
9162,9,11,-1,-14,-26,-25,1,-5
9163,-1,5,-3,35,19,5,1,50
9163,-1,-1,-4,-33,-9,-1,-1,9
9177,1,12,34,2,-6,10,1,2
9177,-8,-13,-2,-17,3,-1,-4,8
9178,-5,0,10,-3,-8,-13,-11,-16
9178,1,-3,-20,3,-2,-26,-3,-18
9199,-2,-16,-6,-5,-13,-1,-3,-26
9199,4,0,-9,4,36,39,10,24
9199,-6,6,13,24,8,1,-1,-83
9199,-1,0,3,-11,-19,-22,1,54
9223,-8,-2,-10,-15,-20,-11,-13,-25
9223,-1,1,0,-8,0,0,3,21
9223,2,-7,-5,23,38,21,1,-15
9223,-2,0,-3,-17,-19,-3,1,-4
9245,-5,-2,-15,3,-15,-33,-1,22
9245,-2,-5,6,-32,-12,-6,-13,41
9246,0,-16,6,-18,0,4,4,-10
9246,-6,-3,-3,37,30,20,6,-47
9259,3,6,4,-7,8,12,7,14
9259,-8,-4,-7,-3,-26,-19,-10,-10
9260,6,5,5,-3,0,-10,0,29
9260,-2,2,8,-9,0,-1,-3,3
9290,-1,-9,9,23,10,1,-3,-51
9290,3,4,22,41,21,7,9,97
9290,-1,4,-20,-49,-32,-1,-6,-15
9290,-2,-12,5,0,7,29,2,-16
9297,3,12,-8,5,-12,-29,-4,3
9297,-7,-3,3,37,4,-1,-1,-39
9297,3,3,6,-40,2,6,0,46
9297,1,13,8,17,-2,-10,0,27
9319,0,-8,-12,-11,5,10,-1,8
9319,6,4,20,16,2,14,7,-5
9319,-6,-5,-20,14,-10,-17,-2,-32
9319,0,-9,-15,-28,2,14,-1,51
9342,-1,16,-8,7,0,-21,-1,-25
9342,-6,-11,5,4,-4,0,-8,-30
9343,5,-8,-12,-3,-2,0,-2,12
9343,-3,7,5,5,3,2,0,-21
9356,-4,-5,-10,-12,-3,32,4,7
9356,-7,0,-19,3,13,-31,-7,-37
9364,4,-10,-3,-13,-59,-12,-3,57
9364,4,-11,-11,2,29,-9,-5,-25
9379,-1,0,7,-10,-18,0,-1,-9
9379,-6,-1,-7,-4,14,-2,-4,-47
9380,-4,-1,-10,-9,-4,1,-13,34
9380,-7,7,14,0,5,6,2,-66
9403,13,-5,-6,-12,-12,-13,5,80
9403,-4,-8,-12,-10,4,9,-4,-40
9403,5,20,-10,0,15,-2,6,76
9403,1,-20,12,-1,-6,3,-1,0
9416,-9,-7,-10,-2,-14,-21,-5,-17
9416,-2,1,-2,-15,-9,0,-4,-8
9424,-2,-3,0,1,7,6,-1,-40
9424,2,-4,-7,1,-4,-1,0,21
9439,0,17,10,4,-3,-1,0,3
9439,0,-15,7,2,2,-6,-4,5
9440,-10,-1,6,22,14,-2,9,38
9440,2,0,4,19,4,-1,-6,-49
9463,0,-5,3,-11,15,18,4,13
9463,0,-6,-21,-26,-43,-22,-2,21
9463,-1,3,9,6,17,-1,-10,-60
9463,-4,3,10,3,-9,-2,6,37
9476,3,-7,-2,27,30,15,1,-15
9476,0,4,13,-44,-13,14,3,61
9484,-1,0,-3,-6,-2,-5,1,24
9484,-7,-5,-12,-22,-10,-10,-9,-3
9499,9,5,8,5,1,-8,14,27
9499,5,-1,-5,13,7,2,-13,21
9499,-6,2,22,11,-8,0,0,-60
9499,-1,5,-2,-7,2,-7,0,22
9522,-12,-5,-4,15,21,25,2,-23
9522,3,5,3,24,20,18,14,26
9523,7,4,-6,-5,-53,-38,-13,-28
9523,-10,2,-11,-4,-11,-29,-19,-29
9536,6,-6,-2,-16,-6,5,10,-24
9536,-4,-13,-5,13,16,17,7,-21
9544,-1,6,-9,13,43,37,3,-18
9544,1,2,20,-24,-24,-25,-4,1
9567,-6,-3,-2,-9,-42,-29,-22,-72
9567,5,-4,1,-12,7,4,7,32
9568,0,-11,-4,12,18,20,6,33
9568,7,14,-11,4,16,30,11,3
9589,-2,3,0,-13,-20,-33,-7,-23
9589,1,4,0,-12,-12,-2,-10,39
9590,-3,-28,8,7,-1,-4,3,-30
9590,2,0,-7,6,4,8,2,12
9596,-5,4,11,36,22,14,4,26
9596,-5,8,-10,-20,-20,8,-3,-44
9603,-1,4,1,-10,-9,-29,-10,-4
9603,-2,-7,10,10,6,-12,0,3
9635,-10,-8,2,24,-2,6,-7,-59
9635,-3,-14,1,-17,7,26,3,-11
9636,13,14,-21,16,1,-24,1,-6
9636,-1,3,0,-10,-17,-6,-7,5
9642,-3,20,6,4,22,5,3,-2
9642,-5,-7,-15,-17,-14,-3,-4,-5
9643,-9,0,-1,-19,1,18,-1,-4
9643,1,-14,-3,16,0,-7,-1,-57
9665,1,0,-16,9,-7,-9,-6,37
9665,2,4,-6,-41,-7,-2,3,14
9665,-6,7,18,5,8,7,1,-29
9665,1,-2,1,0,-16,-14,1,9
9679,-1,-8,-1,8,4,-1,0,59
9679,5,4,-5,0,0,-3,0,-66
9680,10,2,3,5,13,26,10,58
9680,6,6,-16,-14,14,-1,7,-2
9703,-1,-4,-9,9,-26,-18,-4,-8
9703,-2,0,10,2,-15,-29,-15,-12
9703,-7,-7,-6,-2,1,8,1,-7
9703,3,1,0,21,24,25,13,49
9725,4,-2,-11,-22,6,14,5,20
9725,-8,-5,1,-21,-11,-21,-7,-37
9726,-1,0,0,6,-15,-5,-5,-1
9726,0,0,-7,-22,-5,1,2,-1
9739,-1,4,12,-15,-10,0,-12,-70
9739,-3,-14,0,47,21,3,2,13
9740,-6,2,10,-7,-3,5,-8,-41
9740,-1,6,-4,-5,-7,-10,-2,25
9763,-4,-2,1,-31,-7,-5,-1,-16
9763,16,3,10,22,15,15,12,96
9763,-3,-7,-11,13,11,-2,-2,-24
9763,-3,3,5,13,-21,-13,-8,-7
9785,13,-3,-17,-44,-2,2,6,15
9785,-5,2,-3,12,-13,-16,-5,-14
9785,-2,0,13,17,17,-4,-2,-8
9785,0,-3,3,0,3,17,1,-8
9799,-3,-2,-13,-28,-11,9,-4,-23
9799,-3,-1,-7,19,26,11,-1,-2
9800,1,0,-7,-11,-21,-21,-6,-5
9800,-1,-17,1,-1,3,1,0,53
9822,0,16,11,-12,-29,-5,3,-18
9822,3,-2,-15,-7,-7,-8,-2,-21
9823,2,12,-2,1,6,4,-2,-7
9823,-2,-5,-4,-1,3,16,-1,5
9845,-7,-6,5,2,14,-13,-6,-40
9845,8,12,18,34,-8,-5,17,98
9845,-10,-19,-8,-25,-28,-20,-21,-41
9845,-4,8,-24,0,4,-6,-3,-15
9859,-2,1,18,7,30,17,6,-1
9859,-6,1,-7,1,-10,4,-6,-50
9859,-2,-6,-1,3,19,8,6,3
9859,1,6,-7,-24,-4,5,1,-2
9889,-1,-22,-11,-11,-18,-13,-4,48
9889,-3,9,8,-4,10,-8,-2,-56
9891,-7,-16,-11,-19,-15,-2,-9,-2
9891,8,3,-5,22,9,6,6,21
9913,-20,-1,13,5,7,-10,-11,-56
9913,24,-2,-6,-11,-1,30,7,52
9913,9,13,12,-5,-19,-26,0,-1
9913,-14,-9,1,8,-14,-24,-17,-36
9920,6,0,-9,12,7,7,6,9
9920,-19,-13,-7,-16,1,-3,-9,-35
9920,1,18,1,0,17,26,2,16
9920,0,2,-2,-16,-9,1,1,-58
9941,7,0,-12,7,7,-9,7,77
9941,-6,-8,-4,4,-12,-8,-7,-1
9942,1,-4,-13,-3,1,7,3,-32
9942,3,-8,12,16,9,-5,-2,2
9965,-6,13,-1,31,5,12,-2,-22
9965,-8,5,-3,-14,10,33,10,-24
9966,1,-12,-10,-27,-49,-57,-5,54
9966,-8,-4,-1,11,-1,-4,-9,-19
9978,-38,-16,-15,-25,5,-1,-14,-42
9978,42,12,21,35,30,22,17,-59
9987,-15,-5,3,8,15,15,5,10
9987,15,6,13,15,-8,-4,5,82
2,29,8,-1,0,-9,-9,6,-11
2,-25,2,-9,-25,-13,-27,-21,-73
3,-11,-21,10,31,0,4,0,-24
3,-2,-1,-6,-49,-14,-3,-1,-76
33,-5,-2,-4,15,35,18,4,37
33,10,8,-4,-2,-9,-2,9,66
33,6,11,-13,18,-6,1,-8,-1
33,-25,-24,11,8,-10,-29,-12,-5
39,40,25,0,-5,-14,5,15,53
39,-20,-6,-4,9,19,-2,-10,-41
40,-4,7,8,7,7,23,0,-13
40,-9,-11,-2,20,31,11,3,-83
62,-28,-7,5,12,-29,-13,-14,-52
62,54,14,2,-8,-9,-28,13,112
62,10,4,5,-8,6,5,0,-46
62,-19,0,-27,9,28,5,2,35
85,1,-19,22,-30,-16,26,1,14
85,-14,7,-4,4,-17,-31,-3,5
85,-3,-11,-3,-13,-27,-17,-10,-28
85,24,14,0,11,17,5,6,48
99,-15,-8,-16,-24,11,2,-11,-70
99,6,-4,1,-3,4,25,14,45
100,-9,-12,2,-4,-9,-8,-8,-35
100,-8,-3,0,10,-9,19,-5,-59
122,12,-2,-2,-44,-18,-36,6,-18
122,-10,4,3,13,5,-1,-8,-49
122,16,-1,-15,-4,17,25,14,76
122,-8,-5,13,-6,-4,-1,-6,-47
144,-27,-10,-2,6,-2,-19,-18,-23
144,6,2,4,44,5,-13,-4,-41
145,38,20,2,-20,3,17,25,82
145,-10,9,10,-19,-8,-8,-18,-117
168,23,-1,-31,-41,-19,5,25,77
168,-25,7,24,20,-2,0,-13,-49
168,-1,-6,-12,4,34,29,-7,-12
168,-14,-8,7,9,-14,-39,-14,-32
190,22,11,13,69,2,0,8,-45
190,-5,-8,-18,-54,-15,-14,-15,-36
192,0,8,3,-2,-13,7,7,-10
192,-1,0,-12,-35,-5,21,1,-16
204,-13,-17,5,28,25,5,-6,32
204,-7,-6,-12,-9,-10,-9,-20,-110
212,-5,12,14,17,-7,-29,-23,-128
212,4,-4,-4,-11,-4,15,14,-20
219,-7,-1,-5,-13,10,-6,-5,-29
219,-13,-8,10,18,-8,45,3,-10
219,-9,-25,-8,-18,-11,-56,-5,52
219,12,1,-8,1,-4,14,8,73
241,5,9,11,20,20,21,-3,-68
241,-16,-10,-7,7,6,-16,1,-42
243,-7,-11,-26,-33,-32,-10,-9,8
243,10,8,11,-15,-11,-5,3,30
265,9,43,9,37,30,3,1,36
265,-6,-17,1,-10,-7,15,1,26
265,-14,-5,2,46,17,24,-7,-112
265,4,10,-8,-23,-19,-44,-7,-61
278,11,6,7,24,-11,10,11,55
278,4,-1,-10,-34,-3,-8,2,7
287,-6,-2,-9,-13,2,-22,-7,-3
287,2,0,14,33,6,17,-6,-54
318,-5,-12,3,6,5,-2,17,45
318,4,-8,-7,-17,0,-6,-1,-8
318,2,5,8,10,-9,-8,-7,-24
318,-10,-5,-6,38,19,7,2,20
332,6,-2,6,-31,-15,-2,-4,1
332,-9,14,0,16,11,5,6,40
333,-5,6,18,2,11,12,1,-29
333,-5,2,8,20,2,4,5,-9
338,33,3,-13,-8,1,19,1,36
338,-9,-9,-3,-13,-15,-51,-12,-6
355,-9,0,-7,-29,-19,8,5,-2
355,-4,-4,4,-12,9,-1,-1,19
361,-17,-19,-2,18,8,10,-1,-93
361,-3,-4,-7,-21,5,19,-2,-19
362,19,12,1,-5,10,-9,7,4
362,-4,-6,-7,-33,-37,-15,-8,-14
385,0,-2,3,13,-9,-14,-9,-3
385,0,1,9,31,21,26,8,-31
385,-8,-4,-22,-25,15,14,3,0
385,2,10,1,-18,-4,28,1,-42
398,-46,-19,7,-9,-21,-46,-9,44
398,45,21,20,50,10,26,3,-60
423,-9,-4,-2,-15,9,-20,-10,-25
423,13,-1,-6,3,-3,5,4,-14
424,-19,-8,-15,-39,-8,-7,-8,-26
424,-10,-10,-22,-42,-44,-15,-3,46
425,5,-2,16,1,20,47,3,58
425,1,-1,-8,14,13,-50,0,30
445,14,8,1,7,-16,-11,-7,-32
445,-8,-7,7,5,-1,-15,-7,-12
446,9,-3,-5,3,-7,-13,6,77
446,4,-7,7,1,13,63,13,-23
475,-5,-3,-15,-14,14,18,-3,-33
475,-1,-3,-7,-2,1,-51,-7,-54
475,-3,0,5,17,-8,10,-8,-48
475,1,-9,-11,-38,-25,7,-3,-12
490,-7,-1,-22,-15,11,12,7,-25
490,-6,-5,24,-20,1,13,-10,0
490,0,-4,7,15,-13,-48,-5,36
490,0,-2,-8,10,9,1,6,49
505,7,3,3,0,-19,-19,-15,-7
505,-17,-2,-10,-7,14,31,10,5
506,19,4,2,3,9,-15,8,-9
506,17,7,-15,-15,-12,7,9,94
519,-7,1,22,10,-12,-11,-12,-39
519,0,-4,-26,-4,2,-19,12,103
526,-20,-10,26,-4,9,40,-7,-35
526,0,3,-3,40,-12,-9,0,-32
541,9,6,0,-31,-13,-4,7,0
541,-23,-10,-3,28,-13,-29,-23,-42
542,9,-3,-12,-23,5,11,23,51
542,-1,1,9,8,13,-15,-7,-47
564,1,1,-12,-1,6,30,7,-8
564,2,2,4,7,6,-5,4,-18
566,-2,0,-8,31,-6,-6,-3,13
566,2,-4,6,-17,-5,2,-10,23
588,2,-4,-5,8,1,-20,-3,30
588,-5,-3,3,-4,0,8,-7,-51
589,-3,1,4,18,25,37,-2,-24
589,14,11,2,-9,-9,-12,13,23
609,-3,-7,-6,1,-17,7,-9,-15
609,-3,6,2,-3,6,-63,-12,0
610,-5,5,4,-3,-31,27,-11,-39
610,-15,-10,2,10,3,-13,-16,-45
633,18,8,2,40,18,2,18,98
633,8,2,-10,-33,-20,16,14,40
634,-7,-3,-5,11,16,-7,-9,-57
634,-15,-3,0,12,6,0,-11,-62
655,21,12,8,5,12,12,24,0
655,6,-3,2,0,1,6,-2,8
656,-1,-1,-3,-2,-5,-6,6,-36
656,-7,-2,-11,-7,5,14,-8,-7
661,-16,-5,31,17,-7,-34,-10,-51
661,3,-2,0,8,-10,22,-5,6
677,-1,5,-8,-10,-15,-22,1,-34
677,-11,-9,-2,1,11,8,-13,43
684,10,0,-10,-13,9,11,18,12
684,-1,9,16,9,12,21,0,5
686,-14,-15,-24,-33,-29,-28,-19,-52
686,-4,12,2,-17,-28,-20,-13,-17
707,24,3,1,-7,23,18,19,18
707,-1,5,-1,-6,-6,-29,-5,-106
709,5,-3,-5,-3,9,28,-4,-11
709,11,1,7,1,8,-13,19,9
721,-16,-7,-4,-13,-12,10,-19,-18
721,9,-3,-8,-21,0,14,6,27
731,-2,-1,7,-1,-4,7,-1,-72
731,16,1,10,9,3,-31,0,80
745,-17,-1,-3,10,-10,-14,-14,-3
745,12,-4,-4,5,10,10,16,-23
746,-5,6,8,35,11,-6,-15,-38
746,0,-4,-4,-14,-12,24,5,-11
768,-14,-6,4,-8,0,13,-6,-27
768,-7,-8,-6,3,-7,-55,-17,-33
769,17,0,0,4,-6,7,26,127
769,-13,-9,-8,-12,-14,-12,-18,-110
790,0,1,-4,0,8,-7,16,9
790,-21,0,6,16,23,43,-15,-34
791,4,1,-14,12,11,16,23,10
791,10,8,22,-1,-5,-10,4,94
806,-13,-4,-3,2,1,-28,-21,-96
806,-2,-4,-6,-8,-22,23,15,26
807,8,4,7,25,27,-14,-1,16
807,4,3,-8,-5,6,38,9,71
827,2,0,-9,19,12,-19,-8,-54
827,19,-1,-9,9,-3,-9,20,127
829,1,-17,22,-21,-35,-24,-14,15
829,-11,20,-9,0,25,35,5,-117
841,-12,0,-16,-35,5,14,-4,-49
841,-31,-24,-8,-12,-19,-47,-24,-78
867,5,-3,11,0,-11,12,4,-10
867,-3,-61,-5,11,7,-10,12,49
867,-16,38,6,6,3,29,-9,-90
867,28,33,-30,-26,7,-9,15,2
871,13,21,14,-18,-10,1,1,-31
871,14,-2,24,0,6,4,10,60
887,-28,-34,-17,45,14,-11,25,2
887,-22,-68,-9,-52,-24,38,7,-66
888,5,-15,4,1,34,-41,-44,-70
888,8,91,1,21,-60,-11,-2,-90
911,23,9,-9,-42,-6,11,-2,-4
911,-55,5,3,24,10,-32,-32,-123
912,37,2,-5,-11,13,48,59,102
912,-42,-42,-1,30,22,-12,-42,-128
932,-1,-16,1,-2,-28,-29,-9,37
932,-14,-15,-16,12,-4,10,-15,-49
933,-1,2,-3,-9,6,1,-2,-67
933,43,57,12,0,4,0,27,91
954,-7,5,9,21,0,14,-5,-62
954,35,8,9,-16,12,23,9,59
956,-31,2,-9,-5,-16,-25,-28,-75
956,12,-29,-17,-5,2,24,31,73
961,-31,-4,7,11,-4,-48,-39,-97
961,81,28,28,18,1,-5,67,105
970,-26,-1,-26,1,-40,-6,-36,-128
970,-16,-26,-27,-38,11,-7,-12,-98
1000,-17,-4,33,23,34,21,-11,-42
1000,-8,17,18,21,-18,-6,-15,-53
1001,14,1,-5,14,0,1,14,-1
1001,8,-6,-21,-21,-5,11,13,-48
1023,-1,-17,-6,-14,-17,-14,-28,-34
1023,4,27,13,30,37,52,18,65
1025,-4,-3,-9,-26,-7,-43,-11,-19
1025,-78,-32,-10,-4,-36,-19,-42,-128
1026,64,20,6,3,15,12,22,92
1026,-14,-4,5,7,-11,-30,18,-64
1029,-23,-11,-7,-63,-22,10,-20,2
1029,20,7,-4,-2,13,-7,0,43
1059,-16,-7,3,-7,-2,5,6,-17
1059,6,7,1,2,4,9,-4,63
1069,-1,-10,-1,31,15,14,13,22
1069,-7,-4,-12,-16,-8,-21,-14,-52
1070,22,8,24,-14,-15,10,34,109
1070,-27,-10,-9,12,5,-14,-52,-128
1075,26,4,7,11,-1,2,24,-13
1075,-1,10,10,41,28,9,-4,-26
1081,3,-12,-23,-15,14,18,6,-31
1081,-14,-9,5,21,-34,-47,-35,-105
1096,-16,-3,-2,-48,-38,-25,-20,27
1096,28,7,-5,-16,16,8,26,30
1105,-3,11,5,-5,6,3,-2,28
1105,-17,-4,-8,-2,9,-4,-9,-17
1106,0,-5,-1,20,20,24,13,-14
1106,-2,-1,17,9,0,-6,-13,-86
1127,-10,-16,-15,-7,-16,-11,-3,-84
1127,12,5,-3,-12,5,12,7,16
1129,-8,6,8,18,13,9,10,-5
1129,-10,-12,-7,-20,-16,-9,-11,44
1141,27,9,-1,2,-2,-4,16,18
1141,-20,-13,-3,8,-11,0,-25,-38
1167,-1,4,9,42,38,14,13,-11
1167,7,0,29,6,-13,-3,9,-45
1167,-12,-17,-25,-33,-16,-14,-13,-6
1167,11,15,1,-36,-11,12,9,4
1179,-12,0,-2,12,5,-3,-5,-30
1179,11,1,1,16,11,-10,1,8
1187,-6,-6,3,14,-8,-8,-7,52
1187,2,-14,-4,-1,1,8,-3,5
1189,3,20,3,2,10,3,1,-39
1189,-4,-4,-4,-8,-4,-6,-13,-36
1210,26,6,-4,-8,-8,2,35,79
1210,0,-9,-5,-5,0,-9,-14,-50
1211,-10,-10,-8,-18,-17,-4,-16,-52
1211,2,0,-3,-14,-3,-2,8,-7
1233,5,-2,-2,12,-8,5,4,44
1233,7,4,2,-2,18,9,7,9
1234,-2,-4,0,19,6,-1,-9,-8
1234,2,5,0,-44,-12,1,20,46
1255,-14,-2,0,28,6,-9,-18,-32
1255,4,0,-6,-35,-27,-6,1,-13
1256,-8,-4,-6,-17,-2,-2,-9,-57
1256,-4,-5,-2,15,18,4,9,45
1261,-4,-1,-1,-8,-9,-1,-3,-2
1261,5,1,0,10,7,3,-2,-16
1277,-8,-3,-3,-3,-5,-2,6,15
1277,1,2,1,14,1,6,-1,14
1301,5,2,0,-13,-3,-14,-4,19
1301,5,0,-1,4,0,2,-3,-58
1308,4,-3,-4,-11,-3,-5,-16,15
1308,4,2,1,13,5,5,10,54
1308,-14,-1,-3,0,-2,2,-2,-34
1308,5,1,1,-3,-2,0,2,34
1311,2,0,-1,0,-1,-7,-6,0
1311,-7,-6,-5,6,0,1,0,-79
1321,6,4,2,-2,-6,-4,-13,37
1321,7,0,2,3,10,16,29,80
1330,-1,-2,1,2,8,6,15,-14
1330,-5,-4,-5,-5,-16,-17,-20,3
1345,-16,-7,-6,-14,-15,-22,-18,-128
1345,2,0,-1,5,8,4,-2,-19
1353,2,1,2,4,5,10,12,39
1353,-4,-3,-1,0,1,5,-13,-38
1375,-4,0,-1,1,8,15,29,29
1375,-4,-2,-1,-1,1,-5,-12,23
1376,6,1,0,-3,-7,-7,4,-7
1376,-1,-1,-1,-1,-2,-3,-3,31
1381,5,0,-1,1,-3,-9,-13,-20
1381,-8,2,0,-1,1,8,21,21
1390,-3,1,-1,-2,2,2,-34,-9
1390,-13,-16,-6,-1,-1,2,35,-23
1404,2,-1,-3,-1,-1,-2,-13,26
1404,9,27,4,-3,-10,-20,-8,-39
1411,-2,-16,-7,-2,-1,2,-5,39
1411,2,-4,0,4,2,0,-8,48
1427,-10,-8,-2,-1,0,2,11,-23
1427,34,30,1,2,2,9,0,62
1429,-2,-6,1,0,-4,-4,-1,-30
1429,-11,11,5,-3,-3,-5,-6,-11
1452,18,61,8,-1,1,2,-4,3
1452,-9,-8,-1,0,1,-2,-6,1
1453,-13,-26,-4,-1,-1,-3,14,11
1453,-10,-34,-10,-2,-1,-1,-1,16
1465,-11,-26,-2,-2,-3,-3,-1,-30
1465,-3,3,0,-1,1,-1,-4,25
1466,8,18,0,0,-3,3,5,17
1466,-2,-6,2,-2,-3,-7,-10,-4
1487,1,3,1,0,0,4,0,-3
1487,-7,-13,-6,-2,-2,4,3,-16
1489,-14,-16,-5,-4,-3,-7,-7,-18
1489,13,14,2,1,-1,-7,5,25
1501,2,-8,-4,1,-2,-2,-9,-26
1501,-8,-16,-2,0,0,1,1,-18
1510,6,-1,1,-2,-2,1,2,41
1510,14,38,4,2,0,4,2,-15
1525,-8,-8,0,-1,2,0,5,-4
1525,-13,-25,-4,-1,0,-1,-11,-13
1526,10,16,0,-3,-2,-6,3,6
1526,1,3,-2,-2,0,-1,-4,-3
1555,-6,-17,-3,0,1,2,1,-8
1555,-2,-1,0,-1,-4,-1,-2,14
1561,-3,-1,-3,-4,-4,-8,-5,-52
1561,8,7,2,1,2,8,8,53
1577,0,3,1,0,-2,-1,-5,-17
1577,-2,-4,-1,-1,1,1,4,8
1579,-1,10,-2,-1,-5,-5,3,-11
1579,-8,-12,-2,-2,-1,-4,-6,-29
1584,7,-1,1,-1,1,-1,3,7
1584,-4,-3,-2,-2,0,1,-10,-1
1592,-4,-9,-1,-2,0,-2,-2,8
1592,-1,5,-1,0,-3,-1,8,-5
1608,5,-1,-1,0,-1,2,-4,7
1608,-5,-3,-4,-1,0,0,-5,-20
1609,-2,1,1,0,-2,-3,2,8
1609,-1,-3,-1,-2,-1,-1,-7,-14
1630,-2,0,-2,-2,-2,-3,-5,-6
1630,-2,-3,1,-1,-1,1,3,5
1632,2,3,-2,-1,3,3,6,10
1632,-1,-2,1,-1,0,-4,4,-4
1652,-1,-2,0,-1,2,1,-1,-3
1652,3,3,2,1,2,-1,-1,4
1654,1,5,2,0,0,-1,6,8
1654,1,-3,-1,-1,-2,-3,-11,-17
1668,-2,-1,-1,-3,-1,-1,-1,-1
1668,-2,-2,0,-1,0,1,-1,-6
1669,-1,2,-1,-1,-1,0,-3,-7
1669,0,-3,0,-1,-1,-1,-3,7
1690,-2,-2,0,-3,0,2,-4,-9
1690,0,1,0,0,-1,0,-4,-1
1691,-1,-1,1,-1,0,2,-4,0
1691,1,-1,0,1,0,0,-1,-5
1703,2,-2,-3,-1,0,1,-4,-1
1703,3,0,-2,0,-1,0,-5,-5
1719,-2,-2,0,0,-1,-1,-3,1
1719,-1,-1,0,-2,-1,-2,-3,-7
1727,0,1,0,-2,1,6,-2,-1
1727,-2,-3,-2,-1,-2,-3,-15,-9
1729,-2,0,0,1,-2,-2,6,4
1729,2,1,-1,2,-1,0,-3,-3
1749,-2,-1,-1,1,-1,1,2,-1
1749,0,-1,-1,-1,1,0,-6,0
1752,-4,-2,0,-1,-2,-3,0,-1
1752,-4,-3,-2,-2,-1,0,-5,-6
1764,-2,-1,-1,-2,0,-1,-2,-3
1764,0,2,1,-1,-1,-1,2,-1
1772,0,-2,-2,-1,1,-2,-4,2
1772,-2,-15,-3,-1,0,-2,4,-4
1787,0,15,0,0,0,-2,-6,-1
1787,-2,-1,-1,0,0,0,0,2
1789,-3,-5,-1,-1,0,0,1,-1
1789,0,-4,-2,-1,-1,-6,-2,-1
1809,1,-6,1,-3,-1,2,-1,-1
1809,2,0,-1,-1,-2,-1,3,-3
1811,8,5,1,-1,-1,-2,-1,3
1811,-3,3,-2,-2,0,0,-3,-2
1833,0,-4,-1,-2,-3,-2,-2,-2
1833,-4,-1,-3,0,-1,1,2,-1
1834,-1,-2,-1,-1,-1,-1,-1,-1
1834,0,3,1,-1,-1,0,3,2
1847,0,-1,-2,0,-3,-6,-8,-3
1847,-5,-8,0,-3,2,-1,-5,-3
1849,5,3,2,1,-1,-3,-1,0
1849,-2,1,-1,-1,-1,0,1,-2
1877,-6,-5,-3,1,0,3,-3,-1
1877,3,-2,-3,-2,-2,-1,2,0
1879,-3,1,0,0,1,-3,1,2
1879,-1,1,-2,-1,-1,-2,0,0
1884,0,-3,-1,-2,-1,1,0,-1
1884,-3,-2,-2,0,-2,1,-1,-1
1892,2,1,0,-1,-1,-1,1,3
1892,3,0,0,1,-1,-4,-2,1
1907,-2,-2,-2,2,2,0,-2,-2
1907,-2,0,0,-1,0,1,-1,-2
1908,-4,-2,-1,-2,-2,0,-2,1
1908,2,-1,1,0,0,-3,-3,-1
1929,1,-2,-2,-2,-2,-1,0,-3
1929,-12,-3,-1,-2,-2,1,-1,0
1932,-3,-3,-1,-1,-3,-3,-2,1
1932,-4,1,-2,-3,-1,-1,-5,1
1943,3,-1,-1,0,-1,2,0,-2
1943,-1,-2,-3,0,-2,1,-1,-3
1952,1,1,-1,-1,-1,-1,1,-1
1952,-1,-1,-1,-1,-2,-1,2,1
1974,-3,-2,-1,-2,-1,-2,-1,-3
1974,1,0,0,-3,-1,-1,-1,-1
1977,-1,-1,-1,-1,-1,0,-2,-2
1977,-4,0,-2,-1,-3,-1,-2,0
1998,2,-2,-1,1,0,2,-3,-1
1998,1,0,-2,-1,0,-1,0,2
1999,-2,-2,-3,-2,-1,-3,-2,0
1999,-2,-1,-1,-1,-1,-2,1,-2
2003,-2,0,0,1,0,1,0,-3
2003,2,1,-1,-1,-2,-3,-1,0
2030,-5,-3,-3,0,0,-1,-4,-1
2030,3,0,-2,-2,0,0,-1,0
2030,-1,-1,2,0,-1,-1,-2,-2
2030,3,1,-1,-2,-2,-1,1,-1
2041,1,-1,0,0,0,-1,0,0
2041,-2,-1,-2,0,-1,0,-1,-2
2050,0,-1,-2,-1,-2,-1,-1,-2
2050,1,-2,0,-1,1,1,-3,0
2051,-2,0,1,-1,-1,-2,1,-1
2051,-4,-3,-1,-1,1,0,-1,0
2064,0,-1,-1,-1,-1,-1,-2,-1
2064,-1,-1,-1,0,0,1,1,-1
2073,2,-1,-1,-2,-1,-1,-2,0
2073,-1,-1,-1,-1,0,0,-3,0
2087,3,-2,-2,-1,0,0,-1,0
2087,-2,0,-1,-1,0,-1,-3,-1
2088,0,-3,0,-1,1,-1,0,0
2088,1,-1,1,-1,-2,-1,1,-1
2109,-1,0,-2,-2,-2,0,-2,-1
2109,1,-1,1,1,-3,-1,-2,-1
2111,-4,-2,-1,0,0,-2,-1,-2
2111,-1,-2,-1,1,-3,-2,0,-2
2131,-2,0,-1,0,0,1,-3,-2
2131,1,-3,-2,-3,-1,-1,0,-1
2139,7,1,-2,-3,-3,-2,-1,3
2139,-2,0,0,-1,-1,-1,0,-1
2155,0,-1,-1,-1,0,-2,0,-1
2155,1,-1,-2,0,-3,-2,-1,0
2156,-6,-2,-2,-1,0,-2,0,-1
2156,0,-1,-1,-1,0,-1,-1,0
2177,-2,-2,-2,-1,0,0,-1,-2
2177,-3,-1,0,0,1,-2,0,-3
2179,-2,-1,-3,0,-2,0,0,-2
2179,1,0,-2,-1,0,-3,0,1
2184,-3,-1,-1,-1,-1,0,-1,1
2184,2,0,-1,1,-1,0,-1,-1
2193,-2,-2,0,-1,-2,0,1,0
2193,0,-1,-2,1,-2,-2,-1,-1
2208,-1,-2,-1,-1,-1,0,-1,-2
2208,1,-1,0,-1,0,0,1,0
2209,-2,-2,-1,-2,0,-2,-2,0
2209,-4,-1,-2,-3,0,0,0,-2
2230,-1,0,-1,-1,-3,0,-3,-1
2230,-3,-1,0,0,0,-1,-3,-3
2232,3,1,1,0,0,-2,0,0
2232,-2,-2,0,-2,0,-1,0,-1
2252,-1,1,0,-1,1,0,0,-1
2252,-1,-3,-1,-1,0,-1,-2,0
2254,-3,-1,-1,0,-2,-2,-2,-1
2254,3,-1,-1,0,-2,-2,-1,0
2275,1,1,-1,-2,-1,-3,0,-1
2275,-3,-1,-2,-1,-2,-1,-1,-2
2276,8,1,0,1,-2,0,2,1
2276,-1,-1,-1,-2,-2,-1,-2,0
2297,0,-2,-1,-2,-3,0,1,-1
2297,3,2,-1,-1,0,-1,-1,-2
2298,-3,0,-4,-1,-1,-1,-1,-1
2298,-2,0,0,-1,-2,-3,0,-1
2344,1,0,-1,0,0,-3,-2,-2
2344,-1,-1,-1,1,1,1,-4,-1
2345,-5,-2,-1,-1,0,-1,-1,-1
2345,0,0,-1,1,0,-2,-2,-2
2346,0,-1,-3,-3,-2,-2,-2,0
2346,-1,-2,0,-2,-1,1,0,1
2367,-7,-3,-1,-2,-3,-1,-3,-3
2367,0,-1,-3,0,-1,0,-3,-2
2367,-4,0,-2,-1,0,-2,-2,-1
2367,-1,-1,2,-1,0,-2,-2,-5
2373,-2,-3,-2,-1,-3,0,0,0
2373,-1,-2,-1,-1,0,-1,1,10
2373,0,-1,-1,-1,1,2,0,-3
2373,-3,-2,-3,0,-1,-1,-2,-1
2376,3,1,1,-1,-2,0,0,-2
2376,-3,-1,-1,-1,-1,-2,-1,-3
2387,-2,-1,-1,-1,0,-1,-1,0
2387,5,0,-2,-1,0,-2,1,-1
2394,-4,-2,0,-2,-1,0,-3,-3
2394,0,0,0,-1,-2,0,-1,-2
2410,1,-1,0,-1,-1,-1,-4,-2
2410,-4,0,-2,-1,-1,0,-4,-3
2411,0,-2,-3,-1,0,-1,-3,1
2411,-1,-1,0,-1,-1,-2,-1,-4
2432,-1,-2,0,1,-2,-1,-2,0
2432,0,-3,-1,-2,-2,0,-1,0
2433,5,1,0,0,0,0,-2,1
2433,1,0,0,-1,0,0,0,-2
2454,-2,0,-2,-1,-2,-1,0,-3
2454,-2,0,-1,0,0,0,-2,-2
2461,-2,-1,-2,0,-2,-1,1,-1
2461,-2,-2,0,-2,-1,0,-2,-3
2478,0,-2,0,-2,-3,0,-1,0
2478,-1,0,-1,-3,-1,-1,-3,-1
2483,-3,-1,-1,0,0,0,1,0
2483,0,-2,-3,-1,0,0,-1,-3
2493,-1,-1,-1,-1,-1,-2,-1,-1
2493,-3,-1,1,-1,-2,0,1,-1
2494,2,0,-2,-2,0,-2,-2,0
2494,-3,-2,-1,0,-2,-2,-3,0
2507,1,-2,-2,-2,-2,-1,-1,-1
2507,-1,-1,-1,-2,-2,-1,0,-2
2508,-3,0,-3,-1,1,1,-2,-1
2508,-1,0,-3,0,-1,0,1,-2
2529,-2,-1,0,-2,-1,-1,0,-3
2529,-1,0,-2,-1,-1,-1,-1,-2
2532,-3,-2,2,-1,-2,0,-1,-1
2532,-4,-2,0,-1,-2,-2,-2,-1
2552,0,-3,0,1,-2,0,0,0
2552,2,1,-2,0,1,-2,-1,0
2554,-3,0,-1,-1,1,0,1,-1
2554,-1,-1,-4,-2,0,-1,3,-1
2575,-1,0,-1,-1,-1,0,-1,1
2575,0,0,0,-1,-1,0,-3,-2
2576,-3,-2,-1,-1,-2,-2,-1,-1
2576,1,-1,0,-1,-3,0,1,0
2598,0,-1,-1,0,0,-2,0,-3
2598,-1,-1,0,-1,0,1,0,-2
2599,-1,-1,-2,0,-1,-1,0,-2
2599,0,0,-1,0,1,-1,-1,1
2620,2,0,-2,-1,0,-2,-3,-1
2620,-4,-2,-3,0,0,0,-1,-1
2621,0,-3,-1,0,-1,-1,-2,0
2621,-2,0,0,1,-2,0,-1,-1
2627,-3,-1,-1,-1,0,0,-4,0
2627,1,-2,-1,-1,0,-1,-1,-2
2629,-1,0,-1,-1,0,1,0,-1
2629,-1,-1,-1,-2,-2,-2,-1,0
2650,4,1,0,1,-2,-1,0,-1
2650,1,-1,-3,0,-1,-1,-2,-2
2652,-3,0,-2,-2,-2,0,-2,-3
2652,3,0,-1,-1,0,-1,-2,0
2679,-4,-1,-1,-1,0,-1,0,0
2679,-1,-1,-1,-1,-3,0,-1,2
2681,1,0,-1,0,-2,-1,-1,-1
2681,-1,0,-2,0,-2,-1,2,1
2695,-2,-2,-1,-2,0,-1,0,-1
2695,0,0,-2,-2,-1,0,-2,0
2697,-1,-2,0,-2,-2,-2,-1,1
2697,0,-1,-1,-2,0,-2,-3,-2
2709,-1,0,-2,1,-2,-1,-3,0
2709,-1,-1,0,-1,0,-1,-1,-2
2711,0,0,-1,-3,-1,-3,1,-2
2711,1,-1,0,-1,2,0,-2,-1
2732,-1,0,-2,-2,-2,-2,-1,-1
2732,0,0,-1,-3,-1,0,-2,-1
2734,-2,0,-1,-1,-2,0,-1,0
2734,-3,-1,-1,-1,-1,0,-1,-1
2755,-1,-1,-1,-2,0,-2,-3,0
2755,3,0,1,-3,-1,-2,1,1
2762,0,0,-1,-1,-2,-1,-3,-1
2762,-4,-2,-2,-1,-1,0,-1,-2
2770,0,0,-3,-2,-3,1,-1,2
2770,-4,-2,0,-1,-1,-1,-1,-4
2776,-1,0,-1,1,-1,2,-1,-1
2776,-9,-3,-3,-2,-1,-3,-2,-4
2800,6,2,1,0,0,-2,-1,-3
2800,0,-1,-1,0,0,-2,0,-1
2801,1,-2,-1,-1,-1,0,-2,2
2801,-3,-2,0,1,1,-2,-4,0
2806,-5,-2,-1,-1,-2,-1,-1,-3
2806,-1,1,-1,0,-3,-1,-2,0
2854,0,-1,0,-2,0,-3,-2,0
2854,2,-1,-2,-2,-3,-1,-1,2
2854,-2,-3,-2,-2,0,-3,1,-2
2854,2,0,-1,0,-1,0,-1,-1
2856,-2,-1,-1,-1,-1,-1,1,-3
2856,2,1,-1,-1,-1,-2,-1,0
2876,-4,-3,0,-1,0,1,0,-2
2876,-1,-2,0,-1,-1,0,-1,0
2877,1,-2,-1,-1,-2,-1,0,-1
2877,2,-1,-1,-2,-2,-1,1,0
2879,0,-2,-3,-2,0,0,-3,-1
2879,-4,0,-3,0,-3,-2,-3,0
2899,-3,-1,0,0,-1,-3,-2,0
2899,1,-1,0,-1,0,0,-2,-4
2900,-1,-2,0,-1,-2,-4,-2,-2
2900,-1,0,1,-2,-1,-1,0,0
2903,-2,-1,-2,-2,-1,-1,0,0
2903,-2,-1,-1,-1,-1,0,0,-2
2920,-5,0,0,0,-1,0,1,-5
2920,0,-1,-1,1,1,1,1,5
2921,-1,-1,1,-1,-2,-1,2,-2
2921,0,-2,0,0,-2,-1,-1,-2
2951,-1,-3,-2,-1,-1,1,-1,-1
2951,1,-1,-2,0,0,-1,1,-3
2966,-2,-1,-1,-1,1,0,0,-1
2966,4,1,1,-1,-2,-1,0,5
2966,-2,-2,-1,-2,-2,-1,-1,-4
2966,-1,-2,-2,-2,-2,0,1,-1
2968,-2,-1,-2,-1,0,0,-3,-4
2968,-1,0,-2,-1,0,-1,1,5
2972,-7,-3,-2,-1,0,-2,-1,2
2972,2,-1,-2,0,1,0,-2,-1
2974,-3,-1,-1,1,0,-1,-1,0
2974,-3,-1,-1,-3,-3,-3,0,-5
2986,-1,0,-1,-1,0,-2,-2,2
2986,-2,-1,-1,0,0,-1,-1,-2
2995,-1,-1,-2,0,0,0,1,-3
2995,0,0,1,-2,0,0,-3,-3
3010,3,3,-1,0,-1,0,0,9
3010,-2,-2,-2,-2,-1,-1,-2,-5
3011,2,-1,0,-1,0,-1,3,8
3011,-3,-2,-2,0,-1,0,-1,1
3032,1,-1,-1,-2,-1,1,1,-2
3032,-5,1,-1,-3,-2,4,-1,-6
3034,-2,-2,-2,-3,-3,-5,-2,-3
3034,-3,-1,-1,0,0,0,-2,7
3046,3,2,-1,0,0,0,0,-17
3046,-1,0,-2,0,-1,-5,-6,11
3062,0,-1,0,-1,-2,-1,3,3
3062,-1,-2,-2,-3,-2,0,-5,-5
3070,-3,-3,-2,0,-2,0,-13,-7
3070,3,-1,-1,-2,-3,-3,9,6
3071,2,0,0,0,-1,-2,1,2
3071,0,-1,0,0,0,1,-6,-17
3108,-6,-3,-2,-3,-2,-5,3,10
3108,0,1,1,0,1,1,-3,-5
3110,-2,-1,-1,-1,-1,0,-2,1
3110,-3,-1,-1,1,-2,-2,-15,-2
3110,3,1,1,-2,0,1,6,5
3110,-5,-1,0,0,-2,-2,0,-3
3114,-5,-3,-1,-2,-1,0,2,-8
3114,3,-1,1,1,0,-1,1,3
3130,1,0,-1,1,-2,-2,-2,-4
3130,1,-1,0,0,1,-1,4,0
3131,0,1,-1,-1,-1,2,-6,-11
3131,-1,-2,-2,-3,-1,-2,4,-15
3153,-1,-1,-1,1,-1,-3,4,44
3153,3,-2,-1,-1,-1,-1,-3,-15
3154,-4,-1,-2,0,-2,0,-8,-16
3154,5,0,0,-1,1,1,14,57
3166,0,-1,-1,-2,0,2,-5,-20
3166,-5,-2,-1,-2,-1,-3,-2,-11
3175,0,1,0,0,1,0,0,2
3175,-6,-2,-2,-2,-1,-5,0,-25
3190,4,0,-2,-2,-3,-1,0,-1
3190,-1,-2,-3,-2,-1,1,-6,3
3192,-5,-1,-1,-2,-1,-1,-6,-8
3192,-1,-1,0,-1,0,-2,5,1
3220,-1,-1,1,-1,0,1,-4,-9
3220,-3,-1,-2,0,-1,2,-1,-5
3221,2,0,-1,0,0,1,6,11
3221,-3,1,-1,1,-1,-1,-3,-18
3226,-1,-1,0,-2,-2,-3,-3,1
3226,-1,-1,-1,-2,-2,1,0,0
3242,-1,-2,-1,0,-1,-1,-5,7
3242,1,0,-2,-2,-3,-1,-2,1
3250,2,-1,-2,1,-2,0,0,-5
3250,-1,0,0,-1,1,3,-3,-2
3264,2,-2,-2,-2,-2,-5,3,7
3264,-1,-2,-2,1,-2,-1,-5,-8
3273,-3,-1,0,-1,-2,-1,-5,-8
3273,-2,-3,-1,-1,-2,-3,2,-23
3274,2,-2,-2,-2,2,2,7,37
3274,0,-1,-1,-2,0,-1,0,-12
3286,-2,-1,1,2,3,-1,-4,-10
3286,0,-1,-1,-2,-2,-1,-3,35
3295,0,0,0,-1,-2,-2,3,28
3295,-1,-1,-1,-1,-1,-1,3,-8
3310,-4,-2,-3,-1,-2,-4,-2,-40
3310,-3,-1,-1,0,1,-1,-7,19
3316,3,1,0,0,1,0,4,8
3316,-1,0,1,-1,0,1,-1,-1
3333,-2,-2,-1,-2,-2,-4,-8,-18
3333,2,1,-3,0,-2,0,10,-16
3334,-4,-2,-1,-1,-3,-2,-5,-2
3334,-4,-2,-1,0,-1,-2,1,-15
3355,0,-1,0,-2,2,2,-13,-1
3355,0,-2,-3,-1,-5,-10,-4,-8
3356,1,-1,-2,0,-1,1,13,42
3356,-3,-2,-1,0,-1,-3,-1,1
3370,-2,0,0,0,2,10,1,11
3370,-1,-2,0,-4,-4,-11,-16,7
3376,0,-1,-1,0,0,3,-2,-50
3376,-5,-2,-1,-6,-3,-10,-11,21
3392,9,-1,-3,-3,-3,-4,13,60
3392,2,-1,0,2,2,6,4,51
3394,-3,0,0,-1,2,0,-5,-57
3394,-1,1,1,1,0,5,8,15
3406,-2,0,-1,0,0,0,-13,-16
3406,-2,-3,-3,-2,0,0,-1,-25
3415,4,-1,-1,1,-3,-4,15,39
3415,-4,-4,-2,-1,-2,-5,-12,-68
3429,1,-1,1,-1,-1,0,10,75
3429,4,3,1,1,1,6,9,23
3436,-1,1,1,1,1,1,-21,2
3436,2,0,-2,-2,-3,-5,5,-24
3453,2,-1,-1,-1,0,-2,4,57
3453,-6,-1,0,2,2,5,7,-53
3454,3,-1,-3,-4,-4,-2,3,48
3454,-3,-2,-2,-3,-2,-1,-16,17
3474,-9,-3,-2,-2,-3,-11,-10,-7
3474,9,0,0,0,1,7,23,19
3477,0,2,1,-1,0,2,6,54
3477,-5,-3,-1,0,0,0,-10,-55
3497,-2,0,-1,-3,-1,2,9,63
3497,-2,0,0,-2,-5,-5,-11,-29
3499,-1,-3,-1,-3,-4,-4,-6,-38
3499,6,0,0,0,1,2,23,69
3519,-7,-2,-1,-1,-1,-1,-24,-63
3519,-14,-6,-3,-3,-2,-3,-11,-53
3527,12,3,0,0,0,5,21,71
3527,-3,-2,-2,0,-3,-8,-13,-27
3542,-4,-3,-2,-1,-3,-6,3,-23
3542,11,5,1,1,2,1,-2,94
3544,-3,-1,-1,0,-1,0,-15,-48
3544,-3,2,0,2,1,4,-1,15
3548,-6,-3,-3,0,-2,0,4,-92
3548,-1,-7,-3,-4,-5,-7,-5,39
3563,-8,-2,-1,-3,-4,-8,-5,-3
3563,-1,-9,0,0,2,2,5,8
3572,4,7,1,-1,1,0,1,-88
3572,-9,-5,-2,-2,-1,0,-4,26
3573,-4,-3,-1,-2,-1,-2,-4,-6
3573,-6,0,-4,-4,-5,-2,7,1
3595,10,-4,-1,-1,-1,0,-6,-40
3595,-1,5,2,0,-2,-5,-4,-8
3596,-16,-7,-5,-3,-6,-11,-17,-101
3596,-6,-6,-4,-2,1,-1,-1,14
3609,-4,-3,-2,-2,2,4,-14,-66
3609,3,0,-2,1,4,5,22,1
3617,-15,-10,-3,-1,-3,-7,-25,-107
3617,13,8,5,3,2,2,17,85
3640,-1,0,-2,2,-2,0,1,1
3640,3,0,-1,1,-3,-1,-12,-46
3641,1,2,-2,-1,1,0,0,11
3641,-11,-1,-2,-3,-2,-2,3,-29
3662,20,4,0,-2,-1,2,6,70
3662,6,4,1,0,-1,3,3,-25
3664,-14,-5,-3,-3,-6,-8,-11,-69
3664,19,11,8,4,3,6,10,-16
3669,-13,-6,-2,-4,-5,-9,-6,-28
3669,-3,-3,-3,0,0,1,-4,0
3684,3,4,-1,-1,1,2,-11,-6
3684,4,-2,-1,-1,-2,-1,16,56
3692,-8,-3,-2,0,2,1,-3,-42
3692,-24,-18,-5,-4,-5,-8,-25,-75
3694,14,5,1,1,-2,3,7,35
3694,-3,16,-1,-3,-1,-8,-11,-27
3715,13,5,4,3,-1,4,12,48
3715,-13,-8,-5,-1,0,0,-2,-35
3716,-11,-10,-4,-6,-1,-3,-6,-44
3716,-2,-10,-4,1,-2,2,5,-6
3729,-10,3,1,4,9,-4,-8,51
3729,-11,-3,-3,-3,-5,-2,-3,-29
3737,1,-2,-6,-26,-20,2,1,5
3737,8,4,4,4,5,-2,1,-40
3799,6,-3,-3,-13,-19,-2,4,-18
3799,-5,-3,0,7,11,-6,-8,11
3801,-1,4,2,9,7,5,11,-31
3801,-2,-2,-1,-1,-1,-1,-5,-10
3802,-14,-8,-6,-6,1,-2,-13,-68
3802,19,9,2,2,3,11,15,-10
3806,-8,1,-2,-1,3,-7,-12,-46
3806,7,-7,-1,3,-2,4,12,89
3806,2,5,2,13,15,2,5,-8
3806,-3,1,1,1,-23,-13,-17,-32
3820,-10,-9,-4,-3,9,1,-1,48
3820,19,5,3,26,21,7,13,11
3821,-16,-6,-4,-17,-21,-7,-12,6
3821,0,0,2,11,7,1,11,30
3842,34,9,1,-36,-24,-5,2,35
3842,1,2,-2,-4,-2,0,-5,-32
3849,-7,0,3,21,10,1,1,-20
3849,-7,-6,-6,-3,4,-3,-4,-26
3850,-2,-5,1,17,6,3,-2,-11
3850,-2,4,2,2,7,6,2,-55
3857,11,0,-1,-1,2,-4,5,74
3857,-8,-1,-1,4,-6,-5,-9,-23
3872,-6,-4,-4,-2,-15,1,-6,-28
3872,8,4,28,66,21,7,8,77
3874,-24,-16,-45,-84,-65,-19,-12,-42
3874,4,0,-3,-22,0,-6,-7,-5
3895,7,4,9,29,-7,4,10,29
3895,4,-3,-15,9,36,8,6,78
3896,6,5,25,64,17,11,12,13
3896,-8,-5,-12,-14,-15,0,-14,-29
3918,-6,2,24,29,12,-4,-6,14
3918,-4,-5,-38,-72,-9,5,10,40
3919,-2,-1,23,31,21,2,2,11
3919,11,-2,-36,-57,-48,-22,-9,-19
3939,-9,-2,17,12,10,-8,-2,-22
3939,-19,-6,4,9,-8,-28,-18,-60
3941,12,-1,-19,-15,4,23,15,20
3941,-12,-2,27,54,50,9,-6,-14
3962,7,3,-1,-34,-40,-4,5,64
3962,10,3,-9,-33,-4,26,7,-5
3969,1,2,54,42,9,-15,1,-4
3969,4,10,-2,36,8,28,6,9
3970,-10,-16,-65,-8,51,-1,2,-13
3970,-3,1,-20,-56,-93,-60,-29,-51
3995,7,1,26,40,2,-14,2,44
3995,6,3,67,26,0,-13,1,-47
3995,-8,-13,-72,-89,22,61,2,1
3995,1,-1,-9,-8,-11,10,18,1
4006,-18,-2,2,-6,-28,-46,-28,17
4006,15,-5,16,30,13,-29,-7,2
4014,13,21,39,30,27,23,21,-30
4014,-15,-8,-1,-2,10,41,-4,-36
4017,-4,-11,-30,-42,-3,1,2,-24
4017,-9,2,-21,-35,-9,-8,-5,18
4029,-1,-5,24,81,-20,-3,-3,46
4029,-2,-2,-1,2,8,-29,-11,2
4038,14,-4,-10,29,13,10,26,-16
4038,-4,-22,-52,-113,-96,-3,-17,22
4084,-13,-12,-32,-21,5,-44,-19,-79
4084,14,21,59,50,17,9,-5,17
4086,3,35,4,8,35,35,2,-4
4086,-10,-9,-8,17,39,16,11,-11
4086,-17,-18,-12,-14,-30,-2,-7,-54
4086,14,-13,26,20,7,-27,0,39
4100,-18,6,-14,-30,-17,29,-18,-57
4100,26,9,8,57,52,26,25,57
4101,-8,-11,-11,-39,-50,-31,-4,3
4101,-21,-15,-24,-61,-69,-27,-16,-21
4104,-7,-2,-40,-59,-35,-58,-17,-6
4104,-5,-7,9,14,22,28,-4,-25
4119,8,18,94,79,52,42,7,16
4119,22,52,-23,-12,21,-8,12,-16
4122,-6,-19,-4,45,29,13,27,44
4122,-27,-31,-49,-94,-98,10,-29,-23
4135,7,-9,-15,-10,-6,-96,15,82
4135,13,29,20,10,22,74,-5,-12
4136,0,-6,0,31,54,33,-8,-23
4136,9,23,-61,-7,12,-34,18,7
4148,-26,-50,50,-9,-17,26,-24,-23
4148,-10,26,50,73,-16,-33,20,11
4165,35,32,31,32,15,20,-15,14
4165,11,-2,11,18,35,-30,3,4
4172,-12,-1,-48,-61,-63,-3,-12,-40
4172,-31,-46,-52,-24,-16,4,-16,-80
4174,18,17,37,27,38,-1,36,-58
4174,-8,1,-7,-20,-25,17,5,-26
4194,17,-12,-24,18,46,-2,1,66
4194,-13,6,-37,-51,2,12,-6,-52
4196,-15,-35,-4,36,-1,27,13,21
4196,-15,-21,85,40,-19,-29,-20,-40
4218,50,111,24,34,37,45,-3,22
4218,1,-12,-5,-2,3,-57,10,77
4219,-17,-12,-56,-69,-65,-26,-30,14
4219,-22,-29,-71,-83,-15,1,10,-8
4240,-15,-62,112,47,0,-13,5,-36
4240,18,17,-6,32,3,8,-16,47
4241,-5,-12,-2,-24,30,37,-2,-72
4241,21,14,44,76,44,10,44,84
4255,-17,-13,-52,-12,-35,-4,-6,-119
4255,2,-34,-14,-34,-44,-31,-10,17
4257,-23,-17,-57,-35,2,-30,-7,-15
4257,26,19,52,18,16,40,-4,20
4268,13,53,-8,26,41,20,19,12
4268,-2,-14,41,5,-12,-38,-19,1
4284,-3,-7,-9,-70,-80,-7,-13,29
4284,-14,-30,-22,-12,45,39,2,-29
4292,-1,44,-27,-25,19,-42,13,-13
4292,-12,-22,10,0,-15,88,5,-51
4305,15,17,17,14,-15,-112,-11,72
4305,-1,23,3,25,10,6,-10,-96
4315,-16,-27,-38,-108,-80,-16,-24,-64
4315,3,-1,-20,43,54,34,29,51
4317,17,21,38,33,58,58,13,69
4317,-18,-2,0,-1,-24,-24,0,-23
4328,4,-18,-16,5,-28,-15,-25,-19
4328,-11,13,-7,-30,-16,-46,-7,-33
4337,10,17,16,-2,9,6,11,-30
4337,4,1,-7,2,10,0,-1,60
4352,-14,3,9,35,36,59,-8,-93
4352,4,-23,-2,-19,-17,-48,11,19
4358,-6,-21,5,39,9,4,5,-18
4358,-10,21,-6,-32,-46,0,-19,-10
4375,2,-1,-10,3,22,13,10,51
4375,-3,-11,10,35,35,28,3,-14
4376,10,10,20,20,6,9,5,-14
4376,-10,-24,-11,14,-26,-73,-9,22
4397,9,21,-8,-29,-60,5,-17,15
4397,-11,37,-8,7,63,-6,4,-30
4405,6,2,-4,-21,-44,-3,7,10
4405,-1,-2,-5,-41,12,7,-10,-19
4411,-15,-24,16,19,16,-11,1,-24
4411,17,-2,-23,-9,-5,6,2,69
4426,-5,-3,21,-1,35,51,0,-69
4426,8,9,-8,8,-6,-20,-4,-35
4435,3,1,-3,0,-24,-12,-1,23
4435,-20,-16,10,14,13,-27,-10,-41
4436,-2,-7,-23,-28,-1,38,14,-9
4436,5,-3,15,0,-21,-55,-14,35
4457,-15,-13,-7,2,-29,-34,-15,-49
4457,4,-3,13,60,38,64,17,-50
4458,5,-1,-24,-24,-13,-19,14,54
4458,0,-26,-14,-9,-10,20,-6,-48
4471,-5,52,8,5,12,-18,-6,-27
4471,6,2,23,14,1,-4,2,-28
4478,3,-3,2,26,43,44,8,20
4478,-4,6,-6,-7,6,-4,-4,-20
4495,-7,-33,-4,-1,-53,-56,-12,23
4495,4,12,-10,-18,-12,-6,-11,15
4496,-21,-22,-9,-29,-21,1,-1,-6
4496,12,25,11,24,54,27,19,105
4517,19,3,8,24,16,34,12,-2
4517,-6,0,-2,-27,3,-4,-4,-33
4519,-11,-13,-5,-40,-52,-37,-20,-41
4519,0,22,1,20,-8,-6,-18,-81
4540,22,19,0,-1,40,25,29,127
4540,-10,0,2,8,-8,7,-5,-52
4541,-12,5,-2,-7,-17,-33,-18,-19
4541,-14,-16,-1,13,10,-7,-3,-42
4555,-1,-10,-4,1,19,42,12,11
4555,8,-3,-2,1,11,1,2,43
4557,0,-4,-5,-21,-64,-63,-6,17
4557,-1,2,4,-7,-5,4,-16,-6
4577,-1,-8,0,3,29,7,11,-27
4577,0,-11,-2,12,14,64,19,25
4578,4,3,9,17,33,-32,-3,-19
4578,-1,-3,1,32,-23,-17,-4,19
4591,-10,-23,-13,-52,-50,-16,-9,38
4591,9,-3,5,4,3,-10,-4,-15
4600,-13,16,5,27,22,21,6,2
4600,-2,-2,2,-6,8,41,-1,-39
4615,-8,-13,1,21,30,1,1,-81
4615,6,-5,-5,-18,-14,-26,12,83
4617,2,4,-9,4,-31,-12,-21,-8
4617,-12,-22,3,-10,-8,-14,2,8
4637,2,6,-6,0,7,-1,-5,-2
4637,-1,1,2,-13,14,12,9,-48
4640,10,3,2,-6,-5,-2,1,49
4640,0,4,-1,-34,-37,-29,0,28
4651,3,-6,-11,-23,-9,6,0,4
4651,-3,-2,0,12,13,1,0,-27
4659,0,-8,7,16,28,23,-10,-19
4659,10,6,4,11,26,37,16,-9
4675,-7,0,-3,-5,-18,-24,-13,-10
4675,-4,-3,-1,-2,-27,-28,-12,34
4676,-15,-21,-6,-18,-6,2,-3,-46
4676,15,18,-3,-6,12,8,2,35
4698,5,7,16,22,12,24,16,47
4698,3,0,-7,10,3,25,0,-6
4699,6,12,4,0,-25,-64,-7,34
4699,-12,-16,-12,23,-25,-15,-14,-62
4711,5,-1,-4,-24,16,0,-1,-46
4711,-8,15,1,-11,10,46,9,33
4719,17,15,8,20,36,17,7,29
4719,-3,1,2,-3,1,17,3,-13
4735,13,4,2,5,-3,-4,12,97
4735,-8,-14,-5,-19,-38,-45,-32,-81
4737,3,-5,-10,7,12,7,18,81
4737,-4,0,2,-1,12,58,5,-3
4757,-2,-8,-2,-14,2,-72,-8,-38
4757,0,1,-5,6,-50,-32,1,15
4758,-12,-17,5,12,19,0,-4,-118
4758,6,7,1,11,26,18,-2,5
4771,-9,-4,-6,-37,4,23,2,-58
4771,4,-1,4,31,-10,-23,-3,17
4780,-12,-10,-7,15,-13,-23,-12,-57
4780,1,2,-1,-26,-33,-15,4,46
4795,-4,-6,3,29,46,46,1,-21
4795,6,3,0,-9,3,-19,7,35
4797,-5,-6,1,3,-2,14,-8,-46
4797,-9,1,-6,-25,-26,-31,-10,38
4818,7,-4,-2,16,0,4,5,-9
4818,3,5,6,-13,13,46,2,3
4819,-4,-1,2,45,49,11,11,-3
4819,6,8,6,-53,-43,-56,-13,-17
4840,-11,-14,-11,1,-43,-39,-11,-6
4840,-7,-9,-7,-20,15,42,3,-8
4842,13,9,6,21,19,8,5,9
4842,-3,-3,1,32,35,27,-2,-55
4863,-2,6,-2,-3,-43,-17,3,110
4863,9,0,-2,-28,10,-12,-2,-94
4864,-3,-1,-3,-8,-20,15,4,-15
4864,-3,-9,-10,12,10,-7,-1,-33
4885,-2,8,4,14,24,36,4,-33
4885,-3,-5,-1,20,14,-11,-1,46
4886,-2,8,-5,-43,-66,-91,-20,-24
4886,-4,-8,-6,-18,-17,-21,-16,-58
4891,3,-1,0,6,8,7,2,-3
4891,-6,-11,-4,11,9,16,3,-19
4899,-10,-1,-10,-28,-6,13,1,31
4899,13,13,9,35,44,28,13,0
4915,-3,2,-6,-15,-23,-17,-13,4
4915,-18,4,3,0,-21,-39,-15,-66
4916,38,9,2,-8,0,41,22,65
4916,-10,-17,-10,4,8,-5,0,-9
4938,1,8,4,49,74,50,3,-25
4938,-5,-8,-1,-67,-71,-36,-10,-29
4939,-12,-5,4,7,-28,-15,-16,2
4939,-7,-3,-2,3,8,-30,-4,-4
4951,10,-6,1,19,36,64,16,-31
4951,5,8,7,33,46,-2,10,39
4959,-14,-12,-13,-20,-88,-78,-42,-36
4959,7,14,-1,-25,-16,3,13,-11
4975,-12,-16,-7,-3,-1,-3,-4,25
4975,12,3,33,18,39,54,27,81
4976,7,-12,10,2,31,24,-1,-1
4976,-11,10,3,20,-8,2,-8,13
4997,5,7,5,-17,-21,-38,-13,29
4997,-13,-9,-22,-1,-26,-27,-8,-45
4999,2,-10,-18,-12,17,18,1,47
4999,5,-7,12,0,7,11,0,17
5011,1,-5,-13,-26,-11,10,5,-69
5011,3,6,-1,-4,6,13,-9,-1
5028,-18,-4,-3,-1,19,1,-5,-68
5028,7,0,-10,7,-37,-47,1,111
5035,-4,-4,-1,-9,-14,2,3,55
5035,2,-4,-5,7,3,-18,-9,-39
5037,-3,8,4,-4,24,54,11,-58
5037,-7,0,-1,-6,21,17,12,-39
5057,-8,-8,2,4,-33,-45,-26,19
5057,11,-3,-7,-14,-29,-22,1,89
5059,2,3,-1,15,34,21,9,-2
5059,13,15,8,-1,10,13,1,14
5071,16,-8,10,11,23,27,14,6
5071,-6,15,-8,-8,-15,-12,-6,-91
5080,12,9,5,4,-10,3,11,107
5080,-3,-17,-7,-14,-3,-23,-17,-51
5095,-5,-3,-4,-2,-20,-24,7,39
5095,1,24,-6,-35,2,19,-2,-4
5096,-7,-16,10,44,46,55,14,19
5096,22,9,-4,-21,-24,-46,-1,-16
5118,36,14,13,-2,-33,-26,3,58
5118,-17,-23,-12,-17,-17,-18,0,24
5119,6,10,-5,-4,-2,11,0,-6
5119,-7,-4,4,25,49,69,6,-37
5139,-22,-1,-7,13,18,5,-2,-70
5139,13,-10,1,-15,-86,-83,-29,22
5140,12,-6,-4,-15,-2,-21,8,19
5140,-8,-4,-2,9,21,36,3,-1
5162,-3,1,0,3,34,40,10,-50
5162,-7,2,3,25,8,7,4,53
5164,26,12,0,-30,-3,5,-6,-49
5164,-9,-2,0,8,-27,-41,5,85
5177,-10,-1,2,-32,-15,15,0,-6
5177,16,-3,-18,-1,24,-25,-1,-28
5179,-27,-9,7,22,4,-4,-16,-7
5179,12,6,-20,-38,-20,2,-8,-52
5191,6,3,8,-2,-13,-30,9,60
5191,11,-10,6,10,22,28,14,-12
5207,1,10,3,1,32,21,-8,-39
5207,8,-10,9,22,-32,-6,-1,-71
5214,-26,-1,-11,0,-27,-20,-19,-46
5214,24,1,1,-28,-22,-43,-5,23
5238,2,-24,-8,1,13,10,7,-28
5238,-25,18,-3,33,74,98,12,-1
5239,31,8,5,-17,-32,-44,1,-65
5239,8,-4,-4,30,8,27,-18,-50
5240,-22,-6,-6,-48,-41,-46,-13,24
5240,19,-10,-8,-20,-15,-17,10,98
5251,8,4,2,13,33,35,16,0
5251,1,2,10,42,53,49,25,2
5260,-5,-2,6,26,-11,-4,-8,-34
5260,2,-1,-5,-38,-80,-105,-42,-30
5275,-11,-9,-10,-3,18,-5,-5,74
5275,-6,5,3,-3,21,61,14,18
5276,-22,-1,2,17,-3,-29,-6,-63
5276,6,-11,12,2,27,54,14,41
5305,-9,19,7,11,0,-25,-13,-37
5305,-12,0,-5,-19,-21,-7,5,-37
5306,-18,-7,-13,-13,-16,-15,-9,-32
5306,-9,-4,1,25,5,-7,-4,-24
5311,-2,-14,-3,-20,0,8,0,-16
5311,-2,-6,-4,-5,16,18,-3,-45
5327,21,23,4,7,6,15,-4,1
5327,6,-11,1,-6,3,8,8,7
5335,-12,0,-3,8,-39,-41,-30,-37
5335,-18,1,-2,-19,-1,-7,-3,9
5336,-27,-3,-7,7,15,9,6,-8
5336,6,-16,0,6,-20,-3,-7,22
5357,6,-7,-14,-17,13,14,5,-25
5357,-5,21,9,11,-3,5,11,84
5358,-8,-11,-3,1,3,-8,-6,18
5358,-8,5,4,6,21,13,4,-24
5379,4,-3,0,17,5,12,0,-42
5379,6,-13,2,-14,-28,-23,0,85
5381,-7,-1,-2,5,64,70,21,61
5381,6,14,4,-11,-73,-46,-1,29
5394,-9,-7,-14,-53,-49,-66,-45,-37
5394,-12,-2,-2,11,26,21,3,-71
5397,35,1,-1,-13,-12,-5,9,21
5397,-12,4,11,33,52,49,14,48
5417,-20,-5,-2,21,8,4,0,20
5417,-16,0,-5,-17,-27,-14,-12,-49
5418,2,10,3,-6,-32,-46,-13,-46
5418,-1,1,-10,0,13,10,0,-11
5440,13,4,4,1,14,27,15,46
5440,-33,-17,2,12,19,24,-3,23
5441,3,4,-12,-20,-40,-35,-14,-24
5441,3,8,17,8,-6,-30,1,50
5462,-7,-6,-24,-17,3,13,13,44
5462,17,-11,0,4,9,-3,-4,-41
5463,1,-6,3,0,0,26,20,15
5463,-10,1,-7,-9,16,-22,-24,-105
5484,1,3,3,27,9,25,15,29
5484,19,7,-3,-7,-28,-39,1,62
5486,-11,-1,-1,-15,-10,-21,-6,-28
5486,-15,-6,-10,-1,-4,-2,-4,-15
5500,-10,-8,7,23,28,9,-4,-43
5500,15,7,-4,-27,-13,0,13,29
5502,12,10,5,9,-10,-19,1,40
5502,-11,4,3,0,4,1,-14,-31
5514,2,7,15,27,23,26,23,103
5514,-12,-1,-1,-4,14,22,-9,-69
5521,-5,-10,-4,13,-3,-15,2,8
5521,9,-12,-14,-50,-37,-9,-2,-18
5537,-2,5,4,-16,-15,-9,-8,-38
5537,0,-19,-14,22,23,-5,-1,-37
5539,-4,-1,17,4,-9,5,-8,25
5539,-5,-1,-4,-2,16,4,-9,-84
5560,5,-1,-1,-6,-5,-7,1,-23
5560,-15,-2,4,4,-13,-22,-8,16
5562,8,-5,-6,-3,-5,10,5,30
5562,-6,-9,-3,17,18,11,-16,-45
5574,-2,7,-5,-14,3,2,3,-98
5574,24,0,10,-15,-18,-4,1,32
5581,-10,2,-11,-11,-4,-21,-11,-39
5581,0,-8,-3,-11,-12,2,6,75
5605,16,6,3,18,5,-2,-6,-48
5605,-10,-3,-10,-3,19,17,-11,-92
5606,8,10,15,-4,-23,5,3,16
5606,-9,-21,-13,-15,-5,-19,-1,36
5628,-2,-10,7,22,16,-5,-2,-34
5628,-1,7,8,-1,-8,-10,-11,-73
5629,13,-5,-8,31,12,14,4,5
5629,-7,-5,-3,-35,-3,6,3,14
5634,16,8,1,-22,-36,-27,-8,-34
5634,-10,2,-4,5,13,8,9,-49
5648,-11,-8,-13,12,19,9,6,13
5648,20,18,18,21,8,36,4,-20
5658,-3,-15,-16,-48,-30,-11,0,27
5658,-7,-4,-1,8,3,-18,-7,-11
5659,3,6,3,-14,-13,-7,-8,-58
5659,-7,0,-5,20,14,6,13,20
5680,12,12,10,8,31,44,21,96
5680,-13,-6,-1,-1,-28,-48,-11,-31
5681,-23,-6,-8,-19,-18,-19,-17,-52
5681,19,-11,6,25,31,22,17,68
5694,2,2,-2,-19,-17,-9,-7,1
5694,-9,-2,-4,-11,-18,-4,4,33
5701,13,-2,10,12,27,19,12,72
5701,-15,10,-10,-9,-10,1,8,-39
5717,-8,-10,3,19,-2,-24,-19,-22
5717,12,0,-10,-15,-14,2,-9,1
5719,-7,-7,-5,-10,-7,-12,-1,-22
5719,-17,-5,-8,-14,-4,3,-8,-44
5740,9,12,1,15,21,26,38,99
5740,-7,4,3,10,15,35,6,30
5741,-39,1,-14,-11,-17,-19,-20,-45
5741,-12,5,1,5,-8,-21,-6,16
5754,-30,-18,-5,-14,-14,-16,-21,-71
5754,17,-10,2,-3,0,6,13,7
5762,26,18,-3,7,39,57,17,-3
5762,20,1,12,44,15,-41,-11,-30
5785,30,3,-19,-85,-93,-61,-13,48
5785,-2,2,-2,2,12,10,-2,-28
5786,4,-13,7,10,18,10,8,5
5786,8,2,-1,-6,4,20,7,-12
5800,-3,2,8,33,26,18,-7,-34
5800,0,-14,2,14,21,6,1,1
5801,3,19,9,-22,-48,-33,-2,-12
5801,9,2,0,-8,-11,-16,-15,-70
5814,-6,14,-6,26,20,17,-3,-9
5814,7,6,4,-9,-10,-6,2,67
5821,-4,-5,-1,12,19,9,-1,-5
5821,-8,-6,-5,-10,-6,8,4,-9
5838,-13,-6,2,14,16,26,-5,-25
5838,-11,1,0,4,-3,-21,-2,-8
5839,-3,1,1,8,-3,-27,-12,-19
5839,1,2,-5,-31,-29,-4,5,35
5860,-22,-14,-16,-1,8,4,-1,-6
5860,28,5,20,11,-11,-5,-1,34
5862,2,2,7,-19,-7,-7,-4,8
5862,6,0,0,18,20,26,0,27
5874,-1,-11,0,5,9,4,10,23
5874,-18,-14,-6,0,-17,-17,-6,-23
5882,10,3,-4,5,23,7,-6,-21
5882,-4,-2,4,4,-11,-16,1,-15
5905,-4,6,-1,-27,-37,-31,-22,-29
5905,-3,1,-8,7,17,11,10,5
5907,3,-11,2,-1,-8,11,7,53
5907,-1,-1,-6,8,30,24,3,-14
5927,2,-5,0,-22,-17,-12,3,1
5927,4,6,-6,-8,-4,19,7,-10
5929,-10,-13,-3,-4,-13,-19,-15,-12
5929,-24,-5,-2,8,6,-5,-12,2
5934,19,-8,0,14,6,10,10,-29
5934,-9,16,4,2,-5,2,4,-51
5950,-13,-16,-6,0,5,19,1,-1
5950,14,7,0,-9,-12,-33,-2,-5
5957,-23,-7,4,8,18,10,-15,-81
5957,15,11,-3,15,2,-3,1,36
5959,3,-6,-9,-33,-13,-5,2,-14
5959,5,8,4,9,10,8,-2,-13
5980,1,-5,-2,-5,-4,2,3,13
5980,-3,1,-3,-2,-11,-24,-1,6
5982,-15,-12,2,36,-2,-24,-13,0
5982,5,-18,-19,-68,-23,6,5,51
5994,18,34,23,34,29,16,9,-48
5994,-10,-9,-1,6,25,19,4,81
6002,5,6,6,19,-5,14,2,-44
6002,-5,10,-1,-6,-28,-39,-14,5
6018,-6,-26,-13,-3,-5,-14,-11,-16
6018,14,1,4,17,11,4,20,82
6019,3,9,-3,-49,-13,11,-7,-75
6019,-6,-6,-6,33,18,17,4,-26
6040,2,4,13,3,-1,-1,-9,-34
6040,6,2,-2,-13,1,8,11,-11
6042,1,-1,-3,19,-10,-24,-11,34
6042,5,-12,-8,-29,-9,3,3,20
6054,-13,-2,-2,14,34,19,6,31
6054,-11,0,-9,-18,-27,-23,-10,-87
6063,10,-6,1,9,-15,-14,-1,6
6063,-7,0,-2,-21,-13,-3,-8,-45
6077,-10,-6,-8,11,5,9,-6,15
6077,15,-3,0,-15,6,18,10,-28
6079,1,-5,-9,-12,4,-15,0,37
6079,0,-2,9,12,2,10,-4,14
6100,11,35,3,-2,-9,2,10,-17
6100,-10,5,-1,9,-8,-19,-21,-23
6101,-9,-19,-4,-28,0,14,3,-31
6101,5,2,3,23,10,17,7,-75
6113,-6,-10,-8,-36,-31,-37,-5,33
6113,-13,-10,-2,0,-5,-5,-12,-42
6123,-18,3,-4,17,14,1,-13,-35
6123,12,3,1,-5,8,17,11,15
6138,7,0,6,-4,8,21,8,21
6138,-13,4,-7,2,4,-13,-11,-39
6139,-2,-1,5,7,-26,-31,-12,-34
6139,-5,-4,-11,-17,-13,-6,-2,18
6160,4,-6,-7,5,1,-5,3,-1
6160,-7,-9,-5,-4,20,29,-5,5
6161,11,19,7,18,28,19,24,79
6161,-2,3,-2,16,-34,-34,-19,-4
6183,-16,-15,0,-24,-15,-9,-14,-42
6183,-9,-12,-3,-4,10,6,-7,-65
6184,6,-4,0,2,-24,3,16,61
6184,10,16,6,-3,17,-36,-5,-26
6205,-6,-2,-5,6,-15,-6,-7,11
6205,6,9,5,4,6,7,2,7
6206,12,-2,4,-1,-2,0,-7,-69
6206,-4,2,-2,1,-1,12,5,37
6227,9,-4,-1,9,14,9,8,28
6227,-13,-7,-13,-14,-17,-17,-9,-54
6228,5,7,11,10,21,23,5,15
6228,-4,-15,-6,-10,-8,0,-7,-30
6234,0,5,7,9,-2,-3,-13,-43
6234,14,3,6,0,-8,-9,8,35
6250,16,29,-6,0,-6,-8,-10,21
6250,-14,-5,3,31,16,-1,-3,-88
6257,-3,-3,0,-48,-23,2,7,36
6257,-5,-5,-2,-7,4,18,2,-3
6258,-12,-10,-6,7,22,5,-1,27
6258,3,5,9,20,-7,7,5,-3
6288,8,1,3,-9,8,-4,6,43
6288,-16,-4,-4,-7,-17,0,4,107
6289,5,2,4,-6,-10,-19,-11,-14
6289,2,-3,1,3,-11,-1,-2,57
6302,-11,-8,-3,15,15,10,4,-28
6302,2,9,4,-2,8,0,-1,-9
6303,-6,-16,-13,-7,-6,6,7,-12
6303,-6,0,9,35,17,-19,-17,-18
6317,-4,-5,-21,-39,-43,-18,-6,-37
6317,7,-2,16,-6,8,-11,0,-47
6318,4,2,-2,-9,9,14,21,51
6318,-10,-3,3,-24,2,18,-3,-35
6340,0,-1,-1,23,15,7,-1,-29
6340,-6,-2,-4,34,0,9,-4,-9
6342,-2,-6,-2,-3,-20,-23,-2,-19
6342,-1,4,-10,-52,-14,-5,-1,53
6363,17,-3,1,8,2,-7,4,25
6363,-3,-2,7,12,12,10,12,52
6370,-1,6,1,9,21,17,2,-39
6370,-4,0,-8,-4,-16,0,-4,4
6376,-14,-20,-3,9,-5,-22,-13,-21
6376,1,3,0,-1,14,10,4,-11
6383,-5,-7,-3,-13,-17,-21,-8,-24
6383,3,9,-1,6,2,-8,0,-20
6400,-5,9,0,-7,-10,5,-1,34
6400,-1,-10,-19,-9,-10,-15,-7,-81
6402,-2,-2,20,11,10,11,6,24
6402,-6,-7,-3,-30,12,21,5,-22
6423,-9,9,10,19,20,5,-3,-45
6423,32,10,1,-3,-27,-32,-2,32
6424,0,4,-8,-16,-3,1,0,-68
6424,-1,-7,5,-14,-8,6,3,-1
6438,-5,14,8,7,13,9,8,-23
6438,8,-3,4,9,10,7,5,31
6439,-7,-11,-10,-15,-25,-11,-15,-41
6439,7,11,14,16,9,-8,5,55
6460,9,1,-12,8,5,4,4,3
6460,-19,-9,-1,-5,1,14,-10,-59
6460,2,4,2,-17,17,10,6,65
6460,-21,-19,-25,-29,-41,-34,-20,-98
6481,61,17,-1,14,6,5,25,105
6481,-23,-15,3,9,-4,-13,-16,-38
6483,4,-4,-1,-14,11,24,7,-5
6483,2,4,4,38,25,18,8,4
6504,-13,-3,-6,-19,-9,-7,-3,-15
6504,-1,-2,0,-39,-24,-10,-5,11
6506,0,-5,-4,-8,11,17,1,37
6506,-12,-9,0,10,-3,-24,-12,-48
6519,-9,-7,-2,-10,-21,-19,-4,50
6519,8,5,0,4,8,4,3,45
6526,-22,-6,-6,14,10,0,-15,-53
6526,28,6,4,23,27,22,16,10
6550,-18,-2,-4,-44,-62,-23,-22,-99
6550,-10,0,-8,-4,3,-12,1,46
6550,0,1,3,20,5,-6,-4,-30
6550,-2,-2,2,-15,8,20,4,-2
6573,-9,-16,-5,9,17,3,1,-3
6573,-7,1,-6,-6,-15,-12,-15,-41
6574,12,7,-1,-11,-9,-8,11,23
6574,1,-1,-3,-35,-18,11,-3,22
6579,-26,-6,5,9,9,-5,-8,-43
6579,-2,-5,-1,18,6,-3,-7,-69
6580,9,-5,-4,-19,-12,-4,6,88
6580,18,20,2,6,-3,-5,8,14
6601,-1,-6,2,19,28,24,8,41
6601,-1,-4,-1,1,-12,-12,-2,16
6602,-3,3,1,12,6,-8,-17,-42
6602,3,-5,-1,8,-15,-10,4,15
6625,-5,0,-2,-10,0,5,-6,-42
6625,5,13,6,17,12,10,9,22
6626,1,-8,0,5,-1,6,6,-6
6626,-9,4,-6,-1,-10,-17,-17,-71
6639,15,8,7,-1,-10,5,10,57
6639,5,-3,5,32,27,0,0,20
6646,7,10,-4,-47,-27,7,4,-25
6646,-8,-1,-4,-19,8,27,-5,-2
6662,-6,-1,0,8,6,-33,3,-49
6662,12,-1,-8,-16,-31,-14,14,91
6663,-10,-4,0,8,8,0,-5,-47
6663,-2,-10,2,37,26,6,7,22
6692,0,1,1,6,-4,9,4,5
6692,-5,-4,-8,-24,-4,7,-3,-16
6692,10,1,1,16,-14,-15,0,42
6692,2,-3,-2,-13,-16,-37,-5,-50
6699,-7,-7,2,49,15,6,-6,7
6699,9,19,-7,-53,-13,1,0,-22
6715,-8,-3,0,12,22,31,9,-26
6715,2,-1,5,10,15,7,2,15
6721,10,0,0,-11,-14,-29,-7,29
6721,-13,6,-2,4,-24,-14,3,44
6722,-3,-2,-1,19,7,-5,-7,-70
6722,6,10,-6,-23,0,16,1,-29
6745,-2,-1,-1,-8,26,28,-2,-55
6745,-7,-10,0,6,-2,-6,1,-37
6746,-9,-5,1,12,0,-20,-12,8
6746,0,-16,-3,-9,-20,-8,-8,27
6759,12,24,0,15,1,-2,0,-11
6759,-10,-9,-2,-15,21,43,0,-45
6760,-5,2,-5,-17,23,-6,9,19
6760,-4,-12,-6,-21,-73,-38,-11,40
6782,6,-6,-9,-17,-14,-18,-6,19
6782,-4,0,5,0,9,4,-7,-26
6782,-3,1,0,26,14,6,4,2
6782,-7,-4,-2,12,24,26,8,10
6804,-9,-5,1,1,14,7,1,-10
6804,17,3,1,-12,-31,-28,-3,13
6806,-4,-12,-2,26,8,15,-6,-30
6806,-2,0,1,-24,-18,-13,-6,-19
6827,-1,-6,-2,-14,6,22,2,2
6827,-2,-5,0,18,28,16,4,-56
6828,1,5,3,4,-6,-13,2,38
6828,-6,0,-1,11,-4,-9,-12,-53
6850,-10,-6,-4,-9,-12,-23,2,7
6850,-6,-1,7,-5,-11,8,-3,36
6851,7,-14,-7,-16,-12,-6,-5,-86
6851,1,6,4,23,48,38,19,107
6872,9,19,9,-7,5,15,7,-17
6872,4,0,-3,4,-29,-69,-5,8
6873,-20,-4,-10,-21,-43,-27,-32,-51
6873,0,-13,-6,-16,24,13,26,81
6879,-1,3,5,52,23,22,-5,-52
6879,-9,-8,-9,-9,28,52,9,-15
6880,2,-1,2,-54,-42,-24,0,18
6880,1,10,-6,6,-32,-30,-21,-32
6902,-1,-6,-3,1,0,-31,-14,22
6902,-2,-6,-1,7,12,10,10,27
6903,-7,6,9,1,20,38,10,25
6903,6,1,4,32,20,3,2,-45
6924,8,0,1,5,-10,-14,12,111
6924,-6,-5,-3,16,-9,-35,-25,-104
6925,2,-2,-9,-9,-16,-1,-2,-18
6925,3,1,3,8,17,35,6,-11
6939,-7,-5,-3,-16,-1,23,8,3
6939,-3,3,-3,-19,-22,-37,-15,-14
6940,7,-4,-3,13,4,1,13,67
6940,-3,15,3,-5,-12,-22,-21,-20
6970,-8,-10,-5,16,14,0,-8,-115
6970,11,-7,-3,-35,-7,24,17,81
6971,6,7,1,4,2,0,0,47
6971,0,-11,0,18,30,29,6,-38
6992,-10,-2,0,28,0,-33,-10,0
6992,-6,-1,-6,-37,-44,-17,-9,-49
6993,1,6,0,9,-4,-14,-5,-34
6993,4,-1,-4,-5,-2,9,-8,-64
6999,-1,11,1,-7,8,22,7,1
6999,4,0,6,17,21,15,8,-38
6999,-4,9,1,29,11,-45,-3,-5
6999,-6,-11,-11,-51,-55,-29,-27,-21
7021,-5,-8,-5,-25,-22,-15,2,-40
7021,-4,7,2,20,27,23,5,30
7022,2,-2,2,-8,28,58,8,-3
7022,1,4,6,11,19,-4,5,37
7046,-4,-5,-2,7,-34,-31,-16,10
7046,-16,-18,-8,-10,-18,-9,-1,-72
7046,9,3,2,17,21,11,11,25
7046,2,-2,-3,4,1,25,9,-29
7061,0,0,3,4,16,10,3,0
7061,-6,3,6,26,0,-17,-9,-54
7062,-7,-5,-11,-21,-19,-32,-4,-24
7062,-5,-13,-7,3,-27,-23,-13,7
7081,-1,0,-2,-2,14,5,-2,49
7081,10,6,-2,-1,16,47,13,63
7082,0,4,9,8,1,-35,0,-62
7082,11,5,0,-25,2,2,4,106
7106,-10,-11,-4,-16,-24,-4,-4,-17
7106,5,12,1,3,10,12,-1,90
7106,-1,9,-3,-7,-9,-1,-3,4
7106,-5,0,5,25,36,21,4,-69
7126,-2,-4,0,-8,-11,4,-6,-83
7126,3,-2,-1,-12,-5,-17,13,103
7134,-9,-7,-6,-31,-19,13,-6,-47
7134,-3,3,8,44,19,-14,-12,-15
7149,4,6,0,-47,-13,19,3,-8
7149,-3,-9,-7,-8,-4,-20,1,3
7150,-1,-2,-1,2,-4,15,-12,0
7150,0,-1,-3,-46,-27,-30,11,38
7171,-2,-14,-2,18,15,44,2,-3
7171,3,25,9,13,24,-12,-1,-28
7180,1,-13,-6,1,-8,4,-3,-29
7180,1,15,-2,15,-3,11,-2,55
7182,-2,-2,-4,-11,-1,-44,8,8
7182,4,-12,-4,-9,-5,16,-1,-18
7183,5,10,7,27,11,18,-9,2
7183,1,-2,3,31,6,0,19,55
7203,-9,-6,-11,-40,-26,2,-17,-87
7203,-1,4,4,2,23,31,6,-22
7204,-6,-15,-13,-30,-38,-60,-6,20
7204,-5,-3,3,8,11,-2,0,-48
7224,4,9,0,-8,5,12,10,95
7224,-3,-11,-3,-1,2,-11,-10,11
7225,11,12,2,12,5,6,4,-19
7225,-2,-6,-5,-56,-6,10,-3,-30
7239,1,-3,-3,0,-1,-4,-6,-34
7239,-4,3,3,6,-23,-7,-2,60
7240,-7,-4,2,-1,15,8,-4,-75
7240,-2,-11,0,19,16,-6,11,-16
7270,7,14,7,15,15,17,9,79
7270,4,-4,-3,10,-15,-34,-15,-26
7271,-11,0,0,-15,-18,-14,-14,-38
7271,-8,-3,-7,-16,0,23,-14,-21
7292,-6,-6,-1,-13,2,-15,7,-18
7292,6,3,-3,-19,-7,-2,3,-37
7293,-1,-4,-4,1,12,37,7,-39
7293,3,-12,2,14,-10,-42,-7,17
7299,9,11,-3,18,14,14,11,-30
7299,-4,-2,4,5,-20,-14,-3,-19
7300,-3,-10,-5,-16,3,11,-2,18
7300,-3,-6,5,23,18,18,2,-27
7322,-3,-6,5,31,19,-8,-10,-46
7322,1,-1,-1,-8,-14,21,4,-12
7322,5,-6,-1,5,-1,-21,0,34
7322,-17,0,-8,-4,-6,-14,-23,-108
7344,11,5,8,5,15,18,21,87
7344,-14,-2,-3,8,2,-20,-5,-75
7344,8,3,2,-7,-23,-7,10,97
7344,-8,-2,-8,-36,-20,-15,-20,-93
7361,8,17,7,32,23,41,8,-14
7361,-2,-10,-11,-24,-20,-23,9,67
7362,-5,-1,-6,-11,-19,-33,-21,32
7362,5,2,2,4,14,-1,4,30
7381,-7,1,3,39,-6,20,1,-43
7381,8,5,4,8,23,18,7,-27
7382,-7,-16,-5,1,5,6,2,-22
7382,7,0,3,9,8,26,11,-26
7404,-7,-12,-4,-8,-12,-34,-21,-57
7404,-10,-1,-2,-22,-31,-25,-18,-47
7404,7,1,3,11,22,19,13,59
7404,2,2,-8,-29,-19,-6,8,-20
7428,5,-3,-3,-11,-6,16,1,76
7428,-9,-10,3,20,16,-39,-11,-55
7429,2,5,-3,-34,-14,15,6,41
7429,-1,6,4,1,8,39,15,-29
7450,10,2,-3,8,-17,-52,3,77
7450,-7,-4,-5,-6,5,17,-16,-23
7451,5,3,4,22,18,5,20,-10
7451,7,7,-3,-6,-6,3,2,7
7464,-10,-9,-5,-30,-14,-11,-12,-24
7464,4,-17,-5,3,11,15,7,19
7464,-2,8,4,24,14,13,-2,-40
7464,-4,1,-1,8,-7,-11,5,36
7481,-15,-9,-14,-25,-10,-20,-12,-54
7481,7,-8,12,40,18,6,5,31
7482,6,2,-3,-39,-29,1,-8,-41
7482,2,0,-2,-4,3,11,3,73
7502,-15,-1,-1,-18,-10,-17,-20,-99
7502,14,5,3,15,9,11,29,88
7503,0,-1,-6,-2,4,-6,-5,-91
7503,-4,0,7,8,-7,-12,-10,-41
7524,-5,-6,-3,4,20,21,11,-39
7524,15,19,-3,6,4,12,21,32
7525,2,2,10,-2,5,5,-3,1
7525,8,-4,-12,-14,-30,-39,2,77
7540,4,1,6,13,-1,0,2,2
7540,-14,1,3,-19,7,7,-9,-44
7540,1,0,3,13,22,22,7,69
7540,-3,-6,-6,-6,-23,-29,-25,-64
7569,-10,-5,-12,-18,-8,8,-1,-42
7569,-1,3,-4,-13,-5,5,0,19
7571,-7,0,-6,-6,-14,-20,-3,50
7571,-14,-12,0,-3,-3,-24,-17,-40
7592,12,-7,-5,-5,-2,11,4,-9
7592,-16,9,0,5,23,20,-3,-31
7594,-11,-1,5,-2,-1,-7,-18,-85
7594,28,13,5,8,3,24,40,109
7599,-6,1,-4,-16,-20,-19,-12,-74
7599,5,-2,-2,-7,12,-18,-9,-50
7600,-4,-2,5,30,14,24,15,13
7600,-28,-11,-5,-18,2,0,-13,-42
7622,18,5,2,-8,-15,-35,-10,127
7622,-8,-5,-4,7,-1,-16,-14,-38
7637,4,9,-4,19,-21,17,7,-10
7637,-1,-1,4,-2,35,12,-4,-34
7644,11,6,21,24,8,24,28,29
7644,-5,-16,-9,-2,-35,-31,-31,-45
7645,-5,-4,-1,8,18,-35,-17,-18
7645,0,8,-4,5,15,40,8,-15
7661,8,5,-2,2,2,9,14,19
7661,-13,-2,1,-1,-14,-23,-16,-39
7662,10,-7,-5,-7,0,19,-7,-18
7662,1,9,4,-4,11,-4,1,-32
7682,-6,-7,-8,-36,-20,-35,-7,-20
7682,-33,-8,-11,-40,-56,-9,-38,-128
7689,0,-11,-5,-8,10,1,8,-38
7689,16,1,5,23,21,23,15,60
7712,18,9,5,11,35,19,0,32
7712,-4,2,10,38,13,12,8,-1
7713,-30,-7,-6,-23,-32,-23,-30,-97
7713,43,12,6,-2,-2,5,49,69
7719,-16,-6,-2,11,-1,-3,-17,-128
7719,1,2,-2,-7,4,10,12,-19
7720,15,3,4,8,5,-10,-3,15
7720,-25,-11,-12,-15,-14,-8,-4,-16
7749,-7,-1,3,-3,2,0,0,11
7749,17,5,4,29,7,7,7,41
7750,-5,1,4,-9,-5,2,0,-10
7750,-9,-12,-10,-4,-5,-6,-14,9
7764,-2,-5,-1,-8,-7,-2,-4,-17
7764,-12,0,-14,-5,10,4,-11,-61
7765,13,9,25,14,-3,-3,16,88
7765,0,0,4,5,-2,-4,-7,-57
7780,-12,-3,-2,1,-3,1,-4,-15
7780,8,-2,0,0,5,1,7,14
7780,7,-2,-12,-11,-7,-6,0,24
7780,0,4,3,2,-5,-7,-17,-39
7801,-15,-4,1,21,5,-1,0,-10
7801,17,3,-1,-26,-11,9,18,66
7802,-3,0,-7,-7,0,-7,-12,-69
7802,0,4,4,3,-8,-3,10,43
7824,1,-2,-8,0,-4,-7,-5,0
7824,7,-1,5,5,9,5,-3,-15
7824,0,-4,-4,10,-2,1,1,40
7824,-23,-8,-4,-3,-4,-4,-16,-91
7872,19,3,2,-7,-1,4,11,47
7872,3,1,3,0,1,-1,2,23
7873,-7,-6,-7,-10,-7,-10,-9,-41
7873,-11,0,-1,7,-2,-3,-16,-84
7878,5,2,-3,-4,2,5,12,63
7878,5,1,2,-2,2,3,20,53
7878,-6,-4,-4,1,4,4,-8,-66
7878,-1,-3,-2,0,-5,-2,-4,13
7892,-4,0,-1,-5,-3,-5,-1,-20
7892,1,-2,-3,-3,-2,-3,-2,4
7893,3,0,-1,-1,-1,-6,2,32
7893,0,0,0,-1,1,4,7,21
7899,2,-1,1,1,2,4,-5,-15
