0,0,0,-2,0,-2,-1,12,14
0,-4,-1,0,-1,0,-5,3,3
1,-2,0,-1,-1,-1,0,-6,-4
1,0,0,0,-2,-1,3,-1,-7
1,1,-3,1,0,-2,-1,0,-2
1,-3,0,-1,-1,-2,-5,3,3
3,-2,0,-1,-2,-1,-2,-6,0
3,0,-1,-3,1,-1,0,-2,-2
3,0,-1,-2,-1,1,1,5,-6
3,-1,1,0,0,1,-6,4,14
17,-4,-1,1,0,-2,-2,-4,-1
17,0,-3,-2,-2,0,3,-2,-8
26,-3,0,-1,-1,-3,-1,-1,-6
26,-1,-2,-2,-1,0,-4,3,2
34,-1,-2,-2,-1,0,-2,-3,-5
34,2,-2,-2,-1,-2,3,-2,-3
48,0,0,-2,-1,-1,0,-2,1
48,-4,-1,-1,-2,-2,-2,-3,1
62,2,-1,0,-1,-2,1,-2,-3
62,1,0,1,0,0,3,1,-2
64,0,-1,-1,-1,-1,-2,1,2
64,-1,-1,0,0,-3,-3,-2,-3
124,3,0,0,1,-1,6,3,-4
124,0,0,-1,-2,-1,0,8,1
126,-3,-1,-1,-1,-1,-6,0,1
126,1,0,0,-2,-2,-1,1,9
127,0,-2,-2,-1,1,4,-2,-5
127,0,0,-1,1,-3,-1,1,-2
133,-3,-1,-1,-1,-2,-4,1,6
133,0,-1,-1,-2,0,-4,-8,-6
133,1,-1,-2,-2,-2,3,-2,-4
133,-1,-2,-1,-1,0,1,0,-3
138,-3,-2,0,-2,-1,-5,2,3
138,-3,0,-2,-2,-2,-2,-6,-9
138,1,-3,0,0,1,1,8,3
138,-2,0,-1,-2,0,0,-1,-1
153,1,0,-1,0,-1,-1,3,2
153,-1,0,-1,0,0,1,-8,-5
168,-1,0,-1,-2,-2,0,-5,-4
168,1,-1,-2,-1,-1,-3,4,3
191,-1,-1,-1,0,-1,-3,0,0
191,-1,-2,-1,0,-1,2,-3,0
192,-1,0,-3,-1,-2,0,-6,-3
192,-1,-1,0,1,-2,-3,-3,-3
197,-2,0,-1,-1,-3,-3,5,3
197,-2,-2,-1,-2,-2,0,-5,-5
198,2,-1,-1,0,0,-1,-2,-2
198,-1,0,-2,-2,1,-2,-1,-3
220,-2,-1,-1,-1,0,-3,-5,-4
220,-2,-1,-3,1,0,0,-4,-10
220,0,-1,-1,-3,-1,0,-3,14
220,-2,0,0,-2,0,1,0,3
242,0,0,-1,-1,-1,-1,2,-1
242,1,-1,0,-1,-1,1,1,1
243,-1,-1,-2,-1,-1,-1,-2,-4
243,-2,-2,1,-1,-3,-1,5,-2
261,-1,-1,0,-2,-2,-2,-8,1
261,0,-1,0,1,-1,-1,0,1
264,-2,0,-1,-3,0,-1,-4,-9
264,1,-2,-1,-2,0,-1,5,1
288,-1,-1,-2,-1,-1,-1,0,-3
288,0,-2,-2,-2,-2,-2,-6,8
289,0,-1,0,-1,-1,0,-2,-11
289,-3,-1,0,-1,-2,-1,1,7
311,1,0,-1,0,0,-1,-2,0
311,1,1,-2,-1,1,0,-1,-1
311,0,0,0,1,-2,0,-1,-1
311,-1,-1,-2,0,-1,-3,1,-3
318,-2,-1,-1,0,-1,0,1,-2
318,0,1,-1,-3,0,0,0,0
319,-2,-1,0,-2,0,-3,-3,0
319,0,0,-2,0,0,-2,-2,-5
356,-1,-1,-2,-2,1,1,-6,-1
356,0,-2,-1,-1,1,-1,8,6
357,1,-1,-1,-1,-2,0,-3,-5
357,-1,-1,-2,-1,-3,-3,0,0
363,-2,-1,0,0,0,-1,-2,-3
363,-1,-1,-1,-2,0,-1,-4,-5
363,0,0,-1,-1,-1,-1,-1,-4
363,-1,-1,0,-2,-1,-3,-2,15
386,-3,0,0,-1,-1,1,3,-6
386,0,-1,1,-1,0,0,-3,-2
388,-1,0,-1,-1,0,-4,0,-2
388,-2,0,-2,-1,-2,-1,1,-5
402,2,-1,0,-1,-2,0,5,7
402,-1,-1,0,1,0,2,-5,-2
403,-2,-1,-2,0,-1,-1,-4,1
403,-2,-2,0,-1,-1,-3,3,-8
423,0,-3,-1,-1,-2,-1,3,1
423,0,-2,-2,-3,-3,-3,-7,-5
423,-1,0,-2,-1,-2,1,-2,-5
423,0,0,0,-2,-1,-3,-1,13
468,-2,-1,-1,-1,-1,1,-2,1
468,1,-1,-1,-1,-1,-3,-5,-4
468,-1,-1,-1,2,1,0,1,3
468,-2,0,-1,-1,-1,0,1,-6
493,-2,-1,-1,0,0,-3,-4,4
493,0,1,0,-2,-2,0,7,-6
494,2,-1,-2,-2,-2,-1,1,1
494,-1,0,-2,0,-1,0,2,0
501,1,0,0,-3,1,-1,-3,-21
501,-4,-1,-2,-2,-1,0,-1,-7
502,0,-3,-2,-3,-4,-2,0,4
502,-1,-1,-1,-1,0,0,-4,-10
530,-1,-1,-2,-2,-2,-1,-3,-13
530,-2,-1,0,1,1,2,-1,17
530,3,-2,-1,1,-2,-3,0,11
530,-4,0,1,-2,-2,-3,1,2
532,0,1,1,0,-1,0,-3,-1
532,-1,-3,-2,-2,0,5,3,18
535,0,-1,-1,-2,0,-6,0,7
535,-1,-2,-4,-1,0,1,-3,-12
542,-1,-1,-2,0,1,-1,-2,9
542,2,1,-1,1,-4,2,-9,-5
543,0,-2,0,-1,0,1,9,1
543,0,-3,0,1,1,-6,-3,-1
558,0,-1,0,-2,-2,-1,-1,-4
558,-1,-3,-2,-1,0,-1,-4,-10
564,-3,0,-1,0,-2,-1,-5,1
564,2,1,0,-1,1,2,0,13
588,1,0,-1,-1,-2,-2,9,20
588,1,-2,-1,1,-2,-1,-2,-11
589,-1,0,1,1,-1,0,-4,-19
589,-3,-2,1,0,-3,-1,10,6
610,0,-2,-3,-2,-1,-5,-6,3
610,-1,-1,-1,-1,-1,-3,-7,-9
635,-3,-3,0,-1,-1,1,2,-18
635,4,0,-1,-1,-1,-1,7,54
636,-1,-1,-1,0,0,0,-4,-3
636,0,0,-1,-2,0,-2,2,-7
637,-1,0,0,-2,-3,-1,-8,3
637,-2,-1,0,0,-2,-6,-6,-28
641,-3,-1,-1,-1,-1,-3,5,13
641,0,0,0,-1,-1,4,-10,-21
643,-3,0,-2,0,-2,-4,-3,0
643,-1,1,0,-3,-1,-1,2,-21
662,-1,-1,-1,-1,0,-2,5,2
662,-2,-2,0,1,1,1,-4,-2
663,-2,-2,-2,-1,0,2,0,-3
663,-1,-2,-2,-2,-2,-5,-5,-21
679,-3,-1,0,0,0,3,-2,9
679,-2,-1,-2,-1,-3,0,-2,-10
680,3,1,-2,0,1,0,-4,24
680,-5,-1,-1,-1,0,0,-6,-20
700,0,-2,0,0,-1,1,5,-16
700,2,-1,-1,-2,-1,-1,-16,-5
701,1,0,-1,0,-1,-2,12,52
701,2,0,-1,-1,-1,-2,-8,6
722,-1,-2,-1,-1,-1,-3,-4,-10
722,-2,-2,-3,0,0,0,3,8
723,-2,0,-2,-2,-1,-3,-5,-19
723,-3,-2,-1,0,-2,-2,2,6
745,-2,-1,-1,0,-1,-1,-4,5
745,0,0,0,1,1,0,-2,-18
746,2,-1,-2,-3,-1,2,-4,-19
746,-1,-1,-2,-1,-1,-2,-1,12
769,0,0,-1,0,-4,-6,-5,-13
769,-3,-1,-1,-3,-1,0,-2,8
769,3,0,0,-1,0,1,13,18
769,-2,2,-1,-1,0,-3,-8,-12
790,0,-3,-2,-2,-1,0,-6,-19
790,0,1,-1,1,-1,0,-3,3
791,-1,-2,0,-1,0,0,-17,22
791,-2,-1,1,0,0,-3,13,-8
797,-3,1,0,1,0,-2,-1,17
797,3,-1,0,-3,-2,2,5,24
804,-3,-2,-2,0,-1,0,-6,-20
804,-1,-1,-1,0,-1,0,2,9
820,-2,0,-1,-1,-2,-2,-3,-11
820,-1,0,-2,-1,0,0,1,-7
821,-2,-1,-3,-2,-3,-3,10,-22
821,1,0,0,2,2,2,-3,13
842,-3,-1,0,-1,-2,0,4,-46
842,2,-1,0,0,-2,-2,-8,20
843,-3,-1,-1,0,-1,3,-6,-30
843,-3,-3,-2,-1,-1,-2,1,32
865,0,0,-1,-1,-1,-1,-7,-26
865,1,-3,1,-1,0,1,6,14
866,-1,-1,-2,-3,0,0,-12,-9
866,-3,-1,-1,-3,-4,-4,4,-17
888,2,-1,-2,-1,1,1,5,52
888,-2,-1,-1,-3,-2,-1,1,-12
889,1,1,1,0,2,5,6,17
889,3,0,-2,1,-3,-4,-3,28
911,-1,-1,0,0,-2,-3,-6,-12
911,0,1,-4,0,-2,2,8,3
912,-3,-1,-1,-1,0,3,-8,-19
912,-3,-1,-1,-2,-2,1,9,-22
916,-1,-1,1,1,0,-2,-4,16
916,0,-4,-3,-2,-2,0,1,-7
932,2,-1,-1,0,-1,-3,0,-57
932,-6,0,-1,-1,0,-1,-8,-42
940,1,-2,-2,-2,-3,-3,3,72
940,-2,2,1,1,1,4,-14,-30
940,-2,-3,0,-2,1,4,-8,1
940,1,0,0,0,-2,-10,32,-2
962,-8,-2,-3,-4,-4,-1,9,-21
962,0,-2,-1,1,-3,-3,-12,-1
963,6,0,1,-1,-1,0,16,93
963,-6,0,-1,0,2,3,-20,-15
977,-3,-3,-1,-2,-1,-3,2,-22
977,1,0,1,0,1,2,-6,-12
984,-3,-1,-1,-1,-2,-2,4,-50
984,0,0,-2,-7,-2,-1,-1,65
1002,1,-4,-2,-1,-2,-2,-4,-3
1002,-1,3,-3,-2,-2,-1,-12,-65
1003,-1,-1,-1,-1,0,0,-5,10
1003,-4,0,0,3,-1,-8,15,-45
1022,1,1,0,2,0,8,10,40
1022,3,-2,-1,-3,-1,0,-1,-16
1023,-7,-3,-2,0,-6,-6,-23,-63
1023,1,0,1,1,-1,0,-11,1
1045,-1,-6,0,1,-1,-3,-7,33
1045,6,4,1,2,0,2,12,20
1045,5,6,0,-1,0,-1,11,86
1045,2,-1,-2,0,0,2,-1,12
1060,-3,-1,-3,-2,-1,-7,-15,1
1060,-6,-2,-2,-3,0,4,-9,-5
1060,0,0,0,2,3,-3,14,2
1060,-7,-5,-5,-8,-6,-5,-9,-16
1083,-2,0,-1,0,-1,-1,-5,-22
1083,9,-3,-3,-2,0,-1,2,8
1083,-5,-1,1,4,-3,0,-13,-25
1083,2,-6,-2,-2,0,1,-2,-37
1106,-7,-4,-2,-1,-1,2,-10,-57
1106,1,8,0,0,-3,1,3,-23
1107,1,-2,-2,-3,-4,-6,-8,-19
1107,6,12,3,2,-1,-7,-5,-12
1127,7,4,1,0,2,4,5,35
1127,-10,-9,-2,0,-1,1,-6,-34
1135,9,2,-3,-2,3,7,-15,43
1135,-5,-3,-2,-1,-1,0,20,12
1142,-4,-7,-1,-6,-4,-5,-12,-22
1142,3,3,2,3,1,2,-8,34
1143,-3,-4,-3,-5,-2,3,16,-21
1143,-1,-2,0,1,1,-2,-7,51
1167,-6,0,-1,0,1,4,5,-9
1167,-10,-8,-2,-3,-1,1,-13,-21
1167,3,-2,-1,1,-1,-4,5,19
1167,-1,-4,-3,-1,-2,-1,-6,-34
1189,8,7,0,1,2,0,3,-35
1189,-7,-5,-3,-4,-5,-8,-5,10
1189,-4,-4,-1,0,0,2,2,-19
1189,8,2,2,0,2,8,10,11
1202,0,1,0,-1,1,-3,2,-12
1202,-7,-6,-2,-2,-1,3,-19,-19
1203,-3,-2,-1,3,-1,-3,15,-2
1203,0,-1,-1,-4,0,-6,-24,-20
1234,-6,-1,-1,-1,-4,-5,19,-35
1234,18,5,11,2,0,4,-3,49
1234,5,2,-22,-4,0,8,31,47
1234,-4,-1,4,4,-1,1,-12,-45
1248,0,0,-6,-6,3,4,-12,-11
1248,-11,-5,-3,0,-5,-9,-5,5
1250,-10,-2,5,-1,-9,-9,-1,-75
1250,-11,-8,-9,-6,-2,-1,7,74
1262,2,1,-2,0,-5,-3,-6,18
1262,6,0,5,4,2,5,15,8
1263,-9,-4,-4,-4,4,3,-7,8
1263,7,4,1,4,4,6,17,-6
1285,-7,-3,3,2,-1,-1,8,12
1285,-6,-1,-4,-4,-7,-6,-14,-10
1286,1,-4,1,-1,-1,2,-4,-20
1286,-20,-4,-2,0,-4,-24,-34,-78
1308,16,4,1,1,5,11,9,16
1308,8,1,-3,-5,-17,-3,2,-33
1309,2,0,1,-2,7,-4,15,66
1309,-5,-1,3,2,5,5,-10,-24
1322,0,1,4,3,1,-5,-10,-33
1322,-9,-6,-9,-5,5,1,8,32
1330,-5,-3,2,0,-6,-6,-24,17
1330,9,4,-2,-2,2,8,31,43
1345,-5,-4,-3,-1,0,-4,-30,4
1345,1,3,1,2,-1,3,21,-12
1346,-6,-3,-2,-2,-1,0,-14,-33
1346,-4,-3,-3,-14,-8,-13,-1,0
1368,20,4,-2,2,1,8,1,48
1368,2,4,2,0,3,-2,6,-31
1369,1,1,2,-2,-4,-4,9,32
1369,-1,-5,-6,-4,-3,-9,-9,10
1381,-5,-4,-2,-5,-5,-1,-20,-53
1381,9,2,-3,-2,6,18,27,3
1390,-3,0,4,3,1,-7,-22,-108
1390,8,1,-1,3,3,12,39,73
1406,-4,-4,-2,-1,-8,-12,-13,0
1406,-4,-2,-1,1,1,-4,-21,2
1406,17,4,-3,-1,0,7,44,70
1406,1,2,4,8,10,20,-3,4
1428,-8,0,1,0,1,-17,-22,-63
1428,4,-3,-6,-6,-7,-7,5,27
1429,-3,-3,0,-6,-7,-4,-6,-5
1429,7,3,0,1,-6,-11,-9,6
1442,-2,0,0,1,0,9,10,-21
1442,-11,-4,-2,-2,3,0,-32,43
1450,12,4,4,2,2,-2,21,0
1450,-16,-3,1,1,-3,9,-19,-3
1489,0,-1,-3,-4,-4,8,15,-18
1489,0,-2,-2,-2,-4,-19,-28,-49
1490,-9,-7,-1,1,0,0,2,-39
1490,4,0,-3,-2,-4,-15,5,28
1492,-4,2,3,1,0,1,5,-2
1492,-2,-2,0,-1,2,8,8,-3
1495,-6,-4,-3,-1,-1,-8,-8,-81
1495,12,3,1,-3,-8,-1,5,49
1501,-8,-3,-3,-5,-5,-11,-39,-75
1501,20,5,2,3,6,11,51,-10
1510,-4,2,2,3,6,11,-30,-6
1510,-11,-4,-2,-3,-3,-5,-14,-53
1525,-1,-3,-4,-4,-7,-6,18,104
1525,-1,3,2,1,-2,-11,17,43
1526,-6,-10,-7,-6,-6,-5,0,-4
1526,-7,5,-1,3,6,10,-8,-15
1548,3,-1,0,1,5,10,0,8
1548,-7,-3,0,2,0,-2,5,-31
1549,3,3,1,-2,-5,-4,1,26
1549,-1,-4,-1,-4,-7,-16,5,-13
1562,2,3,2,3,6,1,13,9
1562,-1,-4,-4,0,5,8,12,5
1570,-1,-1,1,0,-3,-1,-10,7
1570,-1,0,1,-1,-5,-2,-12,-36
1585,-6,-4,-3,-6,-13,-5,-6,19
1585,2,-4,-4,-2,-1,-13,11,53
1586,6,2,-2,-1,5,5,15,-12
1586,-4,-2,0,6,6,3,-27,-44
1608,-1,2,2,1,8,16,14,2
1608,-9,-5,0,-2,-7,-10,-13,-20
1609,0,-2,-4,-7,-10,-6,-9,19
1609,-5,0,-1,-3,-1,-4,16,0
1631,-3,-4,-20,-10,0,-6,-17,-7
1631,-9,-5,14,-4,-6,-1,13,-3
1631,-1,0,4,9,14,2,-42,4
1631,19,24,21,16,7,12,22,15
1645,-7,-8,-12,-6,-7,-4,-24,-25
1645,6,-2,-24,-14,2,2,-25,-13
1646,-1,-1,27,19,-1,4,27,26
1646,-10,-9,-13,-24,-32,-41,-14,-1
1668,3,7,6,2,2,1,-7,-14
1668,2,-2,4,4,2,8,-19,-15
1669,-22,3,-28,-17,-2,-14,-1,-21
1669,3,-13,0,-11,13,28,12,47
1691,2,-20,11,25,3,3,3,-8
1691,23,84,4,-5,-4,-19,-48,-11
1692,-2,-4,-6,-5,2,19,34,-4
1692,-8,-1,-9,-7,-6,-28,-7,-52
1705,5,-2,-8,-7,-2,9,14,37
1705,-21,-33,-7,-15,-7,10,10,-18
1705,9,6,14,9,-5,-6,-3,-3
1705,-3,3,3,30,29,-14,25,-44
1736,11,0,-1,-1,-6,27,14,-33
1736,-8,-18,3,-1,-9,-20,-2,-66
1737,-7,-16,-21,-30,-19,-2,-2,-37
1737,3,21,14,6,13,8,-8,9
1750,26,-1,16,21,27,19,31,63
1750,-8,6,-11,-3,-8,2,-10,-12
1758,2,-1,0,-1,2,-11,-7,-34
1758,-9,-19,-18,-15,-7,18,-18,6
1781,-15,-19,0,-3,-14,-43,-10,-9
1781,3,33,6,5,11,18,7,15
1781,7,0,10,12,14,18,6,9
1781,21,5,-1,0,1,19,12,35
1788,-12,8,-4,-12,-14,-34,-8,35
1788,-42,-36,-6,-4,-15,-16,-14,-65
1790,24,12,-9,-5,7,-7,22,105
1790,-2,-14,-2,1,15,38,3,-21
1811,-9,12,13,6,20,11,-25,-48
1811,7,-20,0,2,-44,-39,-11,2
1811,-12,0,-1,2,-8,-19,17,-4
1811,1,-9,-17,-22,-21,-19,-11,22
1825,6,-2,2,-1,12,22,-10,-7
1825,-4,-8,3,30,57,39,11,19
1826,7,2,-7,-23,-27,-15,-19,25
1826,-7,-19,-3,-4,-21,-5,-10,-26
1848,-12,-4,-9,-9,-9,-20,9,-23
1848,-9,0,-2,-5,14,18,10,-4
1850,6,6,-8,-17,-8,2,-29,-17
1850,9,3,11,13,-2,-13,26,2
1878,-2,11,-4,-5,-1,4,-24,-69
1878,18,9,2,7,11,1,4,55
1879,-21,-14,3,-3,-22,-12,26,2
1879,1,40,3,5,-8,-8,-23,-13
1886,7,-14,2,11,12,10,-18,-7
1886,1,1,-9,-12,10,21,6,-33
1888,-12,1,-3,4,-4,-7,11,-23
1888,-9,-23,-3,-5,-13,-28,-18,50
1908,15,-4,4,-3,-16,-3,-7,-34
1908,0,15,2,1,8,7,27,72
1909,17,-8,5,9,18,15,-1,41
1909,-9,9,9,11,6,1,-6,-14
1931,-9,-26,-5,-2,-24,-17,-10,2
1931,15,6,1,-6,-7,-10,4,-6
1932,-12,-7,-8,-4,-2,-6,-18,-29
1932,-1,-4,4,4,25,26,24,10
1945,-5,9,-6,-3,5,13,5,0
1945,-4,-25,0,-1,-22,-23,-5,26
1946,-4,9,3,1,6,-8,-3,-13
1946,8,1,-3,-2,-10,7,-13,-30
1969,-11,14,3,1,16,-2,1,-7
1969,18,-7,-10,-7,5,18,26,50
1969,-15,-24,1,6,-9,-15,-17,-28
1969,-6,34,7,-1,-18,-20,-34,-45
1990,4,11,-8,-3,2,8,15,34
1990,2,10,9,9,14,13,6,13
1991,-2,4,8,16,27,3,0,-11
1991,0,-21,-14,-13,-19,11,1,-25
2005,-3,-15,-3,-9,-25,-22,-17,0
2005,-1,6,1,0,2,-7,8,1
2006,-10,3,4,2,-8,-15,-4,-71
2006,-7,-10,-2,7,10,-4,4,47
2029,0,-5,-14,-16,19,21,-25,-31
2029,13,6,16,3,-16,-6,12,22
2029,-5,2,3,5,-11,-27,-14,-22
2029,-5,-21,-5,-2,-2,3,1,12
2051,2,24,-2,0,8,10,9,-5
2051,-9,-18,-6,-6,0,-4,-16,28
2051,3,8,-2,0,8,14,18,21
2051,-5,-14,-3,-2,8,-7,-13,-40
2065,3,35,11,0,-13,1,4,32
2065,-6,-7,-4,-1,-16,-16,-14,-63
2066,-1,-4,-4,-2,-1,-8,-6,14
2066,-2,-5,-7,-3,-5,-7,6,8
2088,3,3,3,-1,-7,7,-7,-33
2088,1,-11,1,6,14,0,16,59
2089,7,5,4,4,11,28,2,19
2089,-6,-9,-4,-3,8,-1,-11,-12
2111,-4,-15,-1,-1,-1,-7,-9,3
2111,0,5,-6,-10,-25,-19,-1,-20
2112,-11,-17,-10,-11,-23,-26,-10,-9
2112,11,10,7,12,12,18,13,63
2125,-1,-9,2,13,20,28,9,46
2125,-7,-15,3,-4,-2,2,4,-29
2126,3,3,-4,-6,-10,-7,-1,-1
2126,-4,1,-6,-6,-10,-15,-18,-43
2148,-7,-12,-4,-2,-14,-11,-11,11
2148,-6,-2,4,17,21,27,18,-35
2149,17,5,7,3,10,5,3,49
2149,-5,-6,-5,-13,-23,-5,-1,11
2178,-5,-6,-6,-6,-8,-8,-1,-28
2178,0,9,-9,-2,0,-3,-1,7
2178,11,2,10,12,15,27,10,39
2178,7,19,1,-6,-5,-10,-9,5
2186,-9,-26,-7,-14,-31,-43,-18,-39
2186,-9,25,-1,2,-9,-12,-9,-12
2194,-12,-14,-6,-5,16,20,18,-22
2194,10,17,4,17,30,29,-3,21
2207,2,-2,5,-8,-5,31,18,20
2207,-5,-4,1,0,-1,-41,-30,-22
2216,-1,-10,-3,-1,-11,0,11,17
2216,-3,-10,-3,8,-2,3,-6,-38
2231,1,5,-2,2,6,11,7,7
2231,4,-9,3,5,19,25,6,-8
2232,-5,-3,3,-3,-22,-29,-15,-10
2232,-8,-8,-2,-9,-8,-23,-5,-84
2253,0,-2,1,2,5,-4,8,40
2253,7,4,-9,-6,2,17,-4,6
2255,-16,-28,-13,-16,8,-3,-4,-17
2255,8,-4,10,6,-15,28,-3,17
2275,0,14,-1,5,-7,-53,-8,-49
2275,-2,-13,-7,-8,-8,-6,-8,-39
2276,-1,16,-3,-10,-4,14,-26,-5
2276,-8,-36,-6,-2,10,7,43,20
2298,11,32,8,4,14,23,-12,-29
2298,-2,-9,2,5,-14,-10,1,3
2300,-2,5,-1,-4,-8,-13,-11,-4
2300,-6,3,-6,-10,3,-1,-12,-10
2304,2,-24,-5,5,4,4,11,-12
2304,7,21,6,2,5,14,1,57
2321,-5,16,6,7,8,-1,1,-39
2321,-9,-12,-4,-11,-14,-4,-7,25
2327,1,-17,-2,-1,-4,-11,0,8
2327,2,23,-2,-5,-11,-12,-13,3
2342,-3,6,-3,-1,14,18,10,-35
2342,1,1,4,10,13,-7,3,21
2350,-5,-7,-7,-7,-23,0,-20,23
2350,-12,-19,-5,-7,-6,-3,-4,-32
2366,-3,3,-4,-1,-1,-31,2,16
2366,4,-16,-11,-17,-14,-2,-9,25
2367,9,15,3,4,15,30,9,-14
2367,-3,-23,3,3,5,7,12,-30
2374,0,-4,0,1,-5,-7,-4,7
2374,-9,19,1,-1,-2,-4,-25,-44
2395,9,-20,-5,-13,-8,-9,15,28
2395,-6,6,-1,-1,1,11,3,1
2398,4,-8,1,9,17,37,0,38
2398,2,2,-5,-11,-9,-50,9,-28
2411,-10,-5,-4,-7,-40,-9,-15,6
2411,2,52,8,5,20,5,11,-11
2412,-2,-12,2,5,16,31,-1,15
2412,8,19,-2,5,-5,-11,-10,-13
2432,-4,-12,-2,2,-1,-11,-5,-7
2432,-1,-26,-6,-3,-12,-15,1,8
2434,-4,10,-1,-6,-6,-13,0,-4
2434,7,0,5,4,19,37,5,-28
2456,6,20,3,-3,12,-1,-2,1
2456,-5,-1,-3,0,-25,-20,-6,5
2462,-2,2,2,4,5,4,-13,-27
2462,-2,-15,-2,-1,-9,-23,17,33
2469,-1,-8,-4,-8,-4,0,-4,-7
2469,-6,-7,-5,-4,14,15,9,22
2478,2,11,7,11,4,1,-3,-33
2478,3,1,1,4,12,20,-3,8
2485,-3,-3,-3,-2,9,22,-3,-12
2485,-2,-8,-21,-25,-30,-46,-12,-8
2493,0,-8,6,1,-39,-18,-2,8
2493,-5,-10,4,4,5,-7,1,14
2508,4,17,1,4,22,18,9,-29
2508,9,12,5,5,25,19,4,14
2514,-2,-1,-9,-7,5,15,6,11
2514,-13,-11,1,2,-16,-18,-5,-13
2530,1,-1,-2,-9,-29,-28,0,-6
2530,-5,-5,-2,-2,0,-2,3,-24
2533,0,-1,1,1,21,26,5,30
2533,6,13,1,1,25,55,1,-2
2553,-12,-23,0,5,-27,-66,-5,-10
2553,-4,-12,-6,-7,-32,-33,-19,-3
2555,3,14,8,6,9,1,11,-14
2555,16,-8,-1,6,21,44,-1,-25
2576,-10,6,3,-1,35,36,17,39
2576,-24,-35,-16,-5,-24,-28,-5,-56
2578,13,3,1,-6,-36,-51,-7,-16
2578,14,31,2,-6,3,8,1,23
2598,-7,-7,2,12,21,33,1,-18
2598,8,0,7,9,25,31,10,65
2600,-9,-12,-10,-14,-8,-13,-3,-3
2600,2,4,2,-2,-40,-46,-18,-7
2621,2,-2,-7,-6,2,-1,9,-3
2621,1,-6,0,2,20,35,1,8
2622,0,-1,6,15,21,6,-8,4
2622,-12,6,1,-2,-22,-31,-3,-8
2628,10,15,0,-3,-21,-11,-4,100
2628,7,-2,1,2,7,-4,9,-61
2641,-4,-1,-8,-6,17,39,0,0
2641,-2,6,2,-3,1,-4,-10,2
2651,8,4,0,0,-8,-11,-5,-9
2651,1,3,1,-7,-11,-10,5,6
2653,-12,5,-5,-4,-8,-9,-10,10
2653,-20,-24,-4,-2,2,8,4,-22
2673,9,23,3,10,31,29,1,-50
2673,8,9,7,-4,-30,-25,-6,96
2674,-9,-18,-9,-11,-36,-46,-13,-28
2674,-8,2,-5,0,17,7,-9,-39
2687,-9,-9,-3,0,11,27,16,-32
2687,12,19,13,12,27,13,16,59
2694,2,9,1,3,-11,5,-17,19
2694,8,16,5,-1,-11,-20,-5,13
2711,12,1,-1,-1,3,6,5,-5
2711,-16,-9,1,3,4,9,1,-38
2712,0,-4,-7,-6,0,8,-6,29
2712,0,-13,-5,-6,3,5,28,-14
2733,-6,-7,2,4,18,14,-2,1
2733,0,23,-2,-6,-34,-31,-8,-12
2734,-1,1,1,-4,-12,-28,-4,-36
2734,9,-4,-5,-2,8,12,-8,54
2747,2,2,-2,0,-3,-6,10,34
2747,4,-15,3,2,7,15,1,-4
2755,-25,-19,-5,10,9,5,-19,-88
2755,4,6,3,1,-5,-6,2,12
2772,5,-7,-1,-7,-24,-26,-12,-27
2772,1,-2,-11,0,22,24,11,-11
2777,-4,1,7,2,14,14,6,8
2777,-5,-19,-13,-8,-48,-37,-9,-25
2794,-1,17,2,-4,1,-6,3,2
2794,-2,-9,-5,-3,4,-5,-12,-27
2795,6,5,-6,-4,13,20,8,1
2795,-15,-26,-3,4,6,16,6,39
2808,9,-12,2,-1,-13,-10,-13,-15
2808,4,9,-2,-2,1,7,12,41
2814,0,-3,-3,-10,-2,-6,1,-3
2814,2,-2,-2,-4,4,-9,-28,-25
2830,-17,-15,-1,2,-20,-11,41,17
2830,-3,-15,-8,-5,13,3,-24,-29
2833,18,15,4,-1,-19,-11,-7,8
2833,-1,9,0,-4,2,1,9,73
2853,-2,-3,-3,-1,6,0,-2,-9
2853,-11,-13,5,11,-1,-2,-4,-16
2854,6,6,1,2,6,12,15,28
2854,-2,-8,-14,-9,7,7,6,-73
2876,-11,-7,11,-2,-9,-5,-11,-14
2876,2,11,-2,-2,-9,-10,10,35
2877,-9,-21,0,0,-8,-9,-5,-18
2877,13,19,2,5,18,11,2,32
2898,-4,-7,-7,-2,0,-13,-12,2
2898,-19,-11,-5,-5,-8,-3,-4,-92
2899,16,11,6,6,-8,-12,5,41
2899,-1,0,3,6,16,21,1,-13
2921,1,29,5,12,4,-2,8,42
2921,2,3,4,2,-18,-23,-18,-33
2923,4,5,-4,-1,13,13,10,30
2923,-6,-17,-3,-6,-1,9,1,24
2928,3,-5,-5,-9,0,-3,-7,-8
2928,-3,1,-1,2,0,-6,7,-5
2942,-8,-12,2,-1,-1,-2,0,14
2942,4,4,-7,2,3,9,-4,-19
2951,-19,-9,-1,-3,-5,1,3,-13
2951,6,3,-2,2,-1,8,-7,-15
2953,0,16,-2,-4,0,-23,18,-20
2953,-4,-6,4,-1,-22,-10,-14,-23
2973,-7,14,-3,1,21,17,8,-21
2973,-1,-14,-3,-7,1,4,-5,6
2974,-6,-3,-2,-2,7,13,-6,-48
2974,3,10,0,1,3,-10,-5,4
2988,0,-4,-5,-5,-13,-4,-1,-4
2988,-3,-4,-2,-1,-1,-6,7,16
2995,5,-2,0,-3,-8,-2,-8,20
2995,-3,-5,2,-1,-2,1,-3,-32
3011,12,-9,-2,-3,5,0,11,31
3011,4,20,1,-2,-1,2,-6,-2
3012,-3,2,-9,-5,-4,0,-7,3
3012,-5,-8,0,-1,-6,-14,2,12
3034,6,-14,6,9,-6,-12,-5,7
3034,16,9,1,1,-1,0,0,-11
3035,-7,-16,-3,-2,-4,0,4,30
3035,-14,2,-2,-4,9,15,-7,-54
3047,-5,-6,-10,-5,7,12,1,-1
3047,7,-18,1,-5,-30,-32,1,64
3054,8,17,4,0,1,3,-5,4
3054,3,5,-5,-9,4,5,1,-14
3071,-9,-1,0,-4,-3,6,3,-21
3071,0,-8,3,9,13,-3,-2,46
3072,0,-2,0,9,-12,-18,-3,-26
3072,2,-9,-1,-4,-8,-9,-1,37
3093,8,19,-4,-5,0,4,7,-7
3093,-8,-5,-7,-10,2,-1,-5,-23
3095,-6,-15,9,12,8,5,1,14
3095,20,20,6,7,1,2,13,90
3107,-5,-2,-4,-4,2,2,-8,-41
3107,-20,-22,-9,-13,-8,0,-9,-18
3116,3,5,-3,-3,-4,-1,3,-5
3116,-8,-9,4,3,3,-3,-6,-43
3130,17,5,-1,-5,-11,-3,-5,44
3130,-6,0,1,6,18,21,12,-25
3132,-10,0,-7,-5,-15,-22,-22,-18
3132,5,-3,2,-2,4,18,10,-3
3153,-3,-2,3,4,-5,-21,-11,-24
3153,-4,-12,-9,-15,-14,-15,-3,4
3155,-9,-1,-3,-2,6,9,-10,-46
3155,6,8,4,11,11,6,-2,20
3167,-6,-11,-7,-8,-17,-7,3,-13
3167,-3,-15,3,7,6,3,16,16
3176,-3,1,-5,-11,3,5,-1,-39
3176,-8,-2,-1,0,-3,-1,-14,-15
3191,1,-18,-5,0,13,21,7,0
3191,5,18,11,3,-7,-23,-9,-26
3193,3,21,-2,-9,-28,-14,24,52
3193,0,6,-2,1,11,6,-3,1
3214,-10,-8,0,-1,2,1,-1,-16
3214,-1,7,-2,4,17,29,-7,33
3215,-4,-6,1,-4,-7,-27,-10,-6
3215,4,-18,-6,-12,-32,-25,-7,-39
3226,6,16,-1,-4,6,0,4,65
3226,-9,-8,5,11,14,19,-2,-20
3236,5,-4,-3,2,11,5,-3,2
3236,-10,-10,0,1,-7,4,-4,-21
3251,-8,-13,-6,-2,2,-16,-5,-1
3251,31,28,-12,-22,-19,-5,2,-33
3252,1,-4,13,9,5,5,-9,-4
3252,-8,-2,-2,3,2,-5,1,30
3273,-6,11,3,8,14,20,-1,-9
3273,1,-1,1,1,4,3,-13,-20
3274,2,-3,-7,-5,-16,-20,8,-8
3274,0,-1,-8,-15,-15,-18,-2,-12
3287,-3,-2,4,2,3,2,-3,1
3287,-17,-5,-4,0,-1,-3,-11,-79
3296,27,12,4,5,19,29,-4,17
3296,1,31,6,3,-1,-4,6,-44
3311,-1,-26,-3,-4,-6,0,-15,-6
3311,-2,4,-1,-6,-12,-19,5,-8
3312,-14,-20,-9,-6,3,7,0,36
3312,5,0,-7,-10,-4,-2,-2,-15
3334,-2,6,9,11,5,1,-6,-9
3334,-1,-1,5,11,1,5,13,48
3334,4,-8,-4,-4,0,2,10,32
3334,10,-2,-6,-7,-9,-17,1,75
3347,3,4,0,-7,-5,-2,0,-39
3347,5,8,3,5,7,6,8,40
3362,-12,-9,-9,-5,-2,6,2,-18
3362,-2,2,3,-3,5,-6,1,-41
3371,-3,-29,-6,-3,-14,-13,-12,16
3371,-7,-4,0,4,1,-7,-3,6
3373,10,1,-1,5,15,21,-5,-5
3373,-3,-5,5,5,4,1,12,45
3394,-4,8,-6,-5,2,10,10,-15
3394,1,-15,0,-7,-18,-25,-18,20
3395,6,32,2,-5,-7,-13,1,6
3395,-5,13,6,16,17,21,-13,2
3407,9,7,-1,2,2,1,28,3
3407,-7,-4,-6,-1,4,4,5,-3
3416,-3,-13,1,-2,-2,-2,-7,-15
3416,-3,-10,-3,0,-4,3,-10,-26
3431,9,16,3,1,1,-6,-8,-3
3431,-8,2,-6,-3,3,14,4,-31
3432,-2,-8,-2,-7,-10,-26,-2,-4
3432,2,0,1,4,-1,7,-2,-4
3453,-19,-16,-9,-6,5,8,-2,-28
3453,16,3,16,11,-2,-6,17,65
3455,-1,20,0,-1,-12,-7,-31,-30
3455,-13,-13,-9,-5,2,4,17,-30
3476,9,4,0,1,4,-1,-9,7
3476,-5,2,-2,-6,-2,2,-1,0
3477,-9,-8,-4,-1,0,0,1,-4
3477,3,-2,1,-1,-6,-8,-12,-19
3498,-5,-6,-1,0,-1,-10,6,1
3498,5,12,-1,-1,4,9,1,-7
3500,-3,-12,-5,0,9,2,4,-4
3500,-4,-1,2,-3,-8,-2,-8,-21
3521,5,4,-1,4,-2,-7,3,-22
3521,1,3,-3,-5,-2,-2,-2,-48
3523,-3,-2,3,4,3,8,-7,-26
3523,3,4,1,-1,3,1,5,-1
3543,-5,-8,0,0,-7,-11,-3,11
3543,-5,-11,-11,-10,-13,-17,-11,-14
3545,2,0,6,0,3,4,4,-10
3545,10,7,0,5,8,15,-8,-5
3550,-4,10,2,1,-2,-2,0,13
3550,-8,-5,-3,0,7,1,2,6
3552,-3,-10,-4,-7,-11,-20,-5,8
3552,-2,-13,-6,-4,-11,-10,-3,-19
3573,1,7,4,0,1,5,1,81
3573,3,-2,-10,-6,7,12,2,-40
3574,-3,-4,5,4,9,16,6,-25
3574,-5,-3,1,0,-5,-10,-8,4
3595,-2,1,-5,-3,-8,-10,0,-1
3595,-6,1,-2,-3,-1,1,0,-9
3597,-2,-14,-2,3,3,7,10,35
3597,-8,-17,-10,-9,2,1,-4,-13
3610,12,25,10,9,-4,-7,-19,-22
3610,1,8,6,5,0,-5,23,16
3616,4,-2,-2,3,-3,-6,8,43
3616,-4,-7,-6,-4,-1,4,-3,-34
3641,-6,-6,-7,-6,1,6,3,-30
3641,2,1,4,2,4,4,2,30
3642,1,6,-4,-1,-3,-3,-8,-15
3642,1,2,-2,-6,-11,-12,-3,12
3663,0,-7,-1,-1,-1,-2,2,10
3663,-2,1,2,0,-1,1,-6,-19
3665,-3,0,0,0,6,10,0,-1
3665,1,0,-9,-10,1,4,-10,5
3670,0,0,-4,-7,-10,-10,6,-12
3670,-8,-11,1,5,-1,-4,-5,11
3686,3,1,-7,-5,-4,-1,-5,-18
3686,1,6,6,5,10,16,-3,-30
3709,3,1,-1,-4,-1,-13,15,42
3709,-1,-1,-5,-9,-20,-13,-5,3
3716,-2,-3,0,0,2,-5,14,-3
3716,2,-4,3,7,3,1,-12,-6
3717,2,-1,0,-1,6,-2,5,-1
3717,-3,2,0,1,-4,-1,-7,-20
3719,3,2,-1,-1,-3,-2,-7,21
3719,2,10,2,2,6,10,1,14
3730,-4,-17,-1,4,1,1,16,-11
3730,1,23,3,0,0,-4,-7,9
3738,-11,-7,-2,-5,-10,-11,-13,-45
3738,3,0,2,3,-1,-2,3,6
3753,-1,1,-1,0,0,6,-11,-11
3753,3,-7,-4,2,9,4,-6,-19
3754,-1,-1,-2,-5,-2,-6,10,-16
3754,-2,-1,1,0,-8,-11,-7,9
3776,-4,-3,-1,3,-6,-9,-9,-24
3776,-7,-8,-2,-2,6,22,7,13
3777,0,6,1,0,-1,-27,-13,-3
3777,4,-3,-7,-8,-2,6,5,-6
3806,-2,3,4,-1,9,8,0,6
3806,-2,-2,0,4,-11,-5,-5,6
3807,-2,0,-2,-1,2,3,1,2
3807,0,-4,-1,-3,-5,-13,-14,0
3821,-5,1,-2,-4,1,4,3,-33
3821,8,-2,2,4,4,-4,6,76
3822,0,-6,-4,2,2,10,11,-23
3822,-6,-3,-1,0,-10,-7,-11,-40
3843,7,3,-1,-1,2,4,-3,31
3843,-2,-3,1,-4,-2,-7,1,-29
3850,-3,2,2,4,7,20,1,12
3850,-1,-11,-3,0,1,9,0,-8
3850,-1,13,-3,-3,-28,-38,3,-9
3850,2,-2,-1,-1,4,-1,9,12
3866,-2,-4,-1,1,7,9,-10,-15
3866,-5,-2,-2,-5,9,16,-5,3
3873,-2,-6,1,0,-4,-4,-14,-16
3873,1,-2,-6,-2,-7,-14,16,14
3875,-2,3,3,6,4,4,-1,8
3875,0,4,0,-1,-1,6,3,1
3896,-3,-5,-4,-4,2,-2,-13,-28
3896,-4,3,2,0,-9,-11,7,48
3897,-1,-2,-2,-4,-4,-2,12,-19
3897,4,7,2,-1,-5,-1,16,64
3918,4,1,-3,-1,0,10,-4,0
3918,-6,-5,0,1,10,6,-11,-30
3920,1,0,-2,-2,0,2,2,-7
3920,0,-2,0,-2,-7,-9,-6,1
3933,-5,-7,-2,-1,-2,0,-3,9
3933,-6,-3,-3,-5,-4,12,5,-18
3939,3,2,-2,-2,0,-25,-11,14
3939,-4,0,2,1,5,7,-8,-45
3963,0,0,1,5,15,18,18,15
3963,2,-6,-6,-6,-11,-19,-9,-10
3965,-3,-10,-1,-5,-20,-6,-18,-4
3965,0,5,3,9,4,-3,20,35
3969,1,-3,-4,0,3,0,-8,-44
3969,-10,-5,0,0,-3,6,-6,-51
3978,10,1,1,-1,3,6,14,93
3978,0,-3,-5,-3,-2,-13,-7,-16
3993,-2,1,-1,-2,0,10,-12,-19
3993,1,0,0,-2,-1,-7,9,-14
3995,-6,0,-3,-2,-5,-9,-16,-5
3995,-1,-2,-4,-2,-5,0,-4,-28
4016,7,0,0,1,-1,7,-1,39
4016,-8,-3,-1,-3,1,-30,-7,-33
4017,16,10,8,7,7,11,21,66
4017,0,0,-4,-6,5,11,-14,-46
4029,-5,-19,-6,-5,-11,-1,4,-7
4029,-2,4,1,1,-4,-11,12,20
4038,-3,3,1,2,4,3,-9,-16
4038,6,4,-1,-2,2,4,5,0
4053,-1,0,1,1,-1,-7,-20,24
4053,0,-3,-1,-2,-1,-6,1,-9
4054,-7,-3,-3,-6,-12,-8,-10,-19
4054,3,-4,-1,0,1,1,12,17
4084,5,7,0,-2,-3,1,9,-8
4084,0,0,0,3,5,10,-9,-44
4085,-1,6,0,2,3,6,2,42
4085,-7,-4,-1,-3,-8,-17,-11,-25
4098,-6,1,2,-1,2,6,-2,-22
4098,1,0,-4,-3,-1,1,9,18
4099,-7,-10,-6,-5,-5,0,-7,-42
4099,-7,-2,2,4,6,7,-15,-65
4129,6,1,-1,-3,-4,-1,9,67
4129,-7,2,0,0,-2,5,-3,-22
4130,-1,1,-1,-3,-2,1,7,-30
4130,0,-4,-3,1,0,0,-10,10
4135,-1,-2,0,3,-4,-19,-17,-22
4135,-1,-4,-2,-4,-1,5,22,37
4142,-8,-1,-2,-3,-4,-18,-13,-44
4142,12,8,2,-1,0,3,9,74
4149,1,-4,-1,1,8,4,5,17
4149,-1,-7,-2,3,-7,-1,-5,4
4165,2,2,3,2,5,5,-6,-66
4165,2,-10,-4,0,-2,-4,10,86
4174,0,3,-3,-2,3,4,8,-21
4174,-2,1,1,-3,4,4,13,-7
4175,-3,-6,-5,-7,-11,-5,-9,2
4175,1,1,-2,0,-1,1,-6,-18
4196,-4,-2,1,1,-1,1,-5,-6
4196,-1,1,0,1,1,-7,-5,7
4198,-2,2,3,5,2,3,-2,-13
4198,-2,-3,-1,-1,-2,1,-9,-12
4209,0,5,0,0,4,15,18,-7
4209,-12,-6,-5,-5,-12,-26,-37,-93
4218,4,6,2,1,6,-2,29,99
4218,2,-1,0,-3,-3,7,-2,-43
4240,-5,0,2,-1,-7,-15,-25,-30
4240,0,1,3,-1,4,12,25,20
4242,5,-1,-1,1,9,17,-4,-2
4242,-3,-5,-3,2,-1,-29,-12,-9
4264,-1,-1,-8,-10,-13,7,7,-14
4264,0,1,0,2,2,1,14,72
4265,-6,-6,-5,-4,-13,-17,-34,-1
4265,0,1,0,1,4,16,3,-44
4285,2,-1,0,-1,7,0,3,30
4285,-2,-5,-7,-7,-16,-11,-20,-13
4287,-13,-7,-2,-1,10,8,19,-39
4287,4,6,5,2,4,1,-9,-29
4301,-2,-4,-4,0,-2,-2,-10,13
4301,-1,2,-7,-1,-1,-4,-11,-49
4302,-4,-2,-3,-2,-8,-7,10,5
4302,8,-2,-3,-9,-16,-2,9,62
4316,-9,-1,2,1,2,-1,-4,-48
4316,6,2,1,2,18,16,14,16
4317,-2,-2,-2,-2,-6,5,-6,-31
4317,-4,-1,-1,1,-1,-14,-6,5
4330,6,-5,-4,-2,-1,12,13,17
4330,-3,2,4,6,-3,-9,-22,-75
4345,8,5,4,2,5,4,24,77
4345,-7,-3,-3,-2,2,5,-2,-63
4353,-6,-3,-3,-2,-6,3,-18,9
4353,-5,-7,-6,-6,-18,-30,4,-6
4361,1,-1,1,-5,2,-11,-33,-45
4361,2,-3,-1,4,0,25,32,1
4375,-10,3,3,5,14,5,-5,-20
4375,-4,2,2,3,6,12,1,14
4377,-5,0,-6,-5,-15,-13,-26,-57
4377,16,5,3,4,11,2,11,-7
4389,3,2,4,2,-3,-2,1,13
4389,2,0,3,-1,-4,4,15,32
4405,-5,-5,-7,-6,-1,-7,-15,-59
4405,-7,-4,-3,-3,0,7,-3,-62
4412,10,1,0,0,-2,-3,19,64
4412,1,2,0,-2,-4,-2,-22,-21
4420,-5,-3,0,2,7,1,11,-10
4420,-16,-7,-8,-10,-25,-21,-10,11
4436,-3,-2,-1,-3,-7,-17,0,44
4436,6,4,0,-3,15,21,21,63
4437,8,8,6,5,8,11,-10,-16
4437,2,-5,-3,0,7,14,-9,-11
4450,-10,2,-3,-7,-18,-13,-2,-34
4450,-8,-13,-3,-3,-11,-14,-5,-6
4458,1,-5,-2,1,6,4,11,2
4458,5,6,5,1,11,-2,-6,29
4473,2,3,4,11,12,11,0,12
4473,3,2,-3,-4,-6,-3,-10,1
4479,-3,-8,-6,-9,-13,-19,8,20
4479,-1,-2,-2,-3,-16,-1,-5,-81
4496,-5,-3,-2,-3,1,-21,-5,44
4496,-3,0,1,6,13,16,5,-15
4498,10,7,7,11,11,10,2,3
4498,3,4,-3,-6,0,9,-11,101
4519,15,2,0,-6,0,12,51,-34
4519,-17,1,0,0,-12,-22,-17,-6
4520,2,-1,-1,-4,-2,6,1,59
4520,4,0,1,7,20,8,19,39
4541,-5,-7,-5,-7,-15,-11,-23,-71
4541,12,-1,-3,-8,-13,-12,19,113
4542,2,-6,-5,-4,0,6,-2,-106
4542,-9,-4,0,5,-3,7,0,-25
4557,2,0,2,7,17,12,-5,8
4557,-4,-4,-1,4,3,8,-7,-59
4558,-6,-1,-1,2,1,4,-4,-9
4558,11,2,2,-4,-7,-17,6,89
4586,-1,1,-3,-4,-11,0,0,-57
4586,7,1,-3,-1,3,-9,3,38
4587,-5,1,2,5,7,-7,-10,-66
4587,-7,-4,-6,-9,-2,15,9,40
4592,-5,-8,-1,1,-4,-10,-10,-25
4592,1,2,0,1,0,-13,-5,-21
4607,0,-1,2,7,9,13,8,-2
4607,-5,-4,-6,-5,-11,-20,-14,-73
4615,-15,-4,-3,-3,-11,-5,-9,-103
4615,11,-16,-5,-3,-2,0,-20,-38
4618,1,11,2,3,5,10,-3,-81
4618,-2,-8,-2,1,0,-11,9,-6
4639,-3,-1,1,-1,3,4,1,37
4639,-3,-3,-1,-1,6,2,-8,-53
4640,-3,-5,-5,-1,-19,3,11,40
4640,-1,9,5,1,4,-3,1,1
4652,-2,0,-3,-7,-11,-17,-27,-23
4652,-1,8,4,4,13,16,27,40
4660,5,-2,2,4,10,-3,-4,57
4660,-6,-8,-6,-5,-5,21,1,-45
4675,0,-2,-1,-1,1,-8,14,47
4675,-7,-4,-4,-6,-23,-12,-24,-42
4684,-2,15,-2,-10,-11,-27,-12,51
4684,-7,-4,1,3,7,10,-4,-101
4705,1,3,3,-1,-4,-25,-6,-30
4705,0,3,0,4,14,35,22,41
4707,-1,-10,-1,2,3,-7,-13,32
4707,-7,-5,-2,-1,-10,-5,-7,-50
4712,4,3,0,0,5,6,20,65
4712,-4,5,4,1,0,-12,-15,-28
4719,7,-10,-2,-6,-6,11,2,-6
4719,-4,6,1,-4,-5,5,-14,7
4735,4,-7,-5,-4,-11,-29,-12,-3
4735,-2,-8,-6,-3,10,0,1,6
4738,0,4,1,4,-4,5,7,63
4738,9,2,4,6,6,-2,9,-73
4758,1,-6,-6,-6,-3,14,5,15
4758,3,12,5,2,0,-6,-8,-17
4760,-5,-14,-10,-6,3,1,-3,-16
4760,-5,-6,-3,0,-14,-12,-2,59
4771,2,8,4,0,-5,-14,-1,-12
4771,3,0,0,-4,-2,10,4,-23
4780,-14,-1,-1,-2,3,3,-2,-57
4780,12,5,2,3,12,5,4,-5
4796,-1,-3,-2,3,9,18,-1,-41
4796,-3,5,2,1,-6,-9,-11,-2
4797,0,-1,-1,-5,-8,-3,-1,-18
4797,-4,-11,-7,-4,1,-4,1,14
4819,-5,4,0,1,3,10,3,5
4819,-2,-4,-3,-4,-6,-9,-11,-40
4821,7,-5,-6,-3,-3,-10,-1,12
4821,-2,13,8,8,10,13,2,-10
4840,-2,-4,-1,-1,0,2,8,76
4840,-8,-6,-5,-7,-17,-18,-9,-2
4842,-3,-5,-4,-6,-5,-5,-2,-8
4842,4,1,-1,0,-1,-2,2,27
4863,7,8,4,2,15,10,6,-12
4863,-8,-5,-3,3,6,8,-5,-18
4864,2,0,2,6,-1,-4,-1,40
4864,-3,0,-4,-5,-7,-10,0,-7
4886,-3,-2,-1,-1,-3,-1,-4,-22
4886,9,5,2,3,3,4,3,8
4887,-1,1,0,-2,-10,-8,-16,-54
4887,-4,1,0,-3,0,-6,1,20
4908,-5,-3,-2,-2,-3,2,-2,-26
4908,0,-4,-4,-7,-2,-2,-5,27
4910,4,1,-2,-1,3,4,9,21
4910,-2,-2,-1,0,-5,-5,-6,-9
4915,-1,-3,-2,-2,-1,-3,2,-2
4915,4,-7,0,4,5,9,-2,3
4917,-8,-3,0,-4,-4,0,-5,-59
4917,-5,-5,-1,0,3,-3,-5,9
4938,1,-1,1,1,2,2,11,50
4938,-1,0,0,1,-2,5,-3,-43
4940,1,-1,-3,-2,-5,-5,-10,-51
4940,0,-1,-5,-4,-1,-1,0,16
4952,-5,-2,-4,-5,-14,-10,2,-9
4952,-2,-1,-1,-4,-7,-8,-5,32
4961,-7,-1,-2,-1,3,11,0,5
4961,13,8,5,-11,8,6,13,36
4976,-3,-1,1,10,5,5,2,-22
4976,-4,-5,-3,-4,-11,-17,-8,-34
4982,-14,-5,-3,-1,-6,-7,-8,-47
4982,-1,-1,1,2,0,0,-5,-55
4998,-1,0,0,4,7,6,8,-26
4998,-1,1,0,-1,9,7,-1,-11
5000,4,-2,-2,-13,-1,6,0,15
5000,2,-4,-5,1,-12,-12,3,14
5012,-2,0,-2,-3,-3,-4,-6,-32
5012,2,1,1,1,-5,-9,0,66
5021,6,3,2,-2,5,10,6,-40
5021,-4,-2,0,7,1,2,1,4
5035,-1,0,-1,-4,3,13,-1,-22
5035,0,0,0,0,5,-8,0,5
5038,1,-1,-5,-5,-15,-15,-15,-24
5038,7,-5,-7,-3,-8,-3,23,75
5058,-7,0,-7,0,5,3,-9,-100
5058,-4,-2,1,4,10,15,1,-17
5060,6,3,2,5,7,14,5,41
5060,-6,-4,-2,-6,-13,-16,-13,8
5072,-11,-9,-8,-5,-14,-22,-16,-17
5072,19,4,1,-3,1,12,32,87
5080,-10,-5,-3,3,3,0,-3,-11
5080,6,3,0,3,6,1,-9,-25
5096,2,3,4,4,10,12,1,30
5096,-9,-5,-12,-5,-6,-6,-7,-41
5097,4,-1,3,-2,-16,-11,17,34
5097,-11,0,-1,-2,3,0,-8,-47
5119,-1,-5,-6,-2,1,-5,-7,53
5119,8,3,6,9,3,9,-8,20
5120,-1,1,-7,6,16,18,16,2
5120,-6,-4,-5,-8,-6,1,10,4
5141,-7,-5,4,-1,-18,-30,2,-110
5141,7,1,-4,-2,8,1,21,63
5143,7,2,2,-2,-16,-11,-31,-98
5143,2,0,3,0,7,6,7,80
5164,-10,2,1,0,8,8,-1,-6
5164,-2,2,2,1,-1,7,-7,-5
5165,-4,-3,0,-2,4,-9,-4,50
5165,-5,-5,1,2,-13,-6,-3,-30
5186,3,-1,-5,-6,-4,-3,4,18
5186,0,-1,1,-4,0,-2,-11,18
5187,7,2,4,6,6,7,2,60
5187,-9,0,-4,0,3,-3,-8,-31
5192,9,3,6,3,0,-2,10,47
5192,-11,-3,-1,-4,-11,-7,-12,-91
5209,9,1,0,0,1,1,2,77
5209,-1,-2,-1,-1,-5,-7,0,-9
5215,0,2,2,1,-1,-2,4,-17
5215,-7,-3,-3,-1,0,-1,-6,-23
5230,-2,-1,-4,-3,0,4,-13,-29
5230,-4,-2,-1,-4,-2,0,10,-47
5238,4,0,1,0,3,1,-1,66
5238,1,-1,-4,-2,-2,-3,-3,-17
5239,0,-3,-3,-3,-5,2,-3,-13
5239,-4,0,2,1,2,2,1,-26
5252,-1,-3,-4,-3,-7,-10,-7,2
5252,-6,-1,1,-2,-4,-3,-6,-26
5261,2,-1,-1,-1,2,3,-2,-15
5261,-3,-2,0,1,4,-4,-15,-14
5275,-2,-2,-2,-2,-3,-1,19,8
5275,-2,-1,-1,-1,-2,0,-7,-29
5282,-2,-2,-2,-2,-2,-3,-5,-13
5282,-1,-1,-2,-1,-1,1,-6,0
5298,1,-1,1,-1,-2,-2,-4,19
5298,3,0,-2,-1,-1,-6,7,7
5300,-5,-1,-1,-3,-1,0,-6,-34
5300,-2,0,-1,1,-1,-1,-3,10
5312,0,-2,-1,-2,1,1,0,9
5312,-6,-2,-1,-1,-1,3,-6,-46
5329,3,-1,-1,-3,-4,0,-8,-10
5329,0,-1,0,0,-1,-7,7,11
5374,-3,-1,-1,-1,1,0,0,-24
5374,4,-1,0,0,-1,-1,-6,37
5376,-3,-2,-1,0,0,4,18,13
5376,0,-1,-1,-1,-5,-4,-10,-5
5376,-3,-1,-2,-1,-2,-3,-5,-2
5376,2,2,-1,0,0,2,10,12
5383,-2,-1,-2,0,-1,-3,-10,-6
5383,1,0,0,0,2,2,4,9
5384,-3,0,1,-2,-1,0,-2,-9
5384,-1,-1,-1,-1,-3,-3,2,4
5396,0,-1,-1,-1,-3,2,-10,-6
5396,0,-1,-1,-1,0,-2,3,-11
5396,-1,-1,-1,-1,-1,-1,3,14
5396,0,-2,-3,-2,-1,2,-5,-13
5402,0,-1,0,-1,-1,1,-3,-3
5402,-1,0,-3,-1,0,-3,7,9
5418,-2,1,1,1,-1,-3,4,2
5418,1,0,1,0,-3,2,-4,-6
5420,0,-2,-2,-1,-1,1,-2,-6
5420,0,0,-1,-2,-2,-4,-1,8
5441,0,1,-1,0,-1,-2,2,1
5441,-2,-1,0,-2,1,-1,-9,-13
5442,1,-1,0,0,-1,1,-2,4
5442,-1,-1,0,1,0,0,2,-1
5464,-1,-2,-2,-1,0,-2,5,0
5464,0,-2,0,-2,-1,-1,-3,-2
5465,1,-2,-3,0,-1,-1,-2,-2
5465,-1,-1,-2,-1,-1,-1,0,3
5479,-2,0,-1,0,-2,-1,2,-2
5479,1,-1,-1,-1,-2,0,-3,-1
5482,0,0,-1,-1,0,1,1,-2
5482,-1,-1,0,-1,-1,-4,-1,-4
5501,1,-1,-3,0,-1,-2,-3,0
5501,-1,-3,-1,0,-2,0,-2,-4
5502,-4,-2,-2,-2,-2,-2,-3,1
5502,1,0,-1,-1,-1,-1,1,2
5515,-1,-1,-1,-1,1,-1,-4,0
5515,-1,0,-3,-3,0,0,-1,-3
5522,0,-2,0,1,-2,0,0,-3
5522,1,-1,0,0,-1,-3,-4,0
5538,-2,-1,0,-2,-1,-2,8,3
5538,2,-1,-1,0,2,2,-8,-4
5540,-1,-1,-1,0,-2,0,1,-1
5540,-2,0,-1,0,0,-1,-2,0
5561,-2,-1,-3,-1,-1,1,-3,0
5561,-2,-2,-3,-1,-1,-1,0,-2
5563,0,0,-1,-2,1,1,-6,-2
5563,-2,-1,-1,0,-2,-1,1,3
5574,-1,-2,0,-3,0,-1,-1,-2
5574,0,-1,0,0,-2,-1,-2,-1
5584,0,-2,-1,-1,-2,-1,0,-2
5584,-1,-2,0,0,0,0,0,-2
5607,0,-2,-2,0,-1,-1,0,-1
5607,-3,-1,-1,-1,-3,-1,-4,-3
5609,0,-2,-2,-1,0,-1,-2,0
5609,-1,0,-2,-1,-1,-3,0,0
5628,1,0,-1,0,-1,0,-5,0
5628,1,-1,-1,-1,-2,1,-6,-4
5631,0,-1,-1,-1,0,0,-6,-4
5631,0,0,0,0,-1,1,-7,0
5635,2,-1,0,-1,-1,-1,-11,-2
5635,1,-1,0,0,-1,1,-6,-4
5650,-1,-2,0,-2,0,2,-6,0
5650,-1,-1,1,-1,1,1,-7,-1
5659,-1,-2,-1,-2,-1,3,-6,-3
5659,1,1,-1,-2,0,4,-9,-1
5660,3,-1,-2,-2,-1,2,-4,-3
5660,0,-1,-1,-1,-2,2,-8,-2
5681,0,-1,0,0,0,2,-7,-3
5681,2,1,-2,-1,-1,4,-6,-4
5682,3,-2,0,0,0,4,-6,-4
5682,0,-1,-1,-2,-1,0,-8,-4
5694,0,-1,1,-1,-4,0,-10,-3
5694,0,-2,-2,-2,-2,-1,-8,-5
5704,-3,-2,-2,-2,-2,-1,-3,-2
5704,-2,-3,-3,-2,-2,-1,-4,1
5718,-2,-2,-3,-1,-1,0,-5,-3
5718,-1,-4,-1,-2,-1,0,-2,-3
5720,-1,1,-2,-1,-2,-2,-1,-1
5720,-1,-1,-3,-1,-1,-3,-1,-1
5741,-1,0,-1,1,-3,0,-3,-1
5741,2,0,0,2,1,7,-3,-4
5742,-2,-1,-1,0,4,-5,-1,0
5742,-2,0,-2,0,-4,4,1,1
5763,1,-2,-3,-5,-6,-13,-11,-1
5763,-2,-4,-2,-4,-7,-3,-3,-3
5765,2,1,0,-1,-1,2,2,2
5765,-1,-2,-1,-1,10,-3,0,1
5785,-3,-1,1,1,-6,1,1,-1
5785,-2,-1,0,-2,-4,5,0,0
5788,-1,-3,0,-2,-1,-1,0,-1
5788,1,0,0,-1,0,2,1,1
5801,0,0,-2,0,7,4,0,-3
5801,0,-1,-1,1,0,-4,-2,-1
5803,-2,-2,-2,0,-3,2,-1,-3
5803,1,0,0,-2,-2,-4,1,-2
5815,-4,0,-2,0,-1,-1,-1,-1
5815,-2,-1,-2,0,1,-1,0,-1
5823,-2,-2,-2,-2,0,-3,-1,-1
5823,-1,-1,-3,-1,-3,-4,1,1
5838,0,-1,-3,-1,-3,-2,-3,-3
5838,4,0,-2,-1,0,-1,-1,-4
5839,-2,-1,-1,-1,-1,-2,-3,1
5839,-1,0,-1,-1,-2,-4,-1,-2
5861,-1,-3,0,-2,2,3,0,-3
5861,-1,-1,-2,-1,0,0,-2,-1
5862,0,-1,-1,-2,-2,-4,3,0
5862,-2,-1,0,0,-1,0,-2,-1
5883,0,-1,0,-1,0,1,-2,-2
5883,-1,0,0,-1,0,-2,-2,-1
5884,1,-2,0,-2,-2,-2,1,1
5884,-4,-1,0,-1,-1,0,1,1
5906,-1,-3,-1,-3,0,0,-1,0
5906,1,-2,-2,-1,1,-2,-4,-3
5907,-2,3,-2,0,-3,-2,0,0
5907,-2,-2,-1,-3,-2,-5,-4,-2
5928,-3,-1,-1,-3,-1,0,-4,-1
5928,-1,-1,-3,-2,0,1,-4,-2
5935,-1,-2,1,1,-1,0,1,-1
5935,-1,-1,-1,-1,-2,1,0,0
5935,1,1,-1,0,1,1,-2,-2
5935,-1,-2,-2,-2,-3,-4,-2,0
5950,-2,-1,-2,-1,0,0,2,0
5950,0,-3,-1,-1,0,-3,1,-2
5958,1,1,-1,0,-1,0,-3,0
5958,-1,-1,0,-1,0,0,-1,0
5960,0,-1,-1,-1,-3,-2,-2,-2
5960,0,-3,-1,-2,-3,-1,1,-1
5982,-3,-2,-1,-2,1,-1,-1,-2
5982,2,0,-1,0,0,-1,-4,0
5995,-2,-1,-2,-2,-3,0,0,1
5995,-1,-2,0,1,-1,-2,0,0
5996,0,-3,0,0,-1,-1,-4,0
5996,-2,-1,0,-2,-1,1,-1,-2
6026,-1,0,-1,0,0,-1,2,0
6026,-1,1,-2,-2,-1,-2,-1,-1
6027,-1,-2,0,-1,-1,-2,-3,-1
6027,1,0,0,0,0,0,-3,-2
6029,-2,-1,-2,-2,0,0,-1,-1
6029,-1,0,-1,-1,-2,0,0,2
6048,-2,-1,-2,-1,0,0,0,1
6048,-1,-1,-1,0,0,1,-5,-2
6049,-1,-2,0,0,-1,-2,-1,-3
6049,-1,1,0,0,-2,-1,-1,0
6062,0,-2,1,-2,0,1,-1,-3
6062,0,-1,-1,0,0,0,1,-1
6071,2,-2,-2,0,-1,-2,3,-3
6071,-2,-1,-1,1,-2,-1,-3,-1
6093,0,0,-1,-1,-2,-2,-3,1
6093,-2,-1,1,-1,0,-1,-1,-4
6095,-1,0,-1,-2,1,0,-2,-3
6095,-1,-1,-1,-1,-1,-2,1,-2
6101,-2,-1,-1,-1,-1,-3,-1,-1
6101,-1,-1,-1,0,-1,-1,0,-1
6103,-2,0,0,-2,-2,0,-2,0
6103,-2,-3,-3,1,-2,-1,2,-1
6114,1,1,0,0,-2,0,-2,-2
6114,-1,-2,1,-3,-1,0,-2,0
6162,1,-2,-1,-2,1,-1,-1,-1
6162,-3,0,-2,-2,-1,-4,1,-1
6163,0,-3,-1,-1,0,-1,0,-2
6163,0,0,-2,-2,0,-2,1,-3
6164,1,0,-1,-2,0,-1,0,0
6164,-1,0,-2,-1,0,-1,-2,0
6185,0,0,-2,-1,0,-1,-1,-1
6185,-2,-1,0,0,-1,2,1,-1
6186,-1,-3,-1,1,-2,-1,0,0
6186,0,0,1,0,-3,-2,-2,-2
6187,-2,-2,-1,0,-2,-2,-2,1
6187,0,-2,-1,-1,-1,1,-3,-1
6206,-2,1,-3,0,0,0,4,0
6206,-1,-2,1,-1,0,0,1,-1
6207,-2,0,-2,0,-2,-1,-1,-1
6207,1,-1,-2,-1,-3,-2,-4,-1
6231,-1,-2,-2,0,-2,-1,1,-2
6231,-1,-2,-1,-2,0,-2,-2,0
6231,1,0,-2,-1,0,-3,1,0
6231,-2,-1,0,-2,-3,1,1,1
6235,-2,0,0,-2,0,-1,1,-1
6235,-1,-2,-2,-2,-1,0,0,-1
6236,1,-1,-1,-1,0,0,-2,-2
6236,0,-2,0,-1,-1,1,-2,-2
6251,0,-2,-2,-2,-1,-1,0,0
6251,0,1,0,-1,-1,1,-2,-1
6274,-2,-2,0,-1,0,0,-1,0
6274,0,-1,-2,0,-2,0,-1,-1
6275,-1,1,-1,-2,-1,-1,-1,0
6275,-3,0,-1,0,0,-3,-1,-1
6296,-1,0,-3,-1,-2,-2,0,0
6296,0,-2,-2,-1,1,-1,-1,0
6297,-2,-2,0,-1,-2,-1,-2,-1
6297,-1,-1,-3,1,-2,0,0,1
6298,2,0,0,-2,-4,1,-2,-2
6298,-1,-2,-1,0,-1,-1,-3,-2
6303,-3,-1,0,-1,-2,-2,-3,-2
6303,1,0,0,-1,-1,-2,0,0
6319,-2,-2,-2,-2,0,-1,-2,-1
6319,1,0,-2,-2,0,0,-6,-3
6320,-1,-3,-1,-1,-1,1,0,-1
6320,-3,-2,-2,-2,0,-1,-4,-2
6342,-1,0,-2,-1,-2,-1,1,-1
6342,-2,0,-1,0,-2,-2,-3,-1
6343,1,-1,-2,-2,1,-1,-1,-1
6343,-1,-1,-1,-1,-1,-1,-1,0
6363,-1,-2,-1,-1,-2,-1,-3,-1
6363,-1,-3,-1,-2,0,-3,0,1
6364,-2,0,-2,0,-1,-1,-2,-1
6364,0,-2,-1,-3,0,-2,2,1
6394,-4,-1,-1,0,2,-1,-3,-1
6394,0,-1,-2,-2,0,0,-1,-1
6395,-1,1,-1,-2,-2,-1,-1,-1
6395,-2,-1,-2,0,-2,0,1,1
6408,-1,0,0,-1,0,-1,-1,-3
6408,-1,-2,-1,1,-2,-1,-1,1
6416,-2,-2,-1,-1,0,0,1,-1
6416,1,1,-1,0,-2,-2,0,1
6440,2,-1,-1,1,0,-1,-4,0
6440,-1,0,-1,-2,0,-1,-2,-2
6441,0,-3,-1,0,-2,-1,0,-3
6441,-1,0,-2,-1,1,-1,2,1
6442,1,-1,0,0,-2,0,-1,-3
6442,-1,-1,-1,0,-1,0,-1,-2
6461,1,0,-1,-2,-3,-1,1,0
6461,-2,-3,-1,-2,-3,-2,0,-2
6469,-3,-2,0,-1,-2,-1,0,0
6469,-1,0,0,0,-2,-2,-1,-3
6470,-2,0,0,-1,-1,-1,2,0
6470,0,-1,-1,-1,-1,-2,2,0
6507,-1,-2,-1,-1,0,-1,-1,-1
6507,0,0,-1,-2,-3,-1,-3,-2
6508,-1,0,0,1,0,-1,0,-1
6508,0,-2,1,0,-2,-1,-1,-1
6510,-1,-1,-2,0,-2,0,-4,-1
6510,0,-3,-1,-1,0,0,-2,2
6530,-1,-1,-2,0,-1,0,1,-1
6530,-2,0,0,0,0,-1,-2,-1
6532,-2,-2,0,-1,-2,-2,-1,-2
6532,-2,0,-2,-1,-1,-1,1,-1
6535,-2,-1,-1,-2,-2,-1,-3,0
6535,-2,-1,-3,-1,-1,-2,-1,0
6550,-2,-2,-2,-1,-1,0,-1,-3
6550,0,-2,-3,-1,-2,0,-3,-3
6552,1,0,-1,-1,1,-3,-1,-1
6552,-1,0,-1,0,-2,-3,1,0
6557,-1,-1,0,0,0,-1,-1,-1
6557,-2,-2,1,-1,-2,1,-2,0
6572,1,-1,-1,-1,-2,0,1,1
6572,-1,-2,-2,0,-2,-1,0,-1
6581,-2,1,-1,-3,1,-2,-2,-3
6581,0,-1,0,-1,0,1,0,0
6582,-1,-1,-1,0,-1,0,0,-3
6582,-3,0,-1,-2,-1,-2,1,0
6627,0,0,0,0,-2,-1,-2,-1
6627,-1,0,-1,0,-1,-1,-3,-2
6628,0,-1,-1,-2,0,0,-3,0
6628,0,-1,-2,-1,0,-2,0,-1
6629,0,-1,-2,-1,0,-1,-1,-1
6629,-1,-1,-2,0,0,1,1,-2
6650,0,0,0,-1,0,-4,-1,1
6650,-2,-2,0,-1,-2,1,0,-2
6650,-1,0,0,-3,-1,0,0,0
6650,-2,-1,-1,-2,-1,-2,-1,-2
6652,-1,-1,-1,-1,-2,-1,2,1
6652,-1,-1,-2,-3,0,-2,-3,1
6670,-2,-1,0,-1,-2,-1,-1,-1
6670,1,-1,-2,-1,-2,0,-3,0
6672,-2,1,-1,-1,-2,0,2,-1
6672,1,-1,-1,0,-1,-1,-1,-2
6693,-1,-1,-2,0,0,-1,-2,-1
6693,-1,-2,1,-3,0,-3,-4,-2
6695,1,-3,-2,-2,0,0,2,-1
6695,-1,0,0,-1,-1,-2,-2,0
6715,-1,-1,0,-1,0,-1,-2,0
6715,-2,0,-1,-1,-2,1,-2,0
6717,-1,0,-1,-3,-2,-2,-1,0
6717,-1,-2,-1,-2,1,-2,1,-1
6740,-1,-2,0,-2,-1,0,0,-3
6740,1,-1,0,-1,-1,-1,-4,-2
6742,-1,0,-2,0,0,-2,-2,0
6742,0,0,-3,-1,-1,-1,-1,0
6742,0,-1,-3,-1,-2,-3,-4,-3
6742,0,0,0,-1,1,0,-1,-1
6746,-1,0,-2,-1,-1,1,0,-1
6746,2,1,-1,0,-1,-2,0,1
6761,0,-2,1,-1,-1,-1,-3,0
6761,1,-1,-4,-1,-3,-1,0,-1
6762,0,-2,-1,2,-2,-1,-1,-1
6762,-2,-1,0,-1,-3,0,1,-1
6807,1,0,-1,0,-1,-1,-1,0
6807,-1,-1,-2,0,1,-1,-2,-1
6808,-2,-2,0,-1,-1,-2,0,0
6808,0,-1,-1,-1,-3,0,-1,0
6810,0,-1,-2,0,-3,-1,-1,-1
6810,-2,-2,-1,0,-1,1,-2,0
6813,-1,-1,-2,-2,-1,-4,0,-1
6813,-1,0,1,0,1,-1,4,-2
6829,-1,0,-1,0,-3,1,1,-2
6829,0,-2,0,-1,-3,-1,-2,-1
6830,-2,0,-1,-2,-1,-1,-1,-2
6830,-4,-1,-1,-1,0,-2,-2,2
6851,0,-1,0,-1,2,0,-1,1
6851,-1,0,0,-1,0,0,-1,-3
6852,0,0,-2,-1,-3,0,1,0
6852,-1,-2,0,-1,-3,-2,0,0
6873,-1,-2,-1,-1,-1,-1,-3,-2
6873,-1,-2,1,-2,0,-2,-3,-3
6875,0,0,-2,1,-2,-2,-2,1
6875,-1,0,-1,-1,-1,-1,-1,0
6880,1,-1,-1,-1,-2,-1,1,-2
6880,-2,0,-1,0,-1,-1,1,3
6882,0,-2,1,-3,-2,-2,-1,-1
6882,-2,-1,-1,0,0,-5,-1,-1
6903,-3,-2,-2,-1,-1,0,0,0
6903,1,-1,-1,-1,-1,0,-2,-4
6905,1,-2,-1,-2,-2,-1,0,-1
6905,0,-2,-2,-1,-1,-1,1,2
6917,-2,-1,-1,-1,-1,-1,-1,-1
6917,0,-1,-1,-2,-1,-1,-1,-2
6926,-3,-1,-1,0,-2,-1,-1,-2
6926,-1,-1,0,-1,-1,-1,1,-1
6949,0,-1,-2,-1,-1,0,-2,-3
6949,-2,0,-2,-1,-2,-2,-1,-1
6951,-2,-1,-1,0,-2,-1,0,1
6951,-2,-1,-1,-1,0,-1,-2,0
6970,0,-1,-1,-1,-2,0,0,-2
6970,3,0,-1,-1,-1,-2,-2,1
6972,-1,-1,-2,0,0,1,-1,0
6972,-3,0,-1,-1,-1,-2,0,-2
6986,-2,-2,-2,-1,-1,1,-1,-5
6986,-3,0,-1,0,0,0,-4,2
6987,-2,-1,-1,-2,1,-4,-2,4
6987,0,0,0,-1,-3,0,1,-6
7016,-2,-1,-2,0,-1,-3,-4,-9
7016,-1,-2,-3,-1,-1,2,0,11
7017,-1,1,-1,0,-2,-1,-4,-15
7017,0,0,-4,0,-1,-2,2,13
7023,0,-1,-1,-2,0,-1,-5,-8
7023,0,-2,-2,-1,0,-2,0,-3
7025,-1,-1,-1,-2,0,-1,-2,-1
7025,-3,-2,-1,-1,-3,-2,-4,-19
7037,0,-1,0,0,-2,2,2,9
7037,1,-1,-1,-1,1,-2,-5,7
7063,0,-2,-1,0,-1,-3,1,-7
7063,-3,-2,-1,0,1,-1,2,2
7063,-2,-1,-1,-1,-1,0,-4,2
7063,-1,0,-1,0,-1,1,2,-26
7084,0,-1,0,-1,-1,-1,0,12
7084,-2,-2,-1,-4,-2,-3,1,15
7084,-2,-2,-1,3,-2,0,-2,1
7084,-1,-3,-2,-1,-1,3,-5,-15
7087,-1,0,-2,-2,0,-3,-7,2
7087,-2,-1,-1,-3,-1,-1,3,-13
7106,0,0,-1,-1,-1,1,6,7
7106,-3,0,0,-1,-1,2,-6,-7
7107,0,-2,-1,1,1,-2,4,-7
7107,1,-1,0,-3,-2,-4,-4,2
7128,-3,-1,-2,-3,0,-5,-3,12
7128,0,-1,0,1,-2,3,-1,-10
7130,-1,-2,-1,0,0,2,-6,6
7130,-1,0,0,1,-1,-2,-1,-11
7158,-3,0,0,-2,-1,-2,-2,0
7158,0,-1,-1,0,-2,-1,2,12
7161,-2,-1,-1,-3,-1,-2,-2,-1
7161,0,-2,-1,-1,-1,-2,1,5
7161,0,-3,-2,-1,-1,0,2,-6
7161,-1,-1,-1,-1,-1,2,-2,-1
7165,-2,0,0,1,-1,-1,0,-32
7165,1,0,-1,-1,0,1,-1,50
7180,2,0,-1,-2,-4,0,-3,-10
7180,-1,-2,-2,-2,-1,-1,5,-9
7187,-3,0,0,0,-2,-1,-7,-11
7187,-3,-1,-1,-1,1,0,-7,7
7204,-1,0,-1,1,-1,-3,7,-12
7204,-1,-2,-1,-2,-2,0,2,33
7205,-3,-3,-1,-4,-2,-5,-3,-5
7205,-3,0,1,1,1,0,-9,-16
7217,-2,-1,0,0,0,-2,-7,-10
7217,2,0,2,0,-1,1,10,67
7226,3,-1,1,-1,-1,1,2,31
7226,-2,-3,-1,0,-2,-1,4,-18
7240,-2,0,-1,0,0,0,4,-6
7240,-2,-1,-1,-2,0,1,-17,-21
7247,-1,0,0,0,0,2,9,-1
7247,2,0,1,-1,-1,-4,6,24
7264,-1,-3,-1,0,3,-1,-3,-8
7264,-1,-1,-2,0,-4,4,-17,-26
7265,-2,-2,-1,-1,-3,-6,7,-8
7265,-3,-1,-2,-2,-2,-1,6,-5
7286,-2,-2,-1,-1,0,3,-5,-5
7286,1,0,-3,-3,-4,-9,-5,4
7287,-1,-2,-3,-1,0,2,-2,-23
7287,-2,-2,-2,-1,-3,-3,-5,-16
7300,0,0,-1,-1,1,0,-9,16
7300,-1,0,1,2,2,3,15,-18
7314,3,0,0,-1,-3,-1,11,53
7314,0,-2,-2,-2,-3,-7,-11,-12
7323,-3,0,1,-1,-2,-2,-5,10
7323,2,-2,-3,-2,-1,1,-1,-23
7325,1,1,-1,-1,-4,-2,-5,21
7325,0,1,-1,-1,-1,-2,1,-12
7346,2,-1,-2,-1,0,-4,10,6
7346,0,-1,-1,1,2,1,-7,-21
7348,-4,-3,0,3,5,4,-12,-9
7348,0,-1,-3,-5,-8,-3,10,17
7360,-4,-2,-3,-3,-1,1,-7,-31
7360,-1,-1,-1,-2,0,-2,6,11
7367,3,-1,-2,-1,1,2,1,4
7367,-6,-1,0,2,2,0,-2,-61
7383,6,0,0,-1,-2,-2,12,88
7383,2,0,-2,-2,-1,2,-7,0
7384,-4,-2,-2,-2,0,1,-1,-21
7384,-4,-1,-1,-2,-3,-7,2,-47
7414,1,2,0,-2,-3,1,-17,35
7414,-2,-3,-2,-2,-3,-6,13,-14
7420,1,0,1,1,1,0,-5,-1
7420,1,0,-2,0,1,0,-12,-2
7421,-2,0,1,-1,-1,-5,-6,-45
7421,-1,-2,-2,-3,-3,-3,1,2
7427,-3,-1,-2,-1,1,3,12,-18
7427,-4,-3,-3,-2,-1,-1,-3,0
7451,3,1,-1,0,-3,-6,-1,-5
7451,-5,-1,0,0,0,7,-6,-69
7452,-3,-2,-1,0,-3,-4,0,37
7452,5,1,-1,-1,1,3,2,39
7466,-7,-3,-3,-2,-3,-2,8,-20
7466,0,2,-1,0,2,5,-8,4
7467,-5,-4,-4,-2,-2,-3,-14,-58
7467,6,1,1,2,2,-3,9,29
7480,-9,-7,-3,-1,-1,-4,-17,-39
7480,-1,1,2,0,-1,1,-1,-16
7488,-1,-1,-2,-1,2,7,-1,0
7488,-3,-1,-2,0,-3,-6,2,-13
7504,7,3,-1,-1,-3,4,22,21
7504,0,-3,-3,-2,-2,-1,-12,12
7505,1,-2,1,-1,-2,-7,-11,21
7505,-3,3,2,2,5,5,-6,10
7526,5,2,3,1,3,0,14,36
7526,1,-1,-1,-1,-3,1,-17,-19
7528,6,1,-1,-3,-4,0,16,31
7528,-6,-3,0,1,-2,-4,-15,-25
7548,-4,-1,-1,0,-2,-2,0,-27
7548,11,3,0,2,4,5,-1,57
7550,2,-2,-2,-3,-4,-4,9,-30
7550,-10,-6,-3,-1,-1,-2,-9,-74
7571,-3,-1,1,2,2,2,26,75
7571,6,1,0,-1,-2,0,-8,-32
7573,1,1,-2,0,0,4,-10,-54
7573,1,-2,-5,-3,-2,-6,4,42
7593,-7,4,-3,-3,-6,-9,-11,-54
7593,-8,-5,-4,-3,-2,-1,7,26
7602,2,2,3,1,4,3,-15,-25
7602,0,0,-5,-2,-4,-5,21,21
7602,-8,-7,-3,-2,3,3,-14,-102
7602,8,-3,1,-1,-4,-2,8,81
7608,-1,2,1,-1,-1,-3,-9,-11
7608,1,-2,0,0,0,-7,6,70
7631,-13,-9,-3,0,1,8,-10,-101
7631,12,3,0,0,-4,-1,8,53
7632,-2,-1,-2,-2,-1,0,-2,-19
7632,-2,-1,0,-3,-4,-1,15,-7
7646,-4,-2,1,0,3,-2,-18,31
7646,-5,-4,-1,1,3,4,1,-66
7647,0,-2,-2,0,-2,-2,-8,49
7647,0,-1,-2,-2,-2,-2,11,-36
7659,8,3,2,-1,1,2,9,76
7659,-1,-2,-1,-1,-1,0,-6,-8
7668,-5,-3,-3,-3,-4,-3,-10,-52
7668,-1,3,1,2,2,1,-2,32
7684,-3,-1,-1,-2,-5,-5,-11,-16
7684,-5,-2,-4,-2,-1,0,-17,-30
7685,-1,1,-3,-1,2,2,11,21
7685,-4,-13,2,0,3,0,8,-22
7706,8,5,0,0,-1,-2,-6,24
7706,-6,0,1,1,1,4,9,-97
7707,-4,-6,-4,-3,-7,-3,10,43
7707,1,2,-1,0,1,-1,-1,6
7720,1,-1,0,-2,-1,-3,-5,-9
7720,-2,-3,-1,-1,1,2,-1,-7
7728,2,0,0,1,1,4,1,-48
7728,-2,2,-1,-1,2,2,-4,-3
7743,2,-4,-1,-3,-8,-5,9,-6
7743,-6,0,0,1,1,-6,-19,11
7745,-3,-3,-2,-4,-6,-2,5,-23
7745,9,4,0,0,0,3,23,70
7773,0,-1,-2,-4,-5,-12,-17,-25
7773,-1,-2,-1,0,2,5,0,31
7774,-1,1,2,2,3,-3,12,14
7774,-2,0,1,0,0,1,-16,38
7780,1,0,1,0,-3,-7,6,34
7780,4,-2,-3,-5,-6,0,12,1
7789,-1,0,1,0,2,0,-15,-43
7789,-3,-5,-3,-3,-6,-3,-3,-41
7804,10,3,-1,-1,1,1,8,-4
7804,-2,2,0,-2,0,-4,-7,8
7805,-1,-1,0,1,1,5,-2,-6
7805,-2,-1,1,5,5,4,-5,-21
7826,-12,-8,-7,-8,-5,-12,-4,-12
7826,8,4,1,-1,-13,1,-7,-52
7827,4,2,-1,-3,1,-9,5,33
7827,-1,-1,-2,-3,-6,-6,-13,-37
7849,-8,-3,0,3,12,15,4,5
7849,-4,-2,-2,0,0,-4,1,12
7850,2,-2,1,1,-3,3,3,2
7850,2,3,1,5,-2,-6,1,-13
7863,2,-1,-5,-5,-3,3,-3,-13
7863,-1,-4,-3,-2,0,4,4,-43
7864,-1,1,0,-2,-8,-12,-1,63
7864,-6,-1,-2,-3,-1,-7,-1,-29
7893,5,3,5,7,1,1,0,8
7893,-10,-4,-2,0,4,9,-2,6
7895,-4,-4,-4,-2,-5,-4,0,-35
7895,1,-1,-4,-5,-11,-11,-3,-15
7900,1,-1,0,-2,1,1,3,4
7900,6,0,-1,-3,1,4,-2,-16
7924,-1,-3,-1,0,2,6,6,28
7924,9,3,2,3,10,15,14,15
7924,-6,-4,-3,-3,-12,-14,-23,-36
7924,-4,-7,-3,-3,-6,-6,16,7
7926,-9,0,-4,-4,0,-1,-17,-9
7926,15,3,5,17,4,0,11,38
7945,3,1,-8,-13,20,-3,2,50
7945,5,1,3,-1,-22,5,8,-15
7952,0,-4,-10,-14,-2,0,6,22
7952,-11,-4,2,-6,2,-7,-21,-15
7959,7,1,4,11,0,7,3,23
7959,-6,5,11,21,10,-9,-1,7
7968,11,3,10,15,22,7,7,-8
7968,-8,-10,-21,-20,-23,-3,-15,-21
7983,-6,-3,1,0,-8,-9,-2,-11
7983,-8,-4,-11,-13,-20,-32,-18,-7
7985,-1,-1,10,4,3,8,8,-10
7985,-3,14,5,10,18,10,-1,-43
8006,-1,6,-16,-3,24,19,1,-8
8006,-15,-29,0,-8,-13,3,-7,-1
8008,12,7,-9,-30,-20,-9,-7,-10
8008,-2,-2,-6,-11,-18,-15,-14,-19
8020,10,-14,-4,-6,-14,-7,12,31
8020,15,7,19,40,35,18,1,-10
8028,-17,-49,-29,1,15,1,22,60
8028,-2,17,21,-13,1,4,0,4
8042,-6,8,-6,15,-45,-4,-27,-97
8042,-12,-25,-39,-90,-44,-21,-12,35
8051,5,1,38,20,-7,-31,-3,79
8051,17,34,-4,11,26,31,30,-4
8066,-7,-15,4,3,4,-4,-18,-14
8066,-11,11,-14,6,9,-4,1,-21
8067,-7,4,-7,-15,-26,-5,-7,-9
8067,-24,-21,-25,-10,0,-20,-18,-40
8080,30,4,20,23,35,45,47,58
8080,14,9,22,27,15,5,-8,5
8088,-1,17,-14,-19,-17,-7,-5,-20
8088,-13,-4,7,11,-18,-13,-8,13
8102,-16,3,-6,-29,-15,-20,-26,-30
8102,-13,-32,-15,5,2,-4,25,49
8126,2,-12,29,37,29,24,9,-3
8126,6,7,-1,3,9,0,-12,-41
8129,1,-5,3,-13,-33,-30,-8,70
8129,-13,15,-8,-4,0,-4,-6,-45
8129,22,21,5,21,29,30,13,44
8129,-9,-18,-13,-31,-26,-1,-6,-16
8148,-16,-47,-15,-6,15,0,-2,21
8148,11,43,13,-6,-19,-10,-7,-30
8148,12,53,-5,-7,-12,-21,1,-48
8148,-9,-30,7,11,10,21,-8,28
8172,3,25,11,24,35,10,9,-79
8172,-8,-24,-10,-8,4,21,15,15
8173,-23,-31,-8,-9,-36,-37,-33,-71
8173,14,31,7,6,-4,-26,-4,60
8185,-3,-19,-10,-9,-1,12,-3,-48
8185,17,57,14,14,27,32,4,53
8186,-26,-20,-11,19,42,-3,9,-79
8186,16,0,1,-34,-81,-25,-22,46
8215,-7,-9,-21,-26,-4,-13,-11,-25
8215,2,19,3,4,4,-1,0,-10
8223,-14,-32,-1,9,4,-4,-2,-7
8223,1,-4,-3,8,28,21,18,-18
8238,-3,36,14,11,7,16,-1,-17
8238,36,-18,-9,-7,-2,2,10,6
8239,-3,6,10,4,-24,-33,3,8
8239,-4,-6,2,11,-9,-5,-7,1
8245,-4,5,-8,-13,0,3,-4,19
8245,-20,-19,3,19,15,0,-2,-29
8246,5,0,14,-1,-25,-7,-8,5
8246,-5,-38,-7,1,5,-4,-3,-12
8268,9,17,9,8,10,15,5,34
8268,-13,-5,-3,16,14,-4,-10,14
8268,9,9,-5,-20,-13,17,20,2
8268,-2,-3,1,2,16,-14,-3,19
8282,-7,-17,-7,-2,-30,-8,-20,-45
8282,28,8,-6,-17,7,-5,13,31
8290,-10,4,1,1,-5,2,-9,-10
8290,-7,3,2,13,27,15,5,-21
8305,-20,-24,-1,13,0,5,-2,12
8305,10,15,12,1,-8,-20,-11,-15
8306,-18,-4,-4,-11,5,14,-1,-22
8306,16,12,-1,6,7,4,10,64
8327,-7,-4,-2,-2,6,4,0,-2
8327,-9,-19,1,-5,-23,-19,-5,15
8329,-14,-2,-22,-18,-18,-3,-9,-35
8329,-17,-4,5,-8,11,-11,1,-15
8341,-6,1,0,14,30,25,3,-27
8341,26,-4,3,-27,-29,-8,3,54
8350,10,10,-5,4,13,9,1,-36
8350,-8,-12,-17,-14,-23,-21,-12,-27
8365,7,7,9,3,7,-9,4,13
8365,-22,-21,-4,13,6,17,3,-56
8365,-2,22,0,1,2,-8,-4,60
8365,12,1,4,12,16,28,4,-2
8387,-3,3,-6,-5,-20,-24,-4,-18
8387,-13,-3,-1,-8,-2,29,2,-40
8388,18,-10,1,2,7,-21,5,50
8388,-12,-3,-4,-7,-9,-8,-8,-16
8404,9,-7,0,2,-10,0,-5,-18
8404,7,31,2,12,6,-7,7,-2
8410,7,-7,-5,-16,7,21,-1,40
8410,-9,-7,-1,0,11,-4,4,-7
8425,-9,-10,-7,-4,-19,29,-6,1
8425,8,6,2,5,26,-34,14,25
8426,-9,6,8,6,-34,-15,-10,-64
8426,7,13,-2,-2,-17,-20,-14,4
8448,-3,-5,4,-3,-1,2,3,-58
8448,1,-20,-14,-23,3,27,14,72
8449,-11,-5,-2,14,40,26,1,-53
8449,3,-4,4,4,-7,-16,3,-25
8471,3,-2,-4,-9,-24,-5,-15,11
8471,-12,-5,-2,12,8,-1,-3,-23
8472,7,-28,-7,-8,-1,-11,9,66
8472,7,2,1,-4,-14,15,-10,-26
8493,3,24,2,-7,1,-13,3,18
8493,-3,2,5,6,-2,10,3,-29
8494,5,-8,-9,-18,-2,9,2,-47
8494,-1,-11,2,5,2,-26,1,65
8517,3,13,-1,-7,-31,-23,-13,-18
8517,-9,-17,-3,2,9,8,-11,-12
8517,-1,5,-1,18,37,37,10,-4
8517,-10,-4,-6,-16,-6,-11,1,-38
8521,7,-2,5,4,-5,-15,-9,17
8521,-11,-4,0,5,-18,-23,-10,4
8531,0,3,2,-7,-6,23,16,58
8531,2,0,1,19,22,18,-14,-10
8545,-1,-4,1,-1,-8,-14,10,-54
8545,-4,-2,1,4,-10,4,-5,-7
8545,5,-4,-2,1,22,7,9,6
8545,-3,17,5,-14,0,-27,-3,-10
8568,13,15,-3,-29,-72,-14,-21,-27
8568,3,2,-4,-1,24,-7,18,47
8568,2,-9,-1,13,19,22,10,53
8568,-2,-10,-8,-7,-1,15,-5,-20
8582,3,10,1,7,16,13,1,-24
8582,-5,8,2,-8,-16,-52,-27,-31
8590,-8,-7,-3,-3,-28,-32,6,24
8590,3,4,1,6,16,46,10,-13
8605,6,2,-2,10,38,46,6,-33
8605,3,-15,3,6,1,-1,10,62
8605,-4,41,8,4,-5,-21,-15,-35
8605,-9,-4,-6,-10,-40,-44,-11,-52
8628,1,-19,-5,-6,-9,0,1,28
8628,-4,-6,-4,-7,14,21,3,-21
8628,-3,4,3,-1,-7,-16,-5,-51
8628,12,0,5,9,21,49,12,94
8642,1,0,-1,-2,35,51,4,3
8642,-6,8,6,-1,-21,-71,-4,-41
8650,-4,-8,-16,-23,-66,-65,-29,-17
8650,-5,-13,-8,-17,2,40,7,-26
8665,8,4,9,28,44,14,8,22
8665,-7,-4,3,16,24,61,11,21
8666,6,7,4,-14,-39,-55,-19,-24
8666,-8,-7,-3,-6,-28,-47,-13,-43
8687,0,-16,-6,-3,15,19,26,84
8687,-7,-1,-3,9,21,31,-5,-31
8689,0,-15,0,5,30,41,0,-37
8689,7,23,4,5,-17,-31,-4,65
8704,-9,-16,-5,-11,-24,-45,-12,32
8704,11,0,-4,-4,0,27,14,1
8710,-9,-6,-2,-1,3,0,3,-19
8710,6,-5,-3,8,12,11,-3,1
8725,-10,2,1,-6,-17,-33,-17,-35
8725,-9,-6,-5,-10,-18,2,-7,-18
8725,0,0,-2,-9,3,-14,6,24
8725,5,2,4,10,10,25,-1,-6
8749,4,17,0,4,-1,-47,-6,-2
8749,-6,-8,-3,-6,-35,-36,-8,-19
8750,5,8,0,5,10,14,5,9
8750,-4,-6,0,1,9,9,-2,-43
8771,-2,-15,-7,-4,16,44,5,28
8771,11,-2,1,2,15,0,5,-22
8772,-5,10,0,0,-3,-17,-8,25
8772,2,10,4,-4,-44,-27,-1,29
8793,-5,-21,-6,-3,10,5,-1,-33
8793,-10,-13,-3,-2,8,15,5,30
8794,-9,14,2,2,14,31,-1,-48
8794,28,14,1,9,20,3,19,75
8816,-5,7,-1,-10,-24,-10,-8,-50
8816,-7,-3,-6,-9,-29,-29,-8,-13
8816,-2,-13,-4,-5,-13,-30,-1,4
8816,-14,4,-2,-4,-3,7,-10,-32
8822,9,-3,3,16,46,59,13,13
8822,1,8,0,-3,4,-16,-4,-11
8838,-8,-5,-3,-2,-36,-4,-6,-7
8838,-2,-13,-8,-13,-2,-10,-4,-11
8845,-7,-2,3,5,6,6,1,13
8845,-11,-3,-4,10,17,26,-5,-46
8846,30,13,12,9,29,17,24,118
8846,-7,0,-1,-5,3,26,-3,-58
8868,0,4,-5,-9,-31,-64,-10,0
8868,-4,-2,-5,-12,-32,-31,-11,-10
8868,-6,-15,-6,-1,14,1,-1,-36
8868,2,-10,-1,9,25,28,8,10
8882,9,21,6,1,1,4,7,32
8882,-13,-3,-1,-4,-13,-22,-18,-83
8890,11,-3,-1,-1,-12,4,7,86
8890,-6,-1,-2,4,17,15,2,-10
8914,2,-1,0,2,16,7,-1,-17
8914,-2,5,-2,-7,-34,-45,-13,17
8914,-6,7,-2,-4,-4,12,-14,-43
8914,2,-3,-4,-1,-4,-31,0,-25
8935,7,3,5,4,8,15,2,-19
8935,6,5,1,2,16,32,13,31
8936,-3,-5,-2,4,12,-23,-8,-16
8936,-11,-6,0,1,12,63,5,-10
8958,-5,1,-8,-12,-45,-80,-12,-58
8958,2,-5,-1,-8,-20,7,-2,29
8959,-3,0,2,-6,17,0,-2,-48
8959,0,3,-2,-1,-2,3,-3,-6
8964,-1,-16,-5,8,25,41,3,45
8964,9,23,4,4,9,-3,5,-39
8965,-7,-11,-6,-9,-15,2,-9,23
8965,1,-3,5,22,15,2,-1,-6
8987,-2,-12,-4,-11,-32,-20,9,31
8987,0,-9,-6,-6,-3,-1,-2,-12
8988,-4,-5,-3,-1,1,-12,-4,14
8988,-5,-5,-2,-4,11,7,1,-13
9003,5,1,1,6,12,21,10,-8
9003,3,1,7,10,-2,-9,-4,9
9010,-3,0,-5,-7,-18,-3,4,-48
9010,-4,3,-4,-17,-12,-31,-10,19
9027,-9,0,-6,-6,-14,-16,-17,1
9027,2,-2,1,5,29,32,14,59
9028,2,6,5,13,29,35,4,21
9028,-1,-7,-5,-13,-39,-35,-6,-25
9048,-4,-4,0,1,-10,-7,-5,-1
9048,0,25,0,-2,8,6,-2,-2
9048,-1,-12,-2,-3,4,-2,-8,-5
9048,9,2,5,26,25,32,9,4
9071,1,23,-1,-15,-16,-37,-8,3
9071,-7,-19,-8,-13,-20,-14,2,5
9071,-4,-6,-2,1,-3,2,-5,-8
9071,-5,6,1,-2,13,-7,-8,-30
9085,5,3,3,2,-8,11,3,40
9085,8,-2,-1,-2,4,-10,9,22
9086,1,8,-1,3,3,10,0,-13
9086,-1,-8,-2,-5,-1,-5,0,15
9116,-8,-7,-1,7,-2,0,1,-58
9116,1,21,5,1,5,-4,9,79
9117,-3,-10,-6,-2,-6,8,8,4
9117,8,8,1,-5,6,0,-6,9
9122,0,-8,-5,-1,-1,-7,2,4
9122,-14,-16,-3,-3,-11,-8,-13,-34
9130,8,16,6,9,11,25,14,2
9130,-5,-1,-3,-3,-6,-33,-10,-38
9145,0,-5,-1,7,-3,12,9,53
9145,-3,7,0,-11,-5,-19,-8,-68
9145,0,-3,1,6,1,14,6,41
9145,0,-4,-4,-1,-4,3,-5,-26
9167,-1,-1,0,2,19,17,-3,1
9167,2,2,5,10,1,3,5,-16
9169,-4,-6,0,-4,-16,-8,-11,-17
9169,2,20,1,-11,-17,-28,7,26
9191,-10,4,-8,-13,-8,-26,-27,-29
9191,5,-10,-1,9,17,30,19,74
9191,5,3,2,5,2,-16,-5,-3
9191,-4,-11,-3,-4,-4,19,8,-16
9213,3,5,2,0,0,5,4,-3
9213,-1,-17,-2,0,1,-12,-5,-7
9213,0,22,-2,0,-7,3,-12,-31
9213,-2,-9,-2,9,-3,-1,10,22
9236,3,2,2,-3,16,13,5,6
9236,-3,-1,-2,-6,-18,-7,-6,-51
9237,-6,-12,-4,-9,-11,-25,-8,-31
9237,6,2,-1,3,19,42,8,44
9258,2,6,2,2,-5,-37,-1,22
9258,3,-9,0,2,1,10,1,17
9258,-6,-15,-5,-7,-2,0,-4,-25
9258,3,25,5,-3,-9,-16,-10,3
9265,7,2,-1,1,2,12,3,12
9265,-5,1,-2,2,3,6,-7,0
9266,-3,-9,-3,1,-2,-10,0,19
9266,-3,-13,-6,-3,-1,-5,1,31
9287,-1,-3,3,-2,0,26,9,-16
9287,-5,2,-4,-3,-2,-11,-9,-42
9288,0,-3,-2,-1,-1,-4,2,50
9288,-1,-8,-6,-7,-8,-12,-5,-10
9310,1,-16,1,1,0,8,0,0
9310,2,8,2,-2,11,12,7,6
9312,-5,-7,2,-2,-4,4,-2,-25
9312,-3,-8,-2,-4,-13,-18,-11,9
9325,-1,0,-5,-2,-9,-17,-7,-13
9325,1,-3,-1,3,16,24,5,9
9326,-3,4,1,0,5,-1,2,-3
9326,2,-1,-4,-7,-15,-8,-4,0
9356,-3,2,0,1,3,10,2,-51
9356,1,-3,-1,-1,-14,-25,-5,59
9357,6,6,-1,3,11,9,1,-5
9357,2,-6,0,-7,-5,2,1,14
9371,1,0,-3,-3,-15,-15,-14,-66
9371,-1,-4,-1,1,7,4,3,41
9372,-12,-16,-1,-3,-7,-7,2,-26
9372,7,15,1,4,12,15,-4,-25
9385,4,-7,1,5,10,4,-5,39
9385,-4,-1,-2,2,-17,-11,-8,-24
9385,-2,-3,-5,-7,-14,-8,-4,-3
9385,-8,-6,0,0,1,-12,-1,-30
9407,-1,8,6,9,26,34,17,10
9407,0,-5,-2,-6,-9,-10,-6,-30
9409,-1,-1,-2,-3,-13,-14,-11,7
9409,-10,-7,-1,0,4,-12,-1,-9
9431,-4,-13,-7,-4,-18,2,-4,3
9431,10,22,1,2,19,14,14,89
9432,8,18,1,-2,6,0,0,-19
9432,1,-5,2,2,-6,7,-3,4
9445,-12,-9,-2,-5,3,-3,-4,-23
9445,-2,-7,-4,-3,-5,-4,-9,-38
9446,2,-2,-1,-4,-16,-14,-1,-2
9446,2,-3,0,-5,3,14,2,9
9467,0,8,0,1,15,2,3,1
9467,-4,-5,-4,-9,-33,-23,-7,-27
9468,-2,-5,-3,-4,-9,-18,-9,31
9468,-8,-9,-3,2,11,16,8,-57
9491,6,4,-2,-2,-5,-13,-2,16
9491,-5,0,0,2,16,26,2,-44
9492,-1,-3,2,1,-3,-6,-11,25
9492,-1,-7,-6,-3,-10,-7,0,12
9506,-4,-9,-1,0,-2,2,4,11
9506,1,-1,0,3,7,-4,1,-2
9507,-2,14,1,3,9,16,4,-17
9507,-4,-7,1,1,-6,-7,-8,4
9536,2,5,0,-2,-2,-1,5,8
9536,-6,-12,-1,-4,-2,-8,-1,-2
9537,-4,-2,0,14,9,10,5,-35
9537,3,1,-1,-8,-2,0,-7,18
9558,-5,0,-1,-2,-8,-15,-1,1
9558,5,-2,3,0,-1,5,4,-13
9558,0,21,1,4,9,16,1,-24
9558,-6,-17,-7,0,-5,-12,-4,35
9565,-2,-3,0,-4,-11,1,-3,-17
9565,3,21,0,0,3,1,3,-23
9566,-8,-14,-1,0,7,-14,-2,1
9566,16,9,0,4,-5,-10,5,28
9588,-3,6,1,-3,-2,6,-4,-3
9588,-4,-7,-2,-5,-1,-7,-3,-4
9588,4,-6,-2,-7,-9,-6,2,22
9588,-9,2,-1,2,15,21,6,-19
9610,2,-12,-1,4,10,2,3,2
9610,-2,1,-1,0,-11,-7,-8,22
9626,-5,-21,-3,-5,0,-3,0,-13
9626,3,22,1,2,-8,-9,-7,-25
9628,1,-8,0,2,4,6,4,-4
9628,2,11,-3,-2,-11,-8,-3,-13
9629,2,-6,0,-6,7,5,-1,-11
9629,0,-8,-1,4,7,15,3,-5
9648,-4,13,1,-3,9,-6,-3,-15
9648,6,3,1,-1,-15,-19,3,33
9648,5,5,-2,-4,-7,-12,3,25
9648,-2,1,0,3,10,15,-9,-23
9671,0,3,-1,2,12,7,7,-19
9671,0,-1,-1,4,8,22,-2,-1
9672,-9,3,-2,-6,-14,-19,-10,-37
9672,1,1,-3,-17,-47,-42,-10,31
9685,-4,-15,-10,-4,9,6,6,32
9685,0,6,3,1,14,13,3,-4
9686,5,0,1,7,19,29,-2,5
9686,-6,-7,-1,-1,-2,-12,3,28
9708,-3,-12,-1,-3,-31,-23,-12,5
9708,-1,-6,-3,-2,7,6,12,28
9709,4,4,2,5,15,24,3,-18
9709,2,1,4,7,19,18,5,-2
9731,0,-3,-4,-10,-19,-29,-1,3
9731,-8,-9,-5,-8,-16,-14,-10,11
9731,3,4,0,0,3,6,-4,9
9731,-3,-9,-2,-8,5,14,8,-11
9746,2,7,2,2,-11,-4,-3,-10
9746,-2,-6,1,-2,8,3,0,-19
9748,-1,7,2,4,2,0,2,8
9748,3,3,0,6,0,-8,-8,-14
9767,-6,0,-2,-5,-2,5,-4,-21
9767,-1,-8,-4,-2,-6,-14,5,58
9769,4,-6,-3,-3,-3,8,3,-4
9769,-2,-8,0,4,17,21,-6,-5
9791,0,25,1,0,-8,-24,-15,-49
9791,-2,-15,-4,-5,-23,-16,-1,-4
9791,3,10,-4,-9,6,12,-3,8
9791,-4,-10,0,-1,1,-15,-2,-13
9813,0,-5,1,0,-5,13,-4,13
9813,-7,-1,-3,0,19,5,3,-26
9813,0,-1,0,4,-28,-38,-12,5
9813,0,-1,0,-5,-2,8,4,-5
9836,2,4,0,3,16,16,8,13
9836,1,2,0,2,4,0,-3,-21
9837,-12,-23,-5,2,8,7,1,9
9837,4,8,0,0,-12,-12,-10,-37
9859,0,-8,-3,-1,-8,2,7,44
9859,3,-12,2,2,13,12,0,0
9859,0,0,0,-1,-6,-3,1,-25
9859,3,15,1,4,9,6,-4,1
9865,-5,-4,0,-3,-2,-6,-2,21
9865,-5,-6,-5,-6,-22,-11,-3,-22
9880,-7,-9,0,-1,8,-2,-4,13
9880,1,2,-1,-4,1,-1,7,4
9888,-3,-2,1,5,-1,-1,-5,-26
9888,10,6,1,3,0,10,1,-12
9888,-5,-9,-1,-2,-4,-2,-3,6
9888,-2,9,-1,0,2,5,1,-6
9910,-1,-3,-1,-1,9,5,-4,-11
9910,-1,8,2,-1,-13,-19,-3,-17
9911,1,4,-2,-2,-11,-3,3,6
9911,0,-9,-1,-2,3,5,-3,0
9925,-1,-4,0,2,15,19,5,20
9925,0,13,-2,0,-2,-17,1,3
9933,-3,0,-1,-3,-9,-14,2,11
9933,5,5,0,-2,-3,1,-5,-4
9947,-3,-5,-5,-3,0,1,1,-26
9947,-1,-2,0,2,10,10,8,-5
9948,-1,-3,-1,-4,-12,-7,-12,-45
9948,0,0,-1,1,4,3,-4,6
9970,0,0,-1,-2,-11,-6,1,5
9970,-8,-12,-1,3,8,13,-1,-6
9978,0,-1,-2,-1,11,-11,1,23
9978,0,-3,-2,-10,-26,-6,-10,-18
9984,3,0,-1,-2,1,-1,1,22
9984,-7,-2,-1,-1,-3,-10,0,1
9993,11,10,0,4,9,22,5,20
9993,-3,3,0,0,7,3,-1,5
8,-6,-7,-3,3,9,-1,-1,-56
8,3,3,1,-11,-21,-4,1,52
8,-3,-1,-2,-2,-9,-16,-7,-80
8,-2,-12,-2,-3,-3,-5,-6,13
31,9,13,0,-2,2,0,5,5
31,-4,-12,-1,7,18,25,7,-7
31,6,4,0,-4,-6,2,-1,15
31,-5,0,-1,3,-10,-21,-6,-14
44,2,0,1,-1,-14,-7,3,27
44,-4,-1,0,1,9,0,-4,-17
60,0,-4,-1,-2,-3,8,2,32
60,-9,-9,-5,2,8,10,-2,-55
76,9,4,2,1,7,4,5,52
76,-2,-6,0,-3,-14,-14,-13,-10
77,5,8,-1,-3,4,2,1,-16
77,3,3,0,1,4,-2,-6,-8
91,-12,-15,-2,-4,-6,-4,-5,-20
91,6,15,0,0,-1,-3,-4,2
92,-1,-2,-2,-2,2,-5,3,25
92,0,-4,-1,0,-8,-3,-1,19
104,4,-2,1,8,12,19,1,16
104,-1,17,-1,-15,-10,-24,-12,-16
113,-4,-2,-5,0,-4,-2,1,-2
113,4,2,-2,-10,1,1,5,11
127,-12,-8,-2,3,-2,-1,-9,-72
127,11,0,0,4,12,18,14,73
129,-3,-5,-2,1,-9,-11,-3,-38
129,-5,-2,-3,-6,-14,-15,-12,-15
151,2,6,1,-1,2,-5,9,6
151,-6,-8,-2,3,3,6,-1,-19
151,1,-2,1,-4,1,1,-6,25
151,0,0,1,4,1,4,4,29
173,-3,2,1,6,0,-3,3,14
173,-4,-3,-3,-2,8,19,0,-59
174,5,-3,0,-5,-3,-17,-4,71
174,-2,-1,-2,-6,-14,-8,-11,-22
187,-2,14,-3,-6,-7,-13,-2,-12
187,-1,-10,-1,0,-2,3,3,30
189,-2,-4,0,3,10,15,-3,-25
189,3,10,2,4,6,3,-2,0
210,-4,-4,-1,-3,-2,-1,0,27
210,0,-2,-1,0,-4,-1,-3,1
212,-3,1,-2,-2,-1,-11,1,1
212,-1,0,1,-6,-9,-8,7,19
234,-1,-1,0,-2,-5,2,-5,-22
234,-4,0,-1,-4,4,-4,-2,-14
235,2,-5,0,5,4,10,-1,-1
235,1,-2,-2,1,4,2,1,-20
247,2,-12,-2,-3,-1,0,-5,-15
247,3,22,3,-1,-4,-6,10,43
248,-10,-9,0,3,1,6,-2,-45
248,-4,-7,-5,-3,-1,11,-5,3
271,6,6,0,-2,0,-6,0,-16
271,-16,-13,1,2,-4,-11,-8,-106
272,20,11,0,2,8,14,15,89
272,-1,2,2,4,11,6,-2,-47
293,-7,-14,-6,-7,-24,-24,-5,-10
293,1,-2,0,1,4,-5,-7,-36
294,-5,15,2,-6,-6,-7,0,-7
294,-2,-27,-6,3,9,6,3,8
316,0,27,1,10,21,19,3,9
316,5,-9,-1,-8,-10,-7,-5,-3
317,-21,-19,-5,-6,-10,-9,-12,-89
317,10,-15,-3,-1,-4,-4,1,109
330,2,16,2,-4,5,5,9,-33
330,15,10,2,8,8,10,5,31
337,-8,5,2,3,10,8,2,-19
337,-10,-14,-5,-7,-15,-32,-15,-35
361,-1,-1,-2,-5,-21,-10,-3,40
361,1,9,1,-5,2,-2,-4,22
362,-2,-7,-5,-1,2,6,0,-25
362,11,16,4,5,6,13,10,65
384,7,0,0,2,8,0,4,55
384,-4,-2,1,-6,-9,-8,1,-43
385,-14,-4,-1,-4,-13,-6,-10,-18
385,12,9,-2,-1,-1,-2,0,-15
390,-8,-5,3,9,12,32,2,12
390,-3,-14,-9,-13,-7,-22,-1,-18
391,0,-13,-2,1,-4,-15,-6,7
391,-10,8,0,-4,-7,1,-5,-38
413,6,-17,-3,-2,4,2,-7,5
413,-7,7,0,2,-1,7,6,-76
414,10,-6,1,2,2,3,1,52
414,4,7,0,1,7,10,9,-36
427,-7,-8,-5,-4,-9,-19,-8,-23
427,-15,-23,-5,-2,-12,-15,-17,-24
428,1,6,-1,0,-4,-5,0,-20
428,0,3,5,-1,6,14,7,39
452,10,7,1,-1,12,25,8,76
452,-5,1,3,8,5,-23,2,17
452,-2,-5,-6,-5,-19,-8,3,25
452,-3,1,0,-3,-5,-2,-8,-59
473,-3,-5,-2,-9,-11,-9,-2,-56
473,5,2,-2,2,7,13,3,48
474,-1,3,0,-1,10,7,3,3
474,-9,-10,0,6,8,3,-4,-11
488,-9,14,-2,-9,-11,-17,-13,-4
488,-1,-1,0,3,-7,1,6,12
488,3,0,3,3,2,-1,6,-26
488,3,4,0,5,7,17,-6,-2
510,0,5,3,-2,4,-13,-1,-15
510,-2,-5,0,-2,-4,5,-2,9
511,2,0,-5,-2,-6,-10,-16,-27
511,5,1,2,2,5,26,19,87
533,7,-9,-2,6,7,0,4,-25
533,-2,-1,-5,-2,-17,-21,1,-10
533,-4,1,-1,-5,-2,0,-12,-4
533,-2,-13,-8,-10,-12,-8,-7,-15
548,15,10,2,2,-1,3,-3,-12
548,1,2,-1,3,12,8,0,33
548,-2,3,-2,-3,-2,0,3,-9
548,-9,-9,-5,-2,-3,-13,-11,-5
571,-2,9,2,2,0,16,10,-9
571,2,4,2,0,1,-17,3,2
572,-4,-5,-3,7,10,13,3,11
572,1,4,-2,3,-4,-6,-5,-95
593,-5,-19,-8,-10,-3,-18,-16,-16
593,-2,-1,-2,-5,-22,0,7,-13
594,-6,9,2,5,15,-2,3,-11
594,1,18,4,-1,-2,2,-11,-24
607,0,7,0,-1,-1,9,4,11
607,-2,-4,0,3,15,6,11,34
615,-2,-5,-2,-3,-1,4,0,-58
615,5,2,-1,-6,-15,-14,-1,98
630,-7,-8,-3,0,-2,-5,-15,-34
630,2,3,1,7,16,33,16,62
638,2,1,1,-9,-17,-42,1,-1
638,-4,-6,-4,-5,-1,13,-3,-23
660,-14,-9,-2,-3,-10,-16,-13,3
660,-3,-4,-2,0,1,7,-4,-22
662,3,0,3,2,18,28,11,24
662,-11,-2,-2,-6,-11,-20,-15,-24
667,-1,-10,-5,-5,-20,-11,1,3
667,-6,10,-3,-2,10,2,-2,-1
668,4,-6,3,2,-10,-13,-5,-13
668,2,21,4,-3,9,3,3,16
690,1,2,-1,6,-1,30,0,-64
690,4,-5,2,2,11,0,3,26
691,1,0,-4,-4,-25,-36,-4,3
691,6,-5,-2,3,-10,-2,-10,-34
713,-11,-10,-3,-6,6,-4,2,-9
713,2,1,-5,-6,-1,22,13,15
714,-1,1,-2,5,13,22,-8,-29
714,-4,-5,-1,-4,-7,-24,-16,-58
729,8,8,5,6,11,17,15,117
729,-8,-11,-6,-4,-10,-25,-11,-40
729,-11,8,-4,-11,-11,-7,-8,15
729,3,-10,-1,12,2,3,6,-18
751,-5,17,2,2,6,0,-10,-38
751,10,5,4,3,7,2,12,28
751,-7,-6,-1,-1,4,27,-3,-7
751,1,-5,-6,-6,-15,-25,7,6
773,-6,-8,-4,-14,-13,-18,-13,-54
773,-20,-15,-3,7,1,-14,-7,32
774,15,9,5,0,10,32,17,39
774,-1,-3,0,3,17,14,-9,-17
787,-5,-11,-3,-2,-9,-13,6,1
787,-4,-2,-9,-12,-22,-27,-21,-50
795,12,-19,-2,0,-7,-17,8,97
795,-6,28,9,6,14,20,-5,-38
810,12,-10,-2,3,11,11,11,-2
810,-14,-6,-1,0,-2,-6,-23,-48
811,-6,-2,-3,0,-2,-23,-4,-6
811,-15,-14,-3,-1,-15,4,-1,-37
833,13,-8,6,5,10,3,19,92
833,11,3,6,-1,7,10,14,-23
833,-25,-25,-9,-2,3,13,-6,-99
833,38,74,7,-5,-8,0,23,108
847,4,17,0,1,-8,-33,-25,-90
847,-8,-20,-6,4,1,8,9,-49
855,-5,0,-2,-4,6,-14,-5,24
855,-11,-51,-5,0,4,13,-3,15
870,-9,-3,-9,-12,-25,-22,-32,-65
870,20,-16,0,-10,-12,-6,30,77
878,-14,31,5,22,14,4,-22,-74
878,1,-22,-8,-10,-6,6,-5,-30
893,4,9,4,-2,15,5,6,94
893,-4,6,4,3,6,8,-14,-61
894,-1,-32,-6,-6,-19,-11,2,11
894,2,5,8,-1,18,17,3,22
907,0,2,2,6,5,0,-2,-62
907,0,10,-6,-7,-7,-3,9,78
915,9,10,1,-13,-28,-23,-4,-36
915,-7,-14,-3,2,-7,-19,-22,-39
930,3,-4,1,-1,18,36,21,10
930,-5,0,-1,-1,13,6,-3,-17
931,17,41,5,-5,-7,-10,-3,13
931,-16,-19,-8,-5,-26,-39,-24,-38
954,5,-9,-4,1,-5,17,14,-34
954,14,6,9,17,26,23,27,32
955,-4,5,-2,-9,2,10,-14,-60
955,-7,1,-1,19,7,0,1,-1
967,1,7,-3,-9,-25,-27,-18,-30
967,9,14,5,5,15,14,2,69
976,-19,-15,-1,12,0,-11,1,-56
976,-3,-9,-5,-23,-9,7,-2,-14
990,-5,-14,-4,2,2,-4,4,-19
990,17,21,2,0,-11,-10,10,2
1006,-1,-9,-1,-1,3,14,-5,-34
1006,-4,-2,0,2,2,-4,-12,-10
1013,-14,-10,-8,-2,-8,-2,13,-27
1013,-19,-6,-1,-5,-12,-9,-24,-75
1015,-4,-4,-3,-2,1,2,3,72
1015,7,5,4,2,0,-3,12,26
1027,-6,0,-2,0,0,1,-5,45
1027,-12,-4,-8,-3,0,4,-3,-76
1036,20,6,2,2,-1,3,4,33
1036,-1,-16,-3,-3,-1,2,7,-17
1049,-5,-18,4,2,0,0,-10,14
1049,-1,46,4,2,0,-12,22,66
1058,-19,-12,0,3,2,21,-11,52
1058,13,0,-5,-12,-20,-25,12,7
1074,6,31,5,7,4,7,25,1
1074,-13,-17,-9,0,13,38,-27,-54
1075,13,-3,-3,-10,2,-54,6,-19
1075,-10,7,-3,-13,-13,-1,-26,-36
1087,-1,-8,-3,0,-9,1,10,71
1087,-6,-10,2,-11,-11,-6,0,-41
1095,6,13,1,16,21,23,15,11
1095,-9,-17,0,7,14,12,-10,-38
1110,-9,-6,-5,-8,0,-15,-15,-41
1110,1,0,2,1,-5,-5,-6,-9
1118,1,-17,-7,-6,-12,1,0,11
1118,1,11,0,-4,-2,-7,2,21
1133,10,7,3,1,1,3,12,8
1133,-12,-18,-9,-3,-11,-25,-28,-58
1134,7,-8,5,3,-2,-2,11,74
1134,6,18,-1,-1,18,41,20,-8
1156,-13,-10,-6,2,4,-20,-11,-75
1156,8,-10,-4,-10,-19,-15,-11,64
1158,-1,-5,-5,-11,-9,-16,-4,-16
1158,2,3,4,9,9,12,6,-6
1171,1,-5,2,4,15,23,0,-10
1171,-6,12,3,6,17,18,1,23
1177,11,14,3,-2,-10,-8,1,-34
1177,-4,-9,-7,-9,-20,-18,-3,42
1193,-10,-13,-7,-8,-23,-26,-5,92
1193,-3,-13,0,5,12,5,-3,-46
1195,1,21,4,-4,7,22,-12,-52
1195,10,-2,-2,8,9,8,16,21
1216,-5,-14,-1,-3,-3,2,-6,-28
1216,8,8,1,1,-12,-15,3,-3
1218,-2,-11,-3,0,18,34,-2,-15
1218,1,7,3,-11,-5,-22,-7,12
1229,-14,-11,-6,-4,-17,-4,-11,-7
1229,1,-8,-6,-15,-7,-19,-1,11
1238,-5,2,5,23,-1,1,-3,-61
1238,-2,0,-1,-6,1,10,-7,-20
1254,-4,4,-2,1,20,13,0,-9
1254,0,-4,-4,-10,-18,-12,-15,-29
1255,-6,-4,-3,-6,-3,-4,-5,37
1255,9,0,1,12,5,0,4,-19
1276,19,12,6,2,2,5,15,-38
1276,-5,-2,-11,5,0,-4,-5,11
1282,-9,-5,11,-4,-3,-7,-12,-68
1282,19,3,4,3,1,8,30,86
1290,5,6,1,5,7,-3,-12,-83
1290,0,-6,1,-4,-8,-1,8,-17
1298,-8,-3,-3,-15,-7,-2,-9,13
1298,-15,-8,-12,-8,-6,-1,4,-12
1314,7,6,5,0,2,3,7,40
1314,-7,-5,-2,7,0,-3,-3,33
1315,-5,-15,-7,-7,-6,-6,-7,19
1315,0,8,4,6,8,9,2,-20
1336,1,-1,-1,0,-5,-11,-1,-32
1336,0,-2,0,-4,-2,4,10,66
1342,-5,-4,-4,-3,-1,0,-11,-61
1342,9,-5,1,4,1,-7,9,32
1351,-3,2,-1,1,-3,2,0,13
1351,-1,2,1,-1,-2,-4,-1,-44
1358,-3,0,-3,-6,-2,-1,1,5
1358,3,-6,0,7,9,6,3,2
1374,-11,1,-4,-6,-5,-1,-10,16
1374,-1,-3,3,3,4,3,3,-23
1375,8,4,0,1,3,4,-5,6
1375,-20,-6,-7,-9,-17,-14,-17,-66
1396,2,-1,0,-4,2,-5,17,29
1396,-12,-5,-3,1,-7,-2,-21,-87
1397,14,7,1,-3,8,14,17,65
1397,-13,-4,-2,1,5,1,-8,2
1410,9,1,0,0,0,1,8,49
1410,-1,1,1,2,-3,-9,-13,-32
1419,-4,-5,-4,0,-2,-3,-11,-16
1419,-2,-1,-1,1,4,-2,5,29
1433,-2,2,2,-1,-2,4,3,5
1433,1,-1,-2,-5,0,3,10,2
1435,2,-3,-5,-2,-6,-5,-8,-7
1435,-2,-3,-2,-7,-7,-10,-7,-14
1456,12,0,-2,2,-1,1,18,27
1456,-6,-2,-1,-1,3,1,-3,-39
1458,-10,0,0,-1,5,5,-7,-18
1458,8,6,1,4,3,9,20,15
1479,-2,-2,-2,-4,-1,1,-5,-18
1479,-1,-4,-2,-3,-6,-17,-16,5
1480,-3,-2,-1,1,-9,2,13,-17
1480,-8,0,1,1,1,-8,-14,-53
1508,-5,2,1,0,4,3,6,12
1508,8,-2,-3,-2,-1,3,-5,8
1509,5,-2,-4,-2,-1,0,3,-12
1509,-1,3,2,-1,-5,-7,-2,-45
1516,-1,-2,-1,1,-1,-1,-2,12
1516,-1,1,0,1,-4,-5,2,5
1523,9,2,1,1,3,7,-5,-70
1523,-2,-2,-2,-1,1,10,9,65
1530,7,2,-1,-1,0,-7,-7,58
1530,-10,-3,1,0,2,2,-5,-63
1544,-12,-2,-3,-3,-5,-7,-20,-29
1544,7,-2,-2,0,-2,-3,-3,4
1568,-7,-3,-1,-1,0,-2,16,26
1568,7,0,0,-3,-3,6,3,46
1576,3,0,-2,-2,-4,-7,-1,24
1576,-3,-2,-2,-1,3,-1,-6,-26
1577,-8,-8,-5,-2,-5,-6,-4,-11
1577,2,1,-1,-2,-3,-4,-3,-13
1578,5,12,2,0,1,3,-1,27
1578,-5,-6,-1,-1,0,-2,0,-38
1600,-3,-2,-1,-1,-1,0,-5,-21
1600,2,1,0,-1,0,0,0,19
1601,-5,-13,-4,2,1,-1,-3,7
1601,1,2,-1,-4,-2,1,-3,9
1614,7,11,0,1,-1,-1,5,-6
1614,-2,0,1,1,1,1,-11,17
1615,-8,-10,-4,-1,-1,4,12,12
1615,1,-1,-1,-2,-4,-6,-6,10
1636,-9,-9,-4,-4,-2,-2,-9,-62
1636,8,21,2,-1,-4,-4,7,-41
1637,-2,-10,-1,1,1,0,-14,-11
1637,-7,-10,-1,-2,-1,-1,-3,-29
1650,-7,1,-2,-2,-1,-1,-4,4
1650,7,0,1,-1,2,4,-4,34
1659,-2,-1,1,0,-2,-2,0,8
1659,-4,-2,-2,0,1,2,3,1
1673,0,1,0,-1,1,-3,-8,3
1673,0,-8,-4,0,-2,-4,7,17
1675,7,12,1,-2,-7,3,19,61
1675,-3,-6,-3,1,3,2,-6,-70
1695,0,11,2,1,2,1,6,-7
1695,-3,-8,-2,0,2,1,-19,10
1702,-11,-29,-4,-2,0,-2,0,-13
1702,4,14,-1,-1,-4,-4,-4,-31
1710,26,35,7,3,1,0,10,71
1710,-8,-6,-1,0,-1,-2,2,-31
1725,-2,-2,-4,-2,0,0,-6,-3
1725,-11,-12,-1,1,1,3,3,-2
1733,-10,-24,-4,-4,-3,-11,7,-30
1733,-3,-4,-3,-3,-3,-4,-9,22
1734,4,16,4,-1,-2,3,2,3
1734,13,5,1,2,-1,-5,0,18
1756,-10,-12,-1,-1,-2,-1,-2,-19
1756,1,1,-1,-2,-1,4,0,9
1757,-7,-13,-3,-4,-1,-4,-3,-16
1757,-3,2,-1,-1,-1,-3,3,16
1769,2,-1,-1,-1,-3,-2,-5,-4
1769,9,32,4,0,0,4,5,-10
1779,6,9,2,0,0,-2,-6,-2
1779,-10,-14,-1,-1,0,-3,3,14
1817,-9,-8,-5,-1,-2,-3,-1,-10
1817,0,-11,-3,-2,-1,1,-4,-2
1818,10,10,1,0,0,1,-3,1
1818,1,5,0,0,0,-1,4,13
1820,-14,-21,-4,0,-1,-4,-3,-16
1820,1,-8,0,0,1,-1,-1,1
1824,6,5,-2,1,-2,1,-8,1
1824,-3,-6,-2,-1,-1,-2,1,1
1839,-1,4,-2,-1,-1,-2,2,-4
1839,2,2,0,1,-1,2,0,2
1853,2,2,0,-1,1,-2,-2,-3
1853,-1,1,0,-2,-1,-2,0,3
1854,1,4,-1,-3,-1,-2,-1,-5
1854,-1,-4,-2,-1,-2,1,-1,0
1867,-5,-7,-3,0,0,0,-4,-6
1867,2,5,1,-1,-1,-2,1,4
1876,0,0,0,-1,-1,-2,-3,0
1876,-4,-11,-2,-2,1,0,-3,-4
1877,0,2,-2,-1,-2,-2,-2,-1
1877,4,3,1,-1,0,-1,1,5
1889,-4,0,-1,-1,-1,-1,0,-3
1889,-2,-4,-2,-3,-2,0,0,-2
1898,1,0,0,-1,-1,0,-1,-2
1898,1,1,-2,1,0,-2,3,3
1913,-3,-5,0,-1,-2,-1,-3,-4
1913,-1,-1,-1,-1,-1,-1,-1,-1
1920,1,0,-1,-3,1,1,-4,0
1920,-2,-2,-1,-1,-1,-3,-1,0
1935,1,-1,-2,-2,2,-2,2,-4
1935,0,0,0,-1,-1,-1,-1,0
1937,0,0,-1,-1,-2,-2,4,-1
1937,-2,-1,-1,0,-1,-2,-1,2
1949,-1,-1,-1,0,-2,0,5,1
1949,-1,-1,-2,-2,2,1,1,1
1959,-1,-1,1,0,2,3,3,1
1959,0,2,1,-1,2,1,1,2
1973,1,3,1,-1,-1,-2,-4,-1
1973,0,-1,-2,-1,-2,2,-6,-3
1979,1,-1,-1,0,-1,1,-5,-2
1979,1,-1,0,-3,0,-1,-1,0
1995,-2,0,0,-1,-1,-1,-6,-2
1995,-1,-2,-1,0,0,2,-8,-3
1998,1,1,-2,0,-2,3,-7,0
1998,0,2,0,0,-2,1,-5,1
2009,-2,-1,0,-2,2,1,-7,-4
2009,0,0,0,0,0,1,-7,-1
2018,0,0,-2,-2,-2,3,-9,-3
2018,-3,-2,0,-2,-1,-1,-6,-3
2033,5,2,-1,2,2,1,-7,-1
2033,2,-1,0,0,-1,3,-8,-5
2039,1,-2,0,-1,1,2,-7,-2
2039,-1,0,-1,0,-1,-1,-7,-1
2055,-2,-1,0,-1,1,8,-10,-5
2055,1,-2,1,0,0,-3,-6,-5
2057,1,0,0,-2,-4,-6,-2,0
2057,1,-1,-1,1,-5,-3,-1,0
2078,-2,-2,-2,-2,-1,-5,2,0
2078,1,-2,-1,-2,1,4,0,-2
2079,-1,-1,-2,-2,2,3,0,-1
2079,-2,0,-1,-2,0,-3,-3,0
2093,-1,-1,-1,-1,-3,1,-3,0
2093,-3,0,-2,0,-3,1,-2,-3
2100,4,0,0,1,1,-1,3,-3
2100,-1,-2,-2,-3,0,-1,-1,1
2123,-1,-1,-1,-1,0,-3,0,-1
2123,0,-1,-2,-2,-2,0,-1,-1
2125,-1,1,0,-2,-1,-2,-3,-3
2125,0,1,-1,0,-1,1,1,0
2138,-2,-2,-1,-1,-2,-1,-1,0
2138,0,-1,1,-1,-1,-2,-1,-2
2140,-2,-2,-2,0,-1,-1,0,-2
2140,0,-1,-1,0,0,-3,-1,-1
2152,-1,-1,-2,-1,-4,-4,0,0
2152,0,0,-1,0,-2,1,1,-2
2161,-2,-3,-1,-3,-4,0,3,1
2161,-1,-1,0,-1,0,-1,0,-1
2176,-4,-1,-1,-2,-3,-2,-2,-1
2176,0,-1,-2,-1,0,0,0,-4
2177,0,0,-3,1,0,0,0,0
2177,-2,-1,0,1,1,-1,0,1
2198,-2,-1,-1,0,-1,-2,-4,-2
2198,-1,-1,0,-1,-1,1,-4,-2
2200,-1,-1,-2,-1,-2,-2,3,-2
2200,0,-1,-1,-1,-2,-2,-1,1
2212,0,-1,1,-2,0,0,-4,-2
2212,1,-1,-2,-3,-1,-1,-1,-2
2221,0,0,-1,0,-2,0,1,0
2221,-1,-1,-2,-2,-2,0,0,1
2236,-1,0,-2,-2,0,-1,-1,-1
2236,-3,-1,-1,1,-2,-1,-1,0
2242,-2,-2,-1,-1,-2,2,0,-3
2242,-2,-1,-1,0,0,-3,1,-1
2258,-1,-2,-2,0,-1,-2,-3,0
2258,0,0,0,0,-2,0,-2,-1
2260,-1,-2,-1,-1,0,-2,-1,-1
2260,-1,-1,-1,-2,-2,-3,0,-2
2281,-3,-3,-1,-1,-3,-2,0,1
2281,1,-1,0,-1,-2,-2,-3,-2
2283,-2,-1,-2,-2,-1,-1,-4,-1
2283,0,-3,-1,-3,1,1,1,0
2303,-2,-1,-1,-1,-2,0,-3,-1
2303,7,0,-2,-1,1,0,2,-1
2310,-1,0,-1,-2,-1,-2,-1,0
2310,-2,1,-3,-1,-1,-3,-3,-2
2318,1,-2,-2,2,0,0,0,-2
2318,-5,-1,-2,-1,-1,1,0,-2
2326,-1,-2,0,-2,-1,-2,1,-1
2326,1,-2,-1,2,-1,0,-2,-1
2332,-1,-1,2,-1,-1,1,-5,-1
2332,0,-1,-1,-1,-2,0,-1,-1
2341,0,1,-1,-2,1,-1,1,-2
2341,-4,-2,0,0,-1,-2,0,0
2356,-1,1,0,-2,-1,-1,-2,-1
2356,-3,-1,0,-1,-1,-1,-3,-3
2357,0,-2,-1,-1,-2,0,1,-1
2357,1,0,0,-1,-2,-2,1,-1
2378,0,-1,-3,-1,1,0,-2,-1
2378,-2,-2,0,-1,1,-1,-2,-1
2380,-2,-1,-2,0,-3,-1,-2,0
2380,-2,-3,-2,-1,-2,0,-1,-2
2392,0,0,0,1,0,-1,-1,-1
2392,-1,-1,-3,0,-1,1,-3,-2
2401,-1,-1,-1,1,1,-1,1,-1
2401,1,1,-1,0,-2,0,2,1
2423,0,-1,-2,0,-3,0,1,-3
2423,-1,0,-1,-2,1,0,-2,-1
2424,-1,-1,-1,0,0,-2,-2,-2
2424,7,0,-1,-2,-1,-2,0,1
2438,-2,-1,-1,-3,-1,0,-2,-1
2438,-2,0,-1,-1,-2,-2,-2,-1
2439,-3,-1,0,-2,-2,-1,0,0
2439,-4,-1,-2,-3,0,-2,0,0
2452,-2,0,-2,0,0,-2,1,-2
2452,-1,-2,-1,-1,-2,0,-1,-2
2462,1,-2,-1,0,0,-1,2,-2
2462,-3,-2,-1,-2,-2,-1,-2,-1
2477,-2,-1,-1,0,0,1,-2,0
2477,-3,-2,-1,0,0,-1,0,-1
2478,-1,0,0,0,-2,-3,0,-2
2478,-1,-2,1,-1,0,-1,-1,0
2498,0,-2,-1,-1,0,-3,0,-3
2498,-1,0,-2,-1,-1,0,0,0
2500,0,-3,0,0,-1,0,-1,-1
2500,-3,-1,-1,-1,-1,-2,2,-1
2512,1,-1,-1,-1,-3,-3,-4,2
2512,-1,0,-1,0,-2,-2,-1,-1
2521,-1,-1,-1,-2,-3,-1,-3,-1
2521,-3,0,-2,-2,1,0,-3,-1
2543,-2,-2,2,-1,0,-1,3,0
2543,-1,0,-1,-1,-1,-1,-2,-1
2545,-1,-1,-1,1,-1,0,0,-2
2545,-2,0,0,2,-2,-2,-1,0
2558,0,-1,-2,-2,-2,0,-5,-1
2558,-2,-2,0,-3,0,-1,-4,2
2560,-3,0,-2,-2,-2,0,-3,0
2560,2,-2,0,-1,-1,-2,3,-2
2588,1,-1,-1,-2,-1,-1,-1,-1
2588,-1,-1,-1,-1,0,0,0,-1
2589,1,-1,-2,-1,1,0,-1,-1
2589,-2,-1,0,0,-2,-2,-2,-1
2611,0,-1,-1,-1,-2,-3,2,0
2611,0,1,-1,-1,-3,-1,0,-1
2612,-1,-1,-1,-1,-2,0,0,-1
2612,-2,0,0,-2,-2,-2,-1,0
2634,-2,-1,0,0,-1,-1,-2,-3
2634,0,-1,-1,-2,-1,0,-2,-1
2636,-1,0,-1,-1,0,-2,2,-2
2636,-2,-3,0,-2,1,-1,0,0
2637,-2,-1,-1,0,-1,-1,-2,-3
2637,-2,-3,-2,0,-2,0,-2,0
2658,-1,-1,-1,0,-1,0,-4,-1
2658,-1,1,-2,-1,-2,-2,-3,1
2658,-3,0,-1,-2,-1,-1,-4,1
2658,1,0,-2,-1,1,0,-2,-1
2661,-1,-1,0,-3,-2,1,0,-1
2661,2,0,-1,-1,1,-2,2,-1
2685,0,-1,-2,0,-3,-2,-2,0
2685,-1,0,-1,-1,-2,-2,-5,-1
2687,0,-2,-3,-1,0,-1,-1,1
2687,-2,-1,-1,0,0,0,-1,-3
2701,0,1,1,-3,1,-1,0,-1
2701,0,-1,-1,-2,-1,-1,-4,-3
2702,0,0,-1,-3,0,0,0,0
2702,0,-1,-3,0,-2,1,-2,-1
2723,-1,-2,-3,-1,-3,1,-4,1
2723,-1,-2,-2,-2,-1,-2,-2,0
2725,-1,-1,-2,-1,0,-3,-3,-2
2725,-2,0,0,-1,1,-1,0,0
2738,1,0,-1,1,-2,-1,-1,-2
2738,0,-1,-1,-2,-1,0,-1,-2
2740,-2,-1,-1,-1,-3,-1,0,0
2740,-1,-1,0,-2,-2,-2,2,-1
2753,1,-2,-1,0,-2,-1,-1,0
2753,-2,-2,-2,0,-1,-1,-4,-1
2760,-1,-1,-1,0,0,1,-3,-1
2760,-1,-2,-2,-2,-2,0,-1,0
2777,-1,-2,-1,-1,-1,-2,-2,0
2777,0,-1,0,0,0,-1,0,-1
2778,0,1,-2,-2,-1,0,0,-1
2778,-1,-1,1,-2,-2,-2,-4,-1
2798,-1,-1,0,1,2,1,1,0
2798,-3,0,-1,-1,0,-1,-2,-3
2799,0,-1,-1,1,-2,-1,-1,0
2799,-1,-2,0,-1,-1,-2,0,2
2820,0,0,-1,-1,-2,-2,-2,-3
2820,-1,-1,0,-1,-1,1,-1,-1
2822,-2,1,-2,-2,-1,-1,2,-1
2822,-1,-1,-2,-1,-1,-1,-1,-3
2844,-2,-2,0,0,-1,0,-2,-2
2844,0,-2,-1,0,-1,-1,-1,-1
2845,1,-2,-1,-1,-1,-2,0,0
2845,0,0,-1,-1,-2,-1,1,0
2858,-2,0,-2,0,0,-2,0,-2
2858,-1,-1,-2,-1,-3,1,0,-3
2866,-1,-2,-1,0,-1,-2,1,-3
2866,-2,0,-2,-1,1,-2,-1,-1
2872,-1,-1,0,-1,-1,-1,-4,-2
2872,-3,-1,-1,1,-2,-1,1,1
2888,-1,-1,1,-2,0,-2,-1,0
2888,-2,-3,-2,-1,-2,-1,0,-1
2896,0,-2,-2,-2,0,1,-1,-1
2896,-1,-1,0,-2,-1,-1,0,1
2898,0,0,1,0,-2,-1,1,1
2898,-1,-2,-2,1,-1,-2,-1,0
2918,0,0,-2,-2,0,-1,0,0
2918,0,-1,-2,-1,-1,1,-3,-2
2920,-3,-2,-2,0,1,0,1,0
2920,-2,-1,-2,-1,-1,-1,1,-2
2932,-2,0,0,-1,-1,-2,-2,-1
2932,0,-2,-2,-1,-1,-2,2,-1
2941,2,-2,-1,-1,-2,-1,1,0
2941,0,-1,-2,-2,-4,-1,0,1
2957,-2,-1,-2,0,0,-1,-1,-1
2957,-1,0,-1,-1,-1,-1,-4,-3
2962,1,-1,-1,-2,-1,-1,2,0
2962,-1,0,0,-2,1,-1,-1,0
2979,-3,-2,-3,-1,-2,0,-2,-1
2979,0,-1,-1,-1,-1,-1,-3,-1
2980,-1,-1,-2,-1,-1,0,3,1
2980,-1,-1,0,-1,-3,-2,-2,-1
3003,-1,-2,-3,-1,-2,-1,2,-1
3003,-1,0,0,-2,1,0,2,0
3004,-1,-2,-2,-1,-1,0,-3,-2
3004,-2,-2,0,0,-1,-1,1,2
3015,-2,0,-1,-2,0,0,-3,1
3015,0,-2,-2,-2,-2,-2,-1,-1
3018,-1,0,-1,-1,-2,-1,-2,-1
3018,-1,0,-1,0,-2,-2,-3,-1
3038,-1,-1,-2,-1,-2,-1,-1,0
3038,0,-1,-2,0,-2,-1,-1,-2
3040,-3,-1,-1,-1,-1,0,0,1
3040,0,0,-1,-1,0,0,1,-2
3061,0,1,-1,-1,0,-3,-1,-1
3061,-3,0,-1,0,0,-1,-3,-2
3063,0,-1,-1,0,-1,-2,1,-1
3063,-2,-2,0,0,-1,-1,-1,2
3076,-1,0,-1,0,-1,-1,-3,-1
3076,-1,-1,0,0,0,1,-3,-3
3077,-2,-3,-2,-1,-2,-1,-1,-2
3077,2,1,-2,-1,2,0,1,0
3099,0,-1,0,0,-1,0,-1,-2
3099,-1,-1,0,-2,-3,0,-4,0
3100,-3,-2,-2,-2,1,0,0,0
3100,-1,-1,-1,-1,-2,-2,1,-1
3121,-2,0,-1,-1,0,0,-3,-1
3121,0,0,-2,-1,-2,1,-1,-1
3122,-1,-1,0,0,-1,-2,-2,-2
3122,-2,-1,-2,-2,-1,-1,-2,-1
3143,3,-1,0,-1,-2,0,-3,0
3143,-2,-1,-1,-1,0,-2,-2,-1
3145,0,0,-2,-1,-2,0,-1,-2
3145,0,0,-1,-2,-1,-1,0,1
3166,-1,-2,-1,-1,-1,-2,0,-1
3166,-1,-1,-1,0,-1,0,-3,-2
3167,2,0,0,0,1,-3,0,0
3167,-3,-2,-1,0,0,0,-2,-3
3188,1,-1,-1,-2,-3,-1,0,0
3188,0,-1,-1,-1,0,0,-2,-1
3198,-2,0,-1,-2,-2,-3,2,-2
3198,-3,0,-2,-1,-2,-1,-1,-2
3198,0,-1,-1,-3,-2,0,-4,-2
3198,0,-2,-3,-1,-1,-1,-2,-1
3209,-3,1,1,0,-1,0,4,0
3209,0,-2,0,-1,-1,-4,-2,0
3219,0,-3,-1,0,0,-3,-2,0
3219,0,-1,-2,0,-2,-1,0,-3
3220,-2,-2,-3,-1,-1,0,-4,-1
3220,0,-2,0,-1,-1,0,1,2
3241,-4,-2,-1,0,0,0,0,-1
3241,-1,-1,-1,-3,-1,0,-2,1
3242,-3,0,0,0,-1,-2,1,-4
3242,2,1,-1,-1,0,-3,2,1
3255,-1,-2,0,0,-1,0,-1,-1
3255,-1,-1,-3,-2,-3,-1,-3,-1
3262,1,0,-1,-1,-2,-1,0,0
3262,0,-1,0,0,-2,-3,-1,-1
3278,0,-1,-1,-2,0,-1,2,-2
3278,0,-1,-1,-1,1,2,0,-2
3280,0,-2,-1,0,-1,-1,-1,0
3280,-2,0,0,-1,-1,-3,0,1
3308,0,0,-1,-1,0,0,-2,1
3308,-1,-2,0,-1,-2,-3,-3,-2
3310,0,-1,-1,-1,-1,-1,0,-2
3310,-1,0,0,-2,-1,-1,2,-2
3330,-1,1,0,0,-2,-1,-3,0
3330,1,-1,-2,-2,0,-2,-1,-1
3333,0,-1,-1,-1,0,-1,0,0
3333,0,-1,-2,-1,-1,-1,0,-1
3339,-2,-1,-2,0,-1,0,0,-1
3339,0,0,-1,-1,-1,-1,0,-5
3344,1,-1,-1,0,-1,0,-2,1
3344,-3,-1,-2,-1,-1,1,0,1
3359,0,-2,-2,-2,-1,0,-2,0
3359,-2,-2,-1,-1,1,0,-1,-2
3378,4,0,0,0,-2,-2,1,0
3378,-2,-2,-1,-1,-1,-1,-1,-1
3379,0,-1,1,-1,-2,-2,-1,-1
3379,-1,0,-1,0,-2,-2,-1,-1
3399,-1,-2,-2,-1,-1,-1,-1,-1
3399,-1,-1,-1,0,0,-2,2,-1
3399,-1,-1,-1,-1,-1,0,-2,-2
3399,1,-1,-1,-2,-1,-2,-4,0
3405,0,0,0,-3,0,0,-2,0
3405,1,0,-3,1,0,0,1,-1
3421,-4,-1,-1,-1,-1,0,-1,-2
3421,-1,-1,-1,-1,-2,1,-2,-2
3422,-3,-2,-3,-1,0,-1,0,-2
3422,-1,-1,-3,-2,-2,-2,-1,0
3443,0,-2,-1,0,1,0,0,-2
3443,-1,0,1,-2,-1,1,0,-3
3444,-2,-2,-1,0,-2,-3,1,-2
3444,-3,-1,-1,0,1,-1,-3,1
3466,1,-1,-3,-2,1,-1,-3,-2
3466,4,0,-1,1,-2,1,2,-2
3468,-3,-1,0,0,-1,-1,-1,1
3468,-2,1,-1,0,-1,-1,2,2
3489,-1,-1,0,-1,-3,-1,-1,-1
3489,-1,0,-1,-1,-1,0,-4,-1
3490,-2,-3,-1,-2,0,-1,0,-2
3490,-1,-1,-2,-1,-2,-1,1,-1
3510,-1,-1,-2,0,-1,-1,0,-2
3510,-3,-2,-1,1,1,1,-2,0
3513,0,-1,0,-2,-1,-4,0,-2
3513,-3,-2,0,1,0,-1,0,-2
3519,-2,-1,-1,-2,0,0,-3,-1
3519,0,1,-1,-1,-2,-1,-3,-1
3521,-1,0,0,-2,-2,0,-3,-1
3521,0,-1,0,-2,0,-3,1,-1
3542,-1,0,-1,-1,1,1,-2,-2
3542,3,-1,0,-1,-1,0,-1,-1
3555,-2,0,-3,0,-1,-2,-1,1
3555,-1,-2,-1,-3,-2,0,0,-2
3564,0,0,-1,-3,-1,-2,0,1
3564,-1,-2,0,-2,-2,0,-3,-2
3565,4,-2,0,0,-1,0,0,-1
3565,0,-1,0,0,-2,-3,-1,-1
3586,-1,-1,-1,1,-1,-1,0,0
3586,-2,-1,-2,0,0,0,-3,-3
3587,-2,0,-1,-1,-2,-3,-1,-1
3587,0,-2,-1,-2,-1,-3,-4,1
3608,0,-2,-2,-1,-1,0,-1,1
3608,0,-2,-1,-1,-2,1,-3,-2
3610,-3,-3,-1,-3,1,0,2,-1
3610,-3,0,0,0,0,-1,1,-1
3631,1,-1,0,1,-2,-1,-1,-3
3631,-1,-2,-1,-1,1,1,-4,-1
3633,-3,-1,-2,-1,-1,-1,-1,1
3633,1,0,-1,-1,-2,-1,-1,0
3638,3,0,0,0,-1,-3,0,0
3638,-3,-1,-2,-1,0,1,-3,-3
3654,1,0,0,1,0,-1,-1,-1
3654,-2,-2,-1,0,-2,-2,-1,1
3661,-3,-1,-2,-1,-3,-2,-2,-3
3661,1,0,-2,0,-3,-1,-1,-2
3662,-1,-1,-2,-2,-1,-1,-1,0
3662,-2,-1,-2,-1,0,-2,2,-1
3674,2,0,-1,0,0,-1,1,-1
3674,-1,-1,-1,-1,0,-1,0,-1
3699,-1,0,-2,0,-1,-5,-1,-2
3699,-1,-1,-1,-1,1,0,0,-1
3699,-4,-1,0,0,-1,0,-3,-1
3699,0,-1,-2,0,1,0,0,-1
3702,0,-1,0,-1,1,0,-1,-1
3702,0,-1,-1,0,-1,-2,0,0
3721,-2,-3,-3,-1,0,-1,0,-3
3721,0,-2,-1,0,-1,-1,-2,0
3722,-2,1,0,-2,-1,1,-1,4
3722,-1,-2,-2,-3,1,-4,0,0
3744,3,-1,2,0,0,0,1,-1
3744,0,-1,-1,-1,-1,-1,0,-3
3749,-1,-3,-1,0,0,-1,-1,-3
3749,-1,1,-2,0,-1,-2,-1,-2
3765,-2,-2,-2,-3,-1,-2,-2,-3
3765,-1,-1,-2,-3,0,3,-1,7
3767,0,-1,-2,-1,-2,-6,-4,-4
3767,-1,-1,-2,1,-3,-2,0,4
3789,-3,-1,-1,0,-3,0,-1,-11
3789,-1,-2,0,-1,-2,-4,-1,-5
3795,-2,-2,0,0,-3,2,-3,-2
3795,-1,-1,0,-2,-1,-1,1,-1
3795,0,-1,-2,-2,-1,-1,0,0
3795,0,0,-2,-2,-2,-1,-3,-4
3805,-2,-1,-3,-1,-1,0,1,3
3805,0,-1,-2,-1,0,-1,1,-3
3819,-1,-1,-1,-1,0,-1,1,4
3819,-1,-2,-1,-1,0,-1,-3,-2
3820,-1,-1,-2,0,0,0,-2,-2
3820,1,-2,-2,-1,-1,-2,-2,1
3841,-2,-2,-1,-2,0,2,2,1
3841,0,0,1,0,-1,-6,-3,-4
3843,-2,-1,-2,-1,0,3,1,-3
3843,-1,-1,-1,0,-1,0,2,0
3855,0,-1,0,-2,-3,-3,-3,4
3855,-3,-1,-1,-1,-2,0,-1,-1
3863,-1,0,0,-1,-1,0,1,-7
3863,-1,0,-1,-1,-2,0,-3,0
3886,-1,0,1,-1,1,-1,0,-4
3886,-2,-1,-1,0,-2,2,0,-3
3888,-1,-1,-1,-1,-3,-3,-3,-2
3888,-1,-1,-1,-2,1,-1,1,6
3908,2,0,-2,-1,1,-2,0,-3
3908,0,-2,-2,-2,-2,0,-2,5
3909,0,-2,-1,-1,0,-1,1,-2
3909,-3,0,-1,0,-2,-1,-3,-4
3931,-1,-1,0,-1,-2,-3,-1,-3
3931,2,0,-1,-1,-1,2,1,-1
3932,1,-2,-2,-1,-1,1,-3,3
3932,-2,-1,1,-1,-2,0,-1,-2
3953,-2,-2,0,0,-1,2,-1,1
3953,2,1,-2,-2,-1,-3,0,-1
3955,-2,0,0,1,-1,-1,-1,3
3955,0,0,-1,0,0,-1,0,-1
3969,-2,0,-1,-1,-2,0,-3,-6
3969,-1,-2,1,-1,-2,0,-1,8
3975,1,-1,-1,0,-1,-3,0,-15
3975,-2,0,-2,-2,-1,-2,2,-2
3984,-1,-1,-2,-1,-1,-2,-2,0
3984,-1,-2,-2,1,0,0,-6,-7
3990,-1,1,-1,-2,-3,-3,-1,6
3990,0,-1,-1,0,-1,-1,1,2
3997,2,1,0,-2,-1,2,0,9
3997,0,-1,0,-1,0,0,0,-5
4004,0,-1,1,1,1,-1,-2,-11
4004,0,1,-1,0,-2,-1,0,31
4019,-3,-1,-3,-3,-4,-4,-2,-15
4019,1,-2,0,-3,-2,0,0,19
4028,-1,1,-1,-1,1,0,-4,-8
4028,-2,-2,-2,-2,1,-3,1,-21
4043,-2,1,-1,1,2,0,-5,7
4043,0,0,-2,-2,-2,1,1,2
4045,-2,-2,-1,-2,-2,1,0,-19
4045,-2,-2,0,1,0,-5,3,10
4059,-3,-3,-1,-3,-4,0,-5,-23
4059,-1,-1,-3,-1,-2,-2,-2,7
4065,4,-1,-1,0,-1,1,4,37
4065,1,-1,-1,-1,1,1,-3,-3
4080,0,0,1,1,0,-4,1,-2
4080,-1,0,0,2,1,4,-2,-24
4082,-1,-1,-1,0,-2,-1,1,0
4082,-1,-3,0,-2,-1,-1,-1,0
4103,-2,-1,-2,-2,-5,-6,-2,-33
4103,2,0,0,0,2,2,-6,31
4105,-1,-3,-3,-3,-2,-1,1,4
4105,-1,-1,0,-1,1,-1,4,-12
4117,0,0,-2,-1,0,-1,-6,-10
4117,-1,-1,-2,1,0,2,1,-22
4126,-1,-1,0,0,1,-1,-9,-6
4126,-1,-2,-2,0,-4,-4,-2,10
4141,2,-2,-1,0,2,2,3,-1
4141,-1,1,0,0,-2,-1,-2,-26
4142,-3,-1,-1,-1,-3,-4,-2,9
4142,-5,-1,-2,-1,0,0,-1,-46
4163,-3,-1,-1,1,-1,-3,6,43
4163,3,0,-1,-1,-1,-2,-11,-5
4164,0,0,-1,-2,1,-1,15,-11
4164,-1,-1,-2,-3,-4,-6,-9,-12
4177,-3,-3,-1,-2,-3,-1,-7,-46
4177,4,-1,-1,-1,0,5,10,61
4186,-4,0,-2,-3,-3,-6,-12,-17
4186,1,1,-1,2,-3,-3,0,18
4209,-2,-1,-1,0,3,1,1,-36
4209,-2,-2,-2,-1,2,-2,-3,-6
4210,0,-2,-2,-5,-4,2,-2,-9
4210,1,0,-1,-3,1,0,9,19
4230,-4,0,0,0,-1,-1,-3,-23
4230,-6,-4,-2,-4,-10,-7,-10,-24
4232,-1,0,-1,1,3,0,5,26
4232,9,3,0,1,2,1,9,64
4253,5,0,-1,0,1,4,1,33
4253,-2,-3,-2,-3,0,1,5,-10
4255,-8,-3,-1,0,-2,-7,-16,-65
4255,5,0,-1,1,-1,-1,6,64
4260,-4,-2,-1,-1,-2,-1,-2,-12
4260,0,-1,-1,-2,-3,2,-1,8
4276,-1,-2,0,1,-2,0,-1,-40
4276,-6,-5,-2,-2,2,-1,-21,-37
4283,-1,-1,0,3,3,0,19,-18
4283,3,0,-1,-3,-5,-2,4,-28
4284,0,1,0,1,2,3,-6,-31
4284,-5,-4,-3,-3,-4,-10,-6,-72
4298,6,1,-1,-1,-1,4,0,86
4298,-5,-1,0,3,1,-1,-2,-7
4306,4,0,-1,0,2,5,20,51
4306,-4,0,2,0,-2,-1,-16,-28
4321,-6,-3,-4,-2,-4,-5,-7,-17
4321,2,-2,-1,-2,1,-1,2,0
4322,-1,0,0,0,0,2,-5,-1
4322,5,-1,1,1,3,4,2,43
4343,-5,-2,-2,-1,-1,-7,-9,-60
4343,5,2,1,0,-1,-1,12,94
4344,-3,-2,-1,-3,-3,-1,-9,-60
4344,-7,-3,-4,-5,-10,-12,9,-3
4357,2,1,1,0,1,0,-14,-49
4357,3,-1,-1,2,2,2,-3,36
4366,-6,-2,-1,1,4,5,2,-27
4366,-1,3,1,-1,-1,-2,-8,-21
4389,-8,-6,-5,-6,-10,-12,8,17
4389,-7,-2,-3,-2,1,2,3,-39
4390,5,4,0,-1,-1,-3,-1,44
4390,5,8,4,3,6,7,3,-27
4403,0,0,1,0,-3,-1,-9,-10
4403,-9,-4,-3,-2,-2,2,-8,-84
4405,9,0,0,1,-4,-4,6,93
4405,-1,-4,-2,-2,-3,-4,2,-13
4417,-1,0,1,1,3,1,-8,-8
4417,6,3,2,1,2,0,10,60
4425,-2,-3,-2,-1,1,5,-5,-20
4425,-2,0,-4,-3,-5,-11,5,20
4441,-2,-17,-2,-1,-2,1,3,17
4441,-9,4,-3,-6,-10,-5,-20,-125
4442,22,5,3,3,0,3,39,56
4442,-6,-3,-1,-1,1,0,-5,-74
4463,-2,3,-1,-1,4,2,-5,14
4463,-8,-7,-1,1,3,3,-6,-23
4465,-4,0,-2,-4,-4,-5,-7,11
4465,0,-2,-1,-2,-1,3,8,29
4485,5,4,3,2,0,-2,-4,14
4485,1,0,0,0,1,3,-2,-6
4487,-1,-2,0,1,1,-2,-5,8
4487,-7,-5,-1,1,0,4,-5,-15
4508,5,2,-1,-3,-7,-15,6,42
4508,-3,-3,-5,-3,-6,-13,-19,-41
4510,1,-4,0,-2,-7,-1,10,31
4510,-5,0,2,0,4,-1,-10,-38
4530,1,2,1,2,5,9,4,37
4530,2,-1,0,1,1,4,1,17
4533,0,0,-4,-3,-1,-3,6,44
4533,-11,-8,-2,-1,-5,-7,-15,-73
4537,6,8,2,-1,0,4,11,41
4537,6,0,1,1,0,7,7,-9
4562,2,1,0,-1,1,2,-1,-45
4562,0,-2,-2,-4,-7,-8,-3,25
4562,-6,-5,-1,-1,-1,1,7,-52
4562,-5,-2,-2,-2,2,3,-6,26
4564,-3,-2,-2,0,2,-1,-6,-37
4564,4,2,2,2,-1,1,9,18
4584,-7,-6,-5,-6,-7,-10,-24,-52
4584,6,2,-1,-1,-4,-3,9,90
4585,-9,-3,-1,-2,2,0,-5,-62
4585,3,0,0,0,4,-1,6,62
4597,-5,-2,-3,-4,-6,2,-5,32
4597,0,0,0,2,-1,-1,-11,-38
4623,-1,-2,-2,-1,-1,6,16,10
4623,-5,0,-1,-2,-1,-3,-7,-23
4624,7,2,-1,-1,0,7,1,65
4624,1,-2,-1,-3,-3,-11,-2,-40
4627,-6,-3,1,-1,-3,-1,-7,-42
4627,0,3,-2,1,5,1,-1,-11
4643,-4,0,1,1,-5,-4,-12,-26
4643,0,-2,-4,-6,-9,-6,4,36
4645,-3,-2,-2,0,2,-5,-14,-28
4645,1,4,2,2,6,16,29,88
4667,3,0,-1,-1,-7,-9,-11,-18
4667,-2,-1,0,1,1,5,1,-29
4672,-5,-2,-1,0,1,-4,-4,-15
4672,7,1,-1,-3,-5,-2,3,23
4681,2,1,-1,1,13,3,2,3
4681,-3,0,-3,-4,-4,6,10,-12
4683,6,1,-2,-1,-6,-8,-1,79
4683,-6,-9,-1,1,-8,-9,-13,-32
4703,-3,0,0,1,0,2,4,-40
4703,8,-1,-1,0,2,-2,10,54
4705,-17,-6,-3,-2,5,5,-14,-39
4705,-4,-1,-2,-1,-1,-5,-6,-34
4717,-1,-1,0,0,-2,2,1,8
4717,4,-1,-1,-1,-2,2,4,51
4743,5,1,0,-2,-4,-7,9,60
4743,-5,-2,-2,0,-1,-2,-12,-21
4743,-4,-2,-3,-9,2,1,-3,-10
4743,-2,2,4,27,4,2,3,-56
4747,5,1,-5,-38,-24,-6,-1,40
4747,6,2,1,18,27,-4,7,14
4764,0,1,-2,-16,-35,-3,-9,-12
4764,-2,-5,-6,-12,5,1,-3,-34
4764,0,-2,2,5,4,1,-1,-72
4764,-8,-2,-2,-6,-6,-2,-6,8
4777,12,2,1,11,10,-2,3,-8
4777,5,3,2,-2,1,4,11,-17
4786,-5,-5,-2,11,1,-4,-6,-48
4786,2,-1,-4,-7,-7,-2,-2,-3
4800,-7,-3,-1,2,4,-1,5,7
4800,-3,-1,-3,-23,-4,-4,-11,-64
4809,3,5,8,23,8,3,9,78
4809,-1,-1,2,1,-7,-2,-1,22
4823,-4,-2,-7,-13,-4,1,-2,5
4823,-3,-7,-3,4,9,2,-3,6
4825,-4,-2,1,5,4,0,4,-22
4825,0,0,0,15,24,2,-1,18
4837,1,1,13,-41,-50,-5,-9,-24
4837,-8,-5,-16,-6,7,0,5,44
4854,3,-1,4,12,15,5,15,12
4854,-1,-1,-12,-5,-24,-14,-9,-34
4860,4,-1,1,18,26,12,0,24
4860,-4,3,7,4,-4,-13,-1,-11
4875,-18,-5,-8,-18,-17,7,-9,-33
4875,15,9,12,23,7,-14,12,10
4883,-2,0,-5,-17,-9,6,-2,7
4883,3,-9,-8,-9,5,1,-9,-50
4885,8,0,-1,17,-12,-2,8,48
4885,-11,-8,-9,-38,-23,-5,-12,-15
4907,3,4,2,10,25,16,2,-5
4907,3,2,4,7,-7,-7,12,11
4908,-2,-1,-3,-29,-11,-26,-10,-24
4908,-8,-6,-24,-56,-20,3,-3,-4
4920,-5,-4,-3,7,21,0,-15,-13
4920,-3,5,9,49,29,26,11,36
4927,-7,-11,2,-51,-32,14,10,-8
4927,7,2,-2,-17,-31,-46,-27,-26
4944,-4,9,-7,25,25,4,1,31
4944,-14,-4,4,-27,-37,-18,-25,-63
4950,35,7,1,13,26,15,18,68
4950,-4,0,11,12,30,37,-2,13
4967,-6,-9,-6,39,18,-18,3,-9
4967,-6,-1,-5,-32,-36,-21,-14,-18
4968,-13,-16,-14,-26,-13,-30,-8,-42
4968,7,41,17,51,-8,9,10,2
4980,7,11,-14,-3,20,12,4,-16
4980,4,7,35,21,19,27,-2,-11
4987,7,11,-1,9,15,11,1,54
4987,2,-23,6,19,-3,-16,14,-8
5011,-24,-27,-18,-13,-26,-2,-5,-17
5011,-7,-29,-15,-18,4,-17,9,9
5012,5,25,18,31,7,10,-8,-8
5012,6,21,19,9,-11,-13,-33,-63
5026,0,-30,-16,-19,-18,-13,5,48
5026,-3,-21,-39,-32,-1,17,16,116
5027,-19,-51,5,25,20,-11,-7,-60
5027,12,82,25,24,23,30,3,-42
5039,13,21,12,-9,-36,-22,-19,-41
5039,-16,-22,-3,-69,-1,11,1,-14
5049,4,13,-14,46,10,-3,4,-18
5049,-19,-32,-26,-91,-48,-2,-6,10
5063,7,-10,8,17,6,7,2,6
5063,-4,18,1,47,-4,-26,-9,-28
5065,-6,-9,-12,-38,-32,4,-4,10
5065,5,-36,-6,-16,18,-19,4,3
5094,-2,14,5,7,-1,-12,-15,-19
5094,2,-3,-8,-5,2,14,-6,-14
5095,-23,-37,8,72,1,-10,2,-53
5095,3,-16,-15,-12,-5,9,7,51
5099,16,46,26,2,15,24,12,-24
5099,9,22,6,24,25,2,-2,-33
5108,34,37,8,-5,10,17,5,57
5108,-23,-38,-10,1,-8,3,1,22
5132,-15,-20,-5,-1,2,-20,-6,-40
5132,9,0,1,-9,-9,14,9,11
5134,-15,-1,-3,-25,-15,-63,-9,-60
5134,2,-15,-4,13,-4,14,5,-7
5145,3,-14,-3,9,17,12,-9,20
5145,11,0,10,33,22,17,16,5
5147,-7,-1,-16,-64,-15,27,8,-4
5147,3,-10,-5,3,-12,-30,-6,19
5159,-8,-17,5,29,16,5,-3,-49
5159,1,19,3,16,0,11,-7,-10
5169,-10,-17,-3,-15,-31,-44,-6,3
5169,1,4,-10,-5,10,16,5,-14
5182,6,-24,-5,-32,-8,21,3,-8
5182,3,2,-3,7,3,-14,-3,25
5185,-1,10,6,12,30,-2,2,0
5185,-7,-15,-6,-9,-13,20,-1,1
5206,-3,15,3,28,26,13,3,-46
5206,4,3,7,-46,-40,-31,-11,-19
5207,-10,-17,-14,-4,-13,-18,-11,-25
5207,8,10,6,-10,41,27,2,16
5220,5,2,0,9,0,-2,1,3
5220,2,-6,-8,-10,-34,-13,-6,60
5228,-7,3,-1,-5,20,15,17,-12
5228,-1,11,7,26,8,-11,-17,-33
5243,7,6,1,-17,-16,-10,3,31
5243,-10,-1,-3,6,-1,-4,-1,-43
5245,-9,-19,6,9,24,13,1,-6
5245,26,3,1,33,22,35,20,23
5265,-6,5,-8,-47,-19,2,-8,-8
5265,-5,-2,-2,24,-8,-62,4,39
5267,-3,1,-3,-27,-34,9,-16,-28
5267,-4,2,7,-5,20,1,-4,-26
5279,1,2,3,24,-1,8,0,32
5279,-3,-2,1,25,23,-18,-9,-33
5288,-5,-10,-2,13,-20,-16,2,-20
5288,1,-17,-6,-17,-32,-12,-4,68
5303,-2,19,6,-14,15,5,-4,-15
5303,-5,-2,3,18,39,59,16,-34
5305,15,20,4,10,18,-15,0,79
5305,-15,-8,-6,-19,-50,-23,-15,-63
5325,-13,-26,-8,15,2,-9,-5,-10
5325,13,9,0,-22,-12,24,3,5
5327,-6,7,-7,-16,7,24,0,8
5327,0,-4,-1,8,35,11,13,-40
5339,0,-1,-2,-16,-40,-17,-23,18
5339,-11,-12,-5,7,-9,-20,-1,-10
5348,-3,1,-4,-5,-34,-46,-18,-13
5348,-6,-9,-4,4,-22,-19,-1,-7
5363,4,-7,-2,-1,31,46,14,5
5363,0,-5,3,20,21,23,-3,-22
5365,0,17,0,-25,9,6,4,-45
5365,-2,9,0,9,13,1,-2,61
5386,1,2,-7,-31,-43,-36,-2,-33
5386,-4,-10,-4,-13,0,24,3,-1
5392,8,16,6,22,8,-25,-6,-17
5392,-5,-6,-2,-5,2,-3,5,13
5399,-4,-8,-3,16,-9,11,-11,17
5399,8,-5,0,-4,20,-2,6,25
5408,3,10,4,-21,12,61,2,-8
5408,-11,6,-1,1,-9,-73,-12,-35
5423,-10,-11,-12,-31,-80,-57,-13,-49
5423,-9,-27,-10,-19,-9,-26,-18,-32
5425,7,5,-3,19,38,49,10,32
5425,8,12,15,27,62,71,4,-1
5452,6,36,4,11,16,-8,12,-16
5452,-3,-5,1,-5,-56,-36,-23,-3
5461,-9,-8,-3,6,4,-24,-3,-25
5461,-3,-8,-8,-1,8,27,14,3
5463,6,-17,-9,-49,-14,-1,-8,-3
5463,7,7,6,7,10,11,13,1
5476,1,5,7,35,14,-6,3,74
5476,-1,-5,-11,-57,-36,1,-14,-52
5483,-4,-4,4,27,32,-49,1,21
5483,-8,-10,-8,-18,1,34,14,-6
5496,5,-14,-14,-35,-61,-77,-34,-35
5496,-2,29,7,20,-5,-6,-5,-17
5506,2,-6,1,23,34,48,10,26
5506,-10,3,-3,-10,13,54,0,-35
5507,11,-11,11,29,20,-57,13,42
5507,9,9,1,3,-41,-17,-9,-11
5519,-13,-21,-7,-17,-54,-28,-19,-1
5519,-7,7,4,26,48,-5,7,9
5528,4,6,6,21,9,73,10,17
5528,7,-7,-4,-2,21,18,11,11
5543,-2,12,4,13,3,-25,-2,30
5543,-1,0,-2,-11,-34,-5,-10,14
5545,-9,-18,17,12,23,21,10,2
5545,4,15,-27,-34,-32,-39,-16,-26
5574,1,2,6,9,22,49,6,6
5574,1,-3,-3,15,13,-30,-2,-25
5575,-8,-3,-3,-2,-10,33,-13,-52
5575,-10,-15,8,30,18,-23,7,-26
5579,-2,-2,-6,-43,-63,-17,-10,17
5579,7,14,-1,0,5,-40,1,-1
5588,3,6,-4,-9,14,32,11,-7
5588,-9,-29,-6,2,8,45,3,18
5603,0,-9,-10,-18,20,-23,-5,-28
5603,1,5,5,-1,-40,-33,-3,26
5605,-1,-8,-13,-18,-6,-9,2,-27
5605,0,1,13,24,34,59,7,8
5626,0,-1,5,4,15,-2,7,9
5626,-5,-3,-4,-19,-29,-23,-9,-10
5628,-6,-11,-7,-10,-7,-22,3,35
5628,11,36,5,7,15,49,-2,-13
5640,7,3,13,35,54,13,7,-42
5640,11,0,1,-16,-37,-2,16,106
5665,-14,-14,-13,-17,-44,-53,-22,-42
5665,-13,-29,-4,7,7,-22,1,-3
5666,5,6,-1,-21,10,35,8,8
5666,2,6,-3,-4,26,46,-4,-52
5686,2,19,8,10,22,42,14,21
5686,4,9,2,-7,-8,-44,-9,-5
5687,-2,-1,-4,23,-64,-79,-5,55
5687,-12,-22,-14,-27,-9,-4,-11,-9
5688,3,4,4,5,46,89,16,9
5688,-1,2,5,13,30,-27,-7,-14
5709,-4,-10,-2,-2,-46,-11,-15,3
5709,0,39,2,-6,1,-6,11,-24
5710,4,-6,-3,18,10,2,-8,-6
5710,-1,0,6,-10,25,24,8,-6
5731,2,-8,4,0,0,-22,-6,12
5731,-4,-2,-3,-16,-47,-53,-27,-51
5733,3,13,-5,-20,-11,-18,8,73
5733,0,-6,-3,6,12,5,11,-17
5753,0,-2,1,-4,25,49,7,-33
5753,-3,-14,1,6,9,24,4,1
5754,5,32,3,-1,-6,-15,-10,-13
5754,-10,-21,-7,-1,-27,-35,-15,23
5760,8,32,-5,-22,-28,-15,12,3
5760,-9,-20,-7,-9,-6,-6,-17,-75
5776,6,-2,0,0,8,20,16,76
5776,1,0,0,15,9,9,-8,-51
5782,-5,-7,3,-1,-8,-12,0,-11
5782,4,-6,-1,24,21,17,11,39
5790,-3,0,2,2,14,19,-12,-32
5790,-3,-1,-2,-12,-28,-21,1,-9
5806,4,-4,-8,-32,-18,-6,-12,-28
5806,1,11,1,16,22,12,8,49
5807,2,-20,-1,-3,-15,-29,0,-7
5807,2,11,-1,0,3,18,-2,-9
5820,-12,-18,-4,10,19,15,-1,-23
5820,5,-11,3,14,15,12,18,75
5828,-5,18,1,-16,-14,-11,-11,-64
5828,8,1,1,-4,-2,34,4,16
5851,-3,-3,-1,-11,7,-43,-1,-6
5851,-6,-8,-5,-3,-55,-19,-12,16
5853,-3,-15,-1,15,17,-5,-1,-30
5853,-7,-9,-11,-9,-11,28,-13,0
5873,1,-1,2,14,33,5,12,66
5873,4,9,1,-12,1,-1,0,-28
5875,-9,-21,-2,-17,-45,-38,-16,-55
5875,6,4,-1,1,10,21,10,61
5889,10,-2,4,40,33,54,15,-12
5889,-7,-3,8,29,36,7,-2,-45
5890,2,11,-6,-25,-46,-42,-8,9
5890,-2,-16,-8,-31,-37,-40,-11,9
5918,-2,11,0,20,21,27,9,9
5918,-2,-16,5,3,9,0,0,-20
5920,2,23,4,17,24,27,-1,-40
5920,-5,-7,0,-4,-14,-50,-11,-13
5926,-9,-7,-6,4,-22,-9,-5,-8
5926,3,6,-4,-32,5,26,6,3
5927,-2,-10,0,5,25,16,8,30
5927,3,19,5,-22,-26,-33,-13,-13
5949,-3,-12,-6,3,-8,-5,-12,1
5949,-4,8,-2,-13,-15,-2,8,-16
5950,-11,-35,-3,15,33,62,19,80
5950,10,17,1,5,-14,-61,0,-2
5963,-2,0,1,7,-14,-10,-12,-59
5963,4,0,0,15,18,4,3,46
5970,-15,-10,-4,-11,-20,-8,0,-26
5970,-12,-8,-1,12,29,49,4,-27
5986,14,5,5,-10,16,20,15,33
5986,13,27,3,23,-8,-35,-8,-5
5987,12,-5,-3,-27,-25,-36,-19,-52
5987,-10,-17,-6,-4,-24,-9,2,88
6007,-13,9,0,-7,7,-2,-4,-13
6007,-14,-3,1,19,-2,4,-3,-8
6016,-12,5,-2,-7,30,26,10,46
6016,-19,-29,-3,-13,-33,-25,-5,-23
6022,18,12,-9,-4,-3,1,8,31
6022,8,3,3,3,-3,-12,2,52
6031,-2,1,-3,10,4,-3,-14,-5
6031,6,-6,5,5,18,30,13,60
6045,-9,-28,-3,23,22,20,7,-10
6045,0,-7,-1,-10,-12,-17,-11,-39
6048,9,6,-6,-23,-36,-11,-8,-6
6048,-10,-5,-2,6,3,-19,-4,-31
6069,17,34,5,6,1,-5,2,-18
6069,-4,-5,1,-4,36,45,23,84
6070,4,8,-1,13,-14,-32,-18,-49
6070,-1,-2,-5,-15,-20,6,-2,24
6082,-2,-9,-1,-5,11,18,9,-4
6082,-6,-10,-3,6,38,37,-1,-29
6091,-1,11,6,-11,-37,-33,8,-6
6091,6,-9,-9,-29,-9,-25,-24,-58
6106,-3,16,-1,-3,-1,-1,5,8
6106,5,1,-2,-26,-27,-4,-4,-10
6107,-6,9,12,80,67,51,10,18
6107,0,14,3,-2,16,19,-10,-50
6129,-20,-27,-14,-49,-80,-66,-10,-4
6129,9,16,2,21,16,-17,-9,-27
6130,-2,0,-10,-35,-25,-9,-2,4
6130,-5,3,3,2,17,26,3,-10
6142,-4,-18,3,38,50,53,5,-21
6142,5,31,1,-14,-24,-33,-1,-13
6149,1,-20,-10,-23,-41,-42,-10,92
6149,-7,-13,-5,-5,5,5,-1,-50
6166,-3,17,5,41,59,65,14,83
6166,7,-12,-9,-61,-52,-50,0,-38
6167,-5,-2,-2,14,-24,-46,-23,-26
6167,-3,-1,-3,-13,1,7,7,0
6188,6,-3,0,11,12,12,4,-12
6188,-3,-8,2,8,38,52,9,20
6189,-1,7,6,10,-3,-15,6,-22
6189,19,35,-7,-6,-35,-43,-20,10
6202,-3,-14,-1,-28,-10,-2,6,41
6202,-12,-5,0,28,29,28,10,1
6209,5,-21,2,5,15,16,7,-15
6209,1,4,0,17,-32,-22,-2,29
6225,-1,13,0,-16,-8,12,0,-39
6225,-1,-2,0,4,-5,-45,-5,-2
6228,-1,2,4,13,29,39,11,58
6228,3,-5,9,36,39,39,18,75
6249,-1,-1,-3,-13,-30,1,-7,-20
6249,-15,-17,-9,-22,-31,-49,-9,3
6250,15,17,-2,11,11,17,-7,-22
6250,1,3,5,-13,-1,-4,6,-1
6263,1,-16,-7,-11,-4,-17,1,-21
6263,1,-6,4,17,8,18,-3,18
6269,-8,-16,-2,-15,-3,-2,4,-21
6269,-4,-2,-2,27,22,20,3,-21
6286,-9,-1,-2,-43,-28,-19,-2,-15
6286,7,25,2,4,-16,-23,-19,-65
6287,5,-7,-5,1,-5,-21,-5,30
6287,-10,-12,-1,-9,17,24,12,-8
6309,-5,-12,1,15,24,5,-12,-34
6309,4,4,-1,-27,-18,13,9,47
6309,-1,-8,-7,-8,-50,-44,-19,-26
6309,8,8,3,5,13,-3,4,-4
6323,0,0,2,18,12,10,-3,-11
6323,-6,-11,0,4,26,36,5,23
6330,-8,-1,5,13,1,-8,-1,3
6330,-9,-18,-6,-23,-36,-27,-15,5
6346,20,26,3,10,13,1,16,19
6346,-4,2,-2,-4,17,16,5,-8
6347,1,0,0,13,-14,-9,7,-24
6347,-3,-7,-7,-41,-13,-9,-12,-26
6369,-11,7,4,14,-7,-17,-7,-3
6369,3,-7,-4,13,16,15,7,17
6370,-1,11,-1,-25,15,33,8,-3
6370,-2,1,3,10,-11,-11,0,0
6382,-3,-14,-6,-10,-17,-18,-17,2
6382,-10,-24,-7,-15,-21,-24,11,34
6391,3,21,4,7,19,14,-6,-12
6391,3,2,6,26,44,63,8,-9
6406,-1,5,4,24,-5,-29,-11,-5
6406,-3,-17,-11,-47,-84,-54,-18,-19
6407,-7,-2,-6,-4,30,14,6,-4
6407,5,18,-5,-21,-5,7,3,21
6428,-6,-11,-1,6,-5,0,3,-27
6428,-8,-4,2,17,23,14,-9,-69
6430,8,1,2,-9,-16,-7,2,50
6430,5,9,0,15,17,-1,-1,-17
6442,-5,-10,-1,3,13,32,4,-2
6442,3,15,2,-15,-9,-29,-1,19
6451,-6,6,-1,18,-16,-14,-7,-2
6451,-1,-5,-8,-43,-25,-23,-2,-7
6466,0,-11,-2,-6,8,9,9,34
6466,-2,-8,2,8,12,15,-2,0
6467,-9,2,-1,12,29,10,-3,-19
6467,-2,-2,0,2,-40,-18,-12,-21
6489,9,1,-4,-21,-2,0,15,71
6489,2,9,3,23,14,25,3,26
6490,1,-3,-6,-44,-14,-34,-9,-40
6490,-10,-13,0,19,6,-4,-8,-19
6501,1,-3,-4,-14,18,19,-5,0
6501,-4,-2,1,13,-11,-4,5,12
6527,1,-19,2,1,0,3,-5,-14
6527,-1,0,-6,23,9,-21,-4,-11
6527,-12,-21,-10,-63,-43,-5,-11,-24
6527,9,30,6,26,31,-6,-4,-43
6529,8,26,6,-13,-17,17,3,19
6529,2,-8,2,0,21,14,-3,-43
6548,-2,1,2,25,6,-9,5,14
6548,-6,-27,-7,-8,-16,-4,-6,-31
6550,-10,-4,-3,-39,11,13,-3,19
6550,11,28,9,17,-7,-1,-1,28
6562,-2,-3,-1,-4,-8,-11,0,-52
6562,7,-2,-4,-1,4,-19,8,93
6571,-3,-18,-4,-5,-13,6,-11,-42
6571,-4,-7,0,-7,2,2,8,12
6585,6,14,3,9,0,-1,-7,-17
6585,-3,2,2,16,14,12,-7,-80
6588,6,-9,-4,2,23,28,6,22
6588,-1,5,-1,-8,-13,-10,-4,10
6608,-4,-6,-6,-10,-57,-49,-13,-13
6608,3,16,6,-5,25,16,3,-12
6614,-3,-11,-3,4,-6,-6,-8,1
6614,-6,-17,0,3,27,39,13,1
6622,2,11,8,28,12,-6,-1,-13
6622,5,23,2,-14,-23,-33,-10,14
6637,-6,-6,-6,-10,-20,-8,7,20
6637,-4,-8,-6,11,-1,-8,-2,0
6646,-4,-19,-1,-2,21,24,11,1
6646,0,-2,-3,5,7,21,-1,-2
6647,-3,11,3,-2,1,-19,-7,-21
6647,3,4,-4,18,-35,-23,-5,6
6668,5,6,-3,-35,-5,-5,-5,6
6668,-2,-3,0,17,11,10,3,2
6669,-13,-24,-6,-5,28,26,8,-16
6669,13,10,-2,-21,-24,-16,-9,1
6682,-8,-4,2,17,7,-7,-6,-27
6682,-6,-5,-4,13,-3,-10,-3,-5
6691,8,20,0,5,-2,9,-2,-68
6691,-1,-7,-3,-23,-3,-4,-1,0
6706,11,27,0,-8,-4,-1,3,23
6706,-14,-29,-4,-9,-12,-3,-1,-18
6708,5,6,1,20,8,-6,-7,11
6708,0,0,3,0,12,19,8,1
6728,-7,-6,1,34,33,37,3,5
6728,-3,-9,-2,-28,-25,-28,2,5
6729,18,12,-2,-7,-52,-42,-4,58
6729,-3,-9,-4,-7,19,8,-5,-6
6751,-2,-2,-3,2,3,-4,-4,-16
6751,-5,-9,-2,11,18,24,5,11
6753,0,9,4,9,17,21,3,-14
6753,-7,-14,-4,-3,-15,-25,-10,0
6773,4,-11,0,-3,-21,-15,6,-8
6773,3,19,-4,-22,6,4,-4,-34
6775,1,23,1,-15,-16,-9,-8,5
6775,2,-2,2,25,27,25,7,-2
6795,-4,-6,-3,-12,-5,0,-1,14
6795,6,0,1,1,-7,-1,1,22
6798,-16,-21,-5,5,3,-10,-6,-18
6798,2,1,2,7,-4,-4,-7,-14
6818,4,14,-1,-6,-5,-9,3,33
6818,2,0,2,15,5,19,1,-5
6819,-5,-9,-4,-5,8,-7,-3,4
6819,-8,-4,0,-3,-21,-8,0,-4
6825,2,-3,-4,3,1,-8,-5,-32
6825,-6,-4,-2,-2,0,3,4,26
6827,0,-13,1,2,0,7,-1,-7
6827,2,-3,-5,-12,1,1,1,16
6848,2,29,5,14,15,8,2,7
6848,3,0,2,6,-1,0,4,20
6849,-9,-12,-5,-12,-5,-2,-11,-29
6849,-1,2,2,20,-20,-20,1,6
6871,-2,-9,-6,-15,6,0,2,7
6871,-3,-4,-2,5,-1,-4,-2,-13
6873,0,0,0,11,9,9,4,31
6873,3,-2,-1,-19,4,19,-4,-2
6885,-2,3,5,5,-5,-25,-5,2
6885,2,3,-3,-18,-31,-22,1,-9
6886,0,-4,-3,3,6,1,-1,7
6886,-2,1,2,14,21,16,3,-16
6908,1,-10,-4,-21,-2,9,-2,44
6908,-2,-5,-2,-5,-4,-8,-1,24
6909,15,32,3,5,-15,-13,1,-6
6909,5,25,2,-2,8,9,-7,-4
6930,-4,4,2,9,-1,-5,3,-12
6930,-10,-11,-2,13,-7,-1,3,-29
6931,-6,-20,-8,-18,-3,1,-4,-7
6931,-2,-4,-3,-7,3,-7,-8,-8
6944,2,2,2,31,15,8,4,-9
6944,-4,2,-5,-55,-19,-4,-9,-7
6960,-4,-4,3,16,5,-6,3,-26
6960,4,3,-1,-2,1,3,3,43
6968,-2,-17,0,-11,-12,2,-5,-4
6968,3,4,1,20,15,8,-2,-4
6968,0,-8,-7,-14,-14,-26,-7,-9
6968,-9,-7,-1,-12,6,8,-2,4
6991,2,-2,-3,-9,10,16,9,-18
6991,6,-8,0,13,-17,-7,-5,7
7006,5,10,3,6,13,12,-2,3
7006,-4,-4,-2,-7,-18,-24,-12,-5
7007,-3,-4,-7,-20,-11,-5,3,-13
7007,-2,-6,1,2,14,5,0,57
7013,-4,-4,2,12,0,9,-2,-42
7013,5,-5,-2,1,2,-2,2,-5
7028,-3,2,4,12,2,2,-5,-5
7028,0,5,-2,-14,-12,-3,4,-21
7029,-8,-13,-5,0,-2,1,-8,-5
7029,4,-4,-1,-1,7,10,5,16
7050,8,30,2,7,-1,3,1,3
7050,0,3,2,5,-2,-17,-3,-17
7051,-3,-4,1,9,11,13,8,17
7051,-1,-3,0,-7,-3,1,-5,-18
7074,-5,-6,-3,-7,2,11,0,3
7074,0,3,0,0,-7,-11,8,2
7074,-1,-1,-5,-15,-14,-39,-9,16
7074,-2,-15,-6,-3,-12,-1,-2,-18
7096,-6,11,5,20,20,12,-2,2
7096,6,14,3,-8,21,25,8,4
7096,7,-5,0,1,-5,7,3,10
7096,0,12,-1,2,-5,-12,-2,0
7119,-7,-19,-6,-7,-10,-9,-1,-3
7119,-4,-13,-4,3,8,-4,-4,-9
7119,2,7,3,14,-6,1,5,9
7119,1,1,-3,1,5,5,-2,-15
7124,-3,-11,-3,-10,-11,-9,-9,-12
7124,-2,7,3,22,9,19,4,-2
7140,-4,-3,0,-12,20,-11,8,11
7140,0,2,-2,-3,-52,-36,-12,-11
7147,-2,-8,-6,13,-10,-27,-13,-8
7147,-4,-7,-7,-27,-9,-2,-1,1
7149,-7,-3,-3,-1,14,22,1,-10
7149,12,12,7,29,31,26,5,11
7170,4,3,2,3,6,-13,-4,-1
7170,-7,-4,0,16,-10,-1,4,10
7170,-6,-7,0,-7,2,6,-5,-5
7170,-8,-13,-2,-9,-18,-25,-3,0
7193,4,7,0,-7,-4,-3,-4,6
7193,0,0,1,15,2,-12,-13,-11
7194,5,11,4,-13,6,0,4,3
7194,-1,-6,3,1,5,19,3,6
7209,-3,-9,-1,7,26,35,4,-5
7209,-1,-5,-7,-22,-18,13,0,-3
7215,2,1,2,4,-32,-48,-4,4
7215,-3,-1,-2,-7,10,14,-9,-4
7240,-3,3,0,2,0,-7,0,-1
7240,-4,-3,4,9,19,21,8,7
7240,0,-2,3,20,23,48,13,7
7240,-4,1,-3,-17,3,-10,-14,-7
7262,-5,-22,-8,-15,-62,-44,-4,2
7262,-3,-2,-4,-2,2,-21,-4,-8
7263,-5,-22,-8,-15,-62,-44,-4,2
7263,-3,-2,-4,-2,2,-21,-4,-8
7263,6,10,3,20,4,0,1,-4
7263,-4,-8,2,-11,13,21,3,-2
7269,-5,-6,-3,-7,2,11,0,3
7269,0,3,0,0,-7,-11,8,2
7270,-1,-1,-5,-15,-14,-39,-9,16
7270,-2,-15,-6,-3,-12,-1,-2,-18
7283,3,5,0,19,20,27,3,2
7283,2,1,1,0,-3,-14,-4,-1
7285,-3,-7,-6,-9,-26,-18,-14,-5
7285,0,-1,0,14,11,2,8,-1
7290,1,-7,-1,-13,-4,-4,-1,0
7290,3,1,-2,-8,6,2,-4,-2
7291,3,4,2,9,15,34,7,3
7291,0,2,0,6,-7,-45,-11,-5
7313,1,2,-5,-23,-44,-24,-10,-12
7313,2,8,1,2,16,-21,2,8
7314,-4,-7,-3,-28,-3,16,3,-2
7314,1,3,1,16,6,26,5,-1
7327,-1,7,5,28,26,6,6,-2
7327,2,-2,-8,-44,-32,3,-7,-8
7329,0,-6,-5,1,-11,-33,7,17
7329,-4,-12,-7,-11,-3,-5,-17,-11
7351,1,20,4,9,16,13,2,-1
7351,10,5,8,34,13,13,13,10
7351,-10,-5,-5,-13,-6,17,-8,-40
7351,2,-9,0,5,-20,-61,2,82
7373,1,4,-3,-5,3,7,-8,-17
7373,2,-1,4,9,0,4,12,10
7374,2,16,-2,-17,9,9,0,-11
7374,-1,-2,-1,15,0,-22,-16,-27
7403,-4,-6,0,-12,-17,-13,2,12
7403,-7,0,-2,8,-9,-7,1,1
7404,-8,-16,-7,11,-3,-6,-6,3
7404,11,-9,0,-14,3,29,5,-5
7411,9,25,7,6,22,24,9,15
7411,-13,-9,-3,8,10,-5,1,-17
7411,-2,-3,1,-1,5,-12,-1,9
7411,0,-5,-7,-15,-39,-5,-4,-20
7433,-3,-11,-2,-6,14,1,-12,-14
7433,1,8,7,15,11,6,8,11
7434,3,4,2,-23,-16,-4,0,12
7434,-5,6,1,9,27,31,6,14
7448,-8,-19,-4,-4,-24,-22,-9,-10
7448,1,-10,-11,-17,-8,1,-3,-21
7449,8,3,5,15,-5,-24,-11,-22
7449,4,8,2,6,20,50,1,-21
7470,-2,-6,2,-5,21,-10,13,14
7470,-18,-5,-9,-30,-47,-12,-3,-9
7471,1,-15,-6,1,2,-23,-10,9
7471,1,3,-3,-7,-2,19,11,-3
7492,-2,-1,-5,-19,4,20,-7,-12
7492,5,-3,7,27,21,-5,7,22
7494,-9,-5,-7,-25,-15,8,-8,-6
7494,-4,4,-1,-11,15,-13,-7,-22
7508,8,-1,-4,13,-34,-3,-2,-4
7508,3,2,-2,-30,-6,-24,-4,39
7509,-2,5,5,24,9,14,-1,-11
7509,3,5,2,14,27,14,0,-4
7530,15,1,1,-12,-15,1,3,5
7530,-11,-6,-2,4,6,-6,-8,-18
7537,-7,1,-2,-3,-15,-16,-9,10
7537,4,-3,-1,-5,-8,0,1,4
7561,0,0,3,5,19,32,9,13
7561,3,0,-3,0,-4,-8,-3,-8
7561,2,-3,1,2,3,-29,8,-9
7561,-6,-7,-4,-7,-18,-9,-17,15
7568,-3,5,-2,-5,-7,4,6,-28
7568,2,4,3,4,21,19,7,-7
7568,-1,-1,3,19,13,29,22,52
7568,2,-8,-2,-9,-9,-23,-17,1
7590,-7,-5,-1,-2,-28,-24,-1,-16
7590,-1,2,-2,0,-2,-10,-7,23
7591,-2,2,-1,0,1,11,-12,-25
7591,-11,-4,-2,-12,6,24,1,0
7613,-5,-12,-10,-14,-6,-18,-12,-5
7613,-8,-6,-7,-18,-24,-30,-11,-53
7614,18,10,2,-3,5,21,25,68
7614,5,6,6,7,7,7,-3,4
7628,-10,0,2,10,13,1,-15,-36
7628,7,11,6,14,8,23,34,1
7629,-16,-17,-10,-12,1,-34,-29,-39
7629,3,4,5,4,-17,5,9,-2
7650,3,2,3,31,8,7,0,35
7650,-4,1,1,-15,-1,-16,-8,-10
7650,-1,-1,1,-9,3,22,17,-5
7650,5,4,-5,-7,-35,-69,-35,-27
7674,-2,-2,-3,3,16,33,-16,14
7674,-10,-5,-4,-2,-10,-21,6,-13
7675,-1,3,2,8,13,9,3,17
7675,-11,0,0,12,6,16,-2,-40
7695,17,3,3,-29,-5,13,27,96
7695,1,-10,-1,6,-2,14,-18,-67
7697,-12,-3,-5,-8,-2,-33,-40,24
7697,11,6,4,26,-10,13,33,-23
7710,-7,-5,-1,19,14,-14,-12,-1
7710,-6,-4,-2,-2,21,36,3,1
7711,6,0,0,-15,0,-18,-6,-13
7711,-4,-4,-10,-14,-44,-15,0,30
7733,8,2,-2,-20,-22,-26,-1,36
7733,-3,5,2,32,32,18,7,25
7734,0,-2,-2,-22,-24,-1,-7,-42
7734,0,-2,0,-3,39,14,1,-4
7748,-1,3,-1,-10,-11,-13,0,-56
7748,-3,-3,-1,3,-25,-13,-21,-24
7748,8,5,8,22,21,14,15,21
7748,-6,-4,-2,1,5,20,2,-30
7770,-16,-12,-7,-16,-10,-19,-3,-47
7770,10,5,5,13,2,-10,7,68
7771,-4,-2,-3,2,-2,19,6,-51
7771,6,4,2,-17,12,7,-20,49
7793,-9,1,5,23,21,-3,6,-39
7793,7,4,-2,3,-22,3,9,31
7794,-7,-8,-9,-7,10,-2,8,-34
7794,1,-3,-6,-16,-35,-21,5,13
7808,-2,0,1,7,22,39,15,90
7808,-11,-1,0,-7,7,-16,-11,-20
7808,-7,-4,-2,4,-8,12,-24,-79
7808,1,-5,-4,-6,20,-4,25,6
7830,-9,-5,-4,0,-11,-12,-23,-83
7830,-3,-4,-7,-27,-39,-22,-2,47
7831,2,-1,2,46,28,18,22,-3
7831,0,1,1,-22,3,40,-11,-25
7852,1,-2,1,24,5,-20,9,21
7852,-9,-7,-8,-21,-27,-1,-16,-62
7861,5,0,-3,-11,-25,-46,-5,-16
7861,10,2,-1,-9,6,6,17,54
7868,-4,2,1,-4,2,12,-1,-91
7868,1,1,3,17,29,19,6,50
7869,2,-1,-1,-3,-16,0,-8,38
7869,-4,-3,-1,10,6,-1,-8,18
7890,12,8,1,-18,-10,-6,15,25
7890,-1,-3,-4,-8,2,-2,-7,-17
7890,-3,1,0,-12,-20,-30,1,21
7890,-9,-5,-4,7,5,-1,-16,-53
7913,-1,-4,-2,-12,14,13,11,14
7913,3,-1,1,4,-10,-7,0,6
7914,3,5,4,15,-2,-9,-12,-17
7914,-4,-3,-5,-13,-18,-8,-6,-50
7927,3,2,-3,-3,9,-3,-13,-23
7927,6,3,0,-2,12,9,17,24
7929,-5,-3,-3,-5,2,14,-5,-12
7929,8,4,3,11,2,-4,8,-34
7951,-4,-3,2,-5,0,7,-1,-9
7951,13,-1,-1,2,11,-10,4,43
7958,-10,-5,-5,-10,-32,-17,-11,-27
7958,6,1,-1,0,-5,-19,-22,31
7973,0,-3,-3,-7,-2,16,24,-30
7973,0,3,1,-1,7,-12,4,10
7974,8,2,3,-1,6,17,6,-3
7974,-6,-4,-1,5,11,7,0,-44
7988,-8,-1,-1,-4,-8,-10,-11,38
7988,-4,2,0,-6,-11,-5,-9,-52
7988,12,2,2,11,15,5,4,69
7988,6,-7,-5,-12,-7,14,13,24
8010,6,-1,0,11,-2,-15,1,34
8010,-16,-6,-6,-9,-7,-7,-14,-49
8011,-2,-7,-3,-6,0,0,-7,1
8011,-10,-2,0,13,6,3,3,16
8033,-6,-2,-2,-2,-4,-1,4,50
8033,7,4,2,0,4,4,-5,-22
8033,4,-1,-3,-6,-3,7,3,42
8033,-17,1,1,8,4,-7,-6,-45
8048,17,1,-3,-9,-11,-5,13,42
8048,-9,3,2,4,4,-5,-11,-62
8048,0,-1,-4,-6,-4,6,-5,-15
8048,1,3,3,2,1,-3,14,11
8070,5,2,0,3,2,-4,-6,52
8070,-9,-10,-5,0,0,4,-11,-55
8071,4,-2,-2,-5,-4,1,12,56
8071,-16,-6,-4,-4,-5,-7,-18,-43
8092,-5,-3,-1,1,1,1,7,2
8092,13,4,1,3,9,15,11,100
8093,-9,0,-3,-7,-4,-4,-19,-55
8093,5,-1,-2,0,-4,-16,6,45
8108,-15,-8,-5,-6,-9,-7,-25,-112
8108,1,0,1,-1,-3,5,31,65
8115,2,0,-1,-3,1,-4,-9,-62
8115,-3,-2,-3,-1,-12,-7,-20,-63
8131,-1,0,-2,-4,1,-3,3,-17
8131,-2,-4,-4,-1,2,2,-10,-7
8131,-7,5,5,7,10,8,-7,-82
8131,1,-1,-3,1,4,3,20,17
8153,-9,1,1,-3,-9,-10,-7,-82
8153,13,2,-1,0,6,4,24,52
8153,5,-1,-4,-5,-8,-3,-4,-19
8153,-2,0,0,-3,-6,-6,-5,13
8168,-2,-2,-3,-1,-3,-11,-8,20
8168,-8,-4,-1,-3,-1,-1,-11,-69
8168,3,1,-2,-1,4,5,5,33
8168,6,0,1,1,4,7,-1,-21
8190,-7,-2,-1,1,5,14,9,-19
8190,-2,-1,-1,-4,-9,-17,-5,-1
8191,3,-1,-2,-4,-7,1,-8,36
8191,1,2,2,3,6,3,11,15
8213,-1,0,-4,-9,-9,-6,-13,10
8213,-2,-3,-2,-1,-1,-2,-20,-11
8214,-1,-1,-2,-2,-2,2,11,-5
8214,0,-2,-2,-1,0,-1,7,22
8227,3,0,0,1,1,0,1,2
8227,-7,-2,-2,-3,-3,-1,-16,-103
8229,5,1,-1,-1,-1,1,6,47
8229,-3,0,4,3,-2,-4,-6,-45
8250,3,0,-3,-2,-7,-10,16,14
8250,-5,-3,-1,0,-3,2,-15,-30
8250,-7,-4,-2,-1,2,9,-29,-38
8250,1,-1,1,1,3,-8,22,86
8273,2,-3,1,0,-1,2,0,39
8273,-12,1,-4,-2,-5,0,-23,-53
8273,11,-16,0,-1,-3,-10,28,81
8273,12,21,4,3,1,8,-12,-82
8287,-4,-7,-2,0,0,4,23,11
8287,4,-6,-2,0,6,2,14,72
8303,-17,-17,-3,0,-9,-4,-12,15
8303,-10,-16,-8,-3,-6,-21,10,-82
8310,8,0,0,-2,4,5,8,-29
8310,7,5,1,0,-3,-2,-34,-17
8311,-5,41,-4,-5,-2,-3,-8,-104
8311,20,30,10,3,6,14,22,85
8333,-7,8,-2,3,1,5,7,-30
8333,-1,-14,2,5,4,-12,7,-79
8340,-22,-39,-8,-9,-11,-15,-12,-72
8340,-4,9,-6,-8,-6,-7,-9,-60
8347,2,-12,-4,-5,-3,-5,-26,-40
8347,5,27,6,4,5,14,12,23
8355,3,0,6,-1,-1,-1,-8,4
8355,-15,-37,-10,-4,-2,-9,-2,18
8370,-1,-1,-1,-2,0,-4,17,-66
8370,11,22,-2,1,1,5,1,79
8371,0,-52,-1,2,-1,-5,-29,-20
8371,-10,17,4,-1,-1,7,13,-24
8393,16,31,2,-1,-1,-8,2,65
8393,7,10,3,0,0,6,27,10
8394,-3,7,-10,-2,1,-1,-11,12
8394,-7,-26,0,-1,-1,2,-13,-45
8407,-8,-11,-7,-6,-8,-8,-7,41
8407,-9,-1,-2,-3,-2,0,4,-36
8415,12,19,3,2,3,13,28,20
8415,0,-11,-3,-2,0,-3,-5,-1
8431,-3,6,2,1,0,0,-12,-14
8431,-5,-14,-5,-6,-5,-7,-48,-23
8431,12,20,7,5,9,16,34,-40
8431,-3,-2,-5,-2,-3,-1,10,31
8461,-9,-13,-2,-3,-5,-7,4,-33
8461,1,3,-1,0,-2,-1,-13,-4
8462,0,6,0,1,-1,0,1,-33
8462,2,16,1,1,1,1,16,47
8467,-8,-13,0,-1,2,1,-11,2
8467,-1,-14,-4,0,-2,-1,2,13
8476,-8,10,-3,-3,-7,-8,-21,-49
8476,21,-4,1,0,-1,-3,-7,93
8490,-4,-9,0,2,-1,-2,-1,8
8490,1,-2,-1,-2,-1,1,-4,2
8491,-1,2,-1,-2,2,4,2,14
8491,-7,-13,-2,-2,-3,-6,-9,-24
8513,2,5,0,3,3,0,-7,8
8513,-4,-5,-2,-4,-1,7,-11,-43
8513,-4,2,0,-3,-4,-7,43,32
8513,3,-1,-2,-4,-5,-2,-13,-1
8527,-2,0,1,0,-1,-3,2,20
8527,-3,-10,-2,1,0,4,1,-16
8535,4,-2,-1,0,1,1,-15,-19
8535,-2,2,-1,1,0,0,0,-12
8551,-2,2,0,-1,-1,0,5,-1
8551,-2,-10,-1,0,-1,-4,-1,7
8551,4,2,0,-3,-2,5,-13,31
8551,-4,3,-2,-2,-3,-9,4,-13
8572,-8,-3,-4,-3,0,-4,-21,-52
8572,2,-14,-4,-3,-5,-1,22,-1
