0,-4,-67,-13,-2,-1,-1,-1,-2,0.0786133,0.688477,0.599609,1.9375,2.5625,2,0.862158,-0.0833276,-2.60755
0,-1,-10,-1,-2,-1,-1,-1,-1,0.0786133,0.688477,0.599609,1.9375,2.5625,2,0.862158,-0.0833276,-2.60755
1,1,13,4,0,1,-1,-1,0,0.0786133,0.688477,0.599609,1.9375,2.5625,2,0.862158,-0.0833276,-2.60755
1,-3,-10,-3,-5,-1,-1,-3,-1,0.0786133,0.688477,0.599609,1.9375,2.5625,2,0.862158,-0.0833276,-2.60755
1,0,11,5,1,0,0,-2,-2,0.0786133,0.688477,0.599609,1.9375,2.5625,2,0.862158,-0.0833276,-2.60755
1,-2,10,8,-1,-1,1,-1,-2,0.0786133,0.688477,0.599609,1.9375,2.5625,2,0.862158,-0.0833276,-2.60755
3,-4,-32,-29,-5,-4,0,-4,-3,0.0786133,0.688477,0.599609,1.9375,2.5625,2,0.862158,-0.0833276,-2.60755
3,1,6,-1,2,-1,0,1,-1,0.0786133,0.688477,0.599609,1.9375,2.5625,2,0.862158,-0.0833276,-2.60755
6,-2,11,-8,0,-1,0,0,2,0.0800781,0.661621,0.605957,0,2.0625,1.5625,0.861357,-0.083386,-2.6066
6,2,3,14,-1,0,0,0,1,0.0800781,0.661621,0.605957,0,2.0625,1.5625,0.861357,-0.083386,-2.6066
12,-1,-3,-7,0,-2,1,-1,0,0.0800781,0.661621,0.605957,0,2.0625,1.5625,0.861357,-0.083386,-2.6066
12,1,14,10,2,-1,-1,-2,2,0.0800781,0.661621,0.605957,0,2.0625,1.5625,0.861357,-0.083386,-2.6066
27,-1,-43,-19,-4,-1,0,0,-1,0.0839844,0.662109,0.597168,2.1875,3.25,0.5625,0.861391,-0.083086,-2.60549
27,-3,-4,-4,-1,0,-4,-1,-2,0.0839844,0.662109,0.597168,2.1875,3.25,0.5625,0.861391,-0.083086,-2.60549
35,-4,16,15,0,0,-5,-1,-3,0.0839844,0.662109,0.597168,2.1875,3.25,0.5625,0.861391,-0.083086,-2.60549
35,1,-7,-4,-1,-1,-1,0,-1,0.0839844,0.662109,0.597168,2.1875,3.25,0.5625,0.861391,-0.083086,-2.60549
43,0,28,7,-2,-1,-3,-2,-2,0.0751953,0.678223,0.605957,4.9375,4.6875,0.375,0.862588,-0.0821399,-2.6041
43,0,-6,-17,-4,0,-1,-2,1,0.0751953,0.678223,0.605957,4.9375,4.6875,0.375,0.862588,-0.0821399,-2.6041
67,4,-2,7,1,1,1,0,1,0.0751953,0.678223,0.605957,4.9375,4.6875,0.375,0.862588,-0.0821399,-2.6041
67,-5,-14,2,-2,0,-2,-1,-3,0.0751953,0.678223,0.605957,4.9375,4.6875,0.375,0.862588,-0.0821399,-2.6041
69,2,14,4,6,0,-1,0,-1,0.0712891,0.685547,0.583496,3.5,5,0.125,0.863702,-0.0809976,-2.6028
69,-2,13,-17,-4,0,-1,-1,-2,0.0712891,0.685547,0.583496,3.5,5,0.125,0.863702,-0.0809976,-2.6028
88,-1,0,-1,-1,-3,0,-1,-1,0.0712891,0.685547,0.583496,3.5,5,0.125,0.863702,-0.0809976,-2.6028
88,0,-19,-3,-6,-1,-2,-1,-3,0.0712891,0.685547,0.583496,3.5,5,0.125,0.863702,-0.0809976,-2.6028
89,1,20,15,0,-3,0,0,2,0.0615234,0.686523,0.591797,1.875,4.3125,0.875,0.864238,-0.0799753,-2.60148
89,-1,-3,-2,-1,-4,0,0,-2,0.0615234,0.686523,0.591797,1.875,4.3125,0.875,0.864238,-0.0799753,-2.60148
102,-4,-5,-2,2,-1,0,0,-1,0.0615234,0.686523,0.591797,1.875,4.3125,0.875,0.864238,-0.0799753,-2.60148
102,2,14,6,-1,-3,0,-3,0,0.0615234,0.686523,0.591797,1.875,4.3125,0.875,0.864238,-0.0799753,-2.60148
143,-1,-9,-2,-2,0,0,-1,0,0.0605469,0.66748,0.584961,-1.25,1.375,2.5,0.863081,-0.0796801,-2.59929
143,-1,-7,-2,0,0,-3,-2,-2,0.0605469,0.66748,0.584961,-1.25,1.375,2.5,0.863081,-0.0796801,-2.59929
148,-1,1,-2,-4,0,-2,-1,-1,0.0678711,0.656738,0.584473,1.6875,0.5,1.9375,0.863344,-0.0800656,-2.59866
148,-1,-4,3,1,-1,-3,-1,-1,0.0678711,0.656738,0.584473,1.6875,0.5,1.9375,0.863344,-0.0800656,-2.59866
149,0,3,6,1,0,-1,1,0,0.0678711,0.656738,0.584473,1.6875,0.5,1.9375,0.863344,-0.0800656,-2.59866
149,-2,27,12,-1,-2,0,-1,-1,0.0678711,0.656738,0.584473,1.6875,0.5,1.9375,0.863344,-0.0800656,-2.59866
149,-3,-50,-27,-2,-3,0,1,-2,0.0678711,0.656738,0.584473,1.6875,0.5,1.9375,0.863344,-0.0800656,-2.59866
149,-1,10,1,-4,-3,-1,-2,-1,0.0678711,0.656738,0.584473,1.6875,0.5,1.9375,0.863344,-0.0800656,-2.59866
163,-1,-12,-14,0,-3,-1,-2,-3,0.0678711,0.656738,0.584473,1.6875,0.5,1.9375,0.863344,-0.0800656,-2.59866
163,1,6,13,1,-1,-2,-1,-1,0.0678711,0.656738,0.584473,1.6875,0.5,1.9375,0.863344,-0.0800656,-2.59866
165,-2,11,-10,-5,0,-1,0,-2,0.0766602,0.674805,0.59375,4.75,0.0625,1.4375,0.864515,-0.0804535,-2.59825
165,0,17,13,4,-1,0,-2,-1,0.0766602,0.674805,0.59375,4.75,0.0625,1.4375,0.864515,-0.0804535,-2.59825
177,0,-27,-11,0,-1,0,-1,-1,0.0766602,0.674805,0.59375,4.75,0.0625,1.4375,0.864515,-0.0804535,-2.59825
177,0,4,-2,-2,-2,0,-1,0,0.0766602,0.674805,0.59375,4.75,0.0625,1.4375,0.864515,-0.0804535,-2.59825
184,1,6,-1,1,1,-2,0,-1,0.0732422,0.699707,0.585938,4,-0.5,1.625,0.866089,-0.0810439,-2.59801
184,-3,-17,0,-6,0,0,0,-1,0.0732422,0.699707,0.585938,4,-0.5,1.625,0.866089,-0.0810439,-2.59801
191,2,39,5,-1,0,-2,-1,0,0.0732422,0.699707,0.585938,4,-0.5,1.625,0.866089,-0.0810439,-2.59801
191,-2,-14,-10,1,1,-1,0,1,0.0732422,0.699707,0.585938,4,-0.5,1.625,0.866089,-0.0810439,-2.59801
215,0,-2,2,1,0,-2,0,-2,0.074707,0.689941,0.584473,0.1875,-1.75,1.5,0.866291,-0.0818382,-2.59823
215,0,19,7,0,-1,-1,0,0,0.074707,0.689941,0.584473,0.1875,-1.75,1.5,0.866291,-0.0818382,-2.59823
215,-2,4,0,-3,-3,-3,-1,-3,0.074707,0.689941,0.584473,0.1875,-1.75,1.5,0.866291,-0.0818382,-2.59823
215,0,4,8,-1,-2,0,-1,-1,0.074707,0.689941,0.584473,0.1875,-1.75,1.5,0.866291,-0.0818382,-2.59823
229,0,4,6,-1,-2,-1,-2,0,0.0820312,0.686035,0.586426,-0.9375,-2.25,0.9375,0.865837,-0.0828151,-2.59848
229,1,15,5,0,0,0,0,-2,0.0820312,0.686035,0.586426,-0.9375,-2.25,0.9375,0.865837,-0.0828151,-2.59848
237,0,-33,-16,-2,-1,0,0,-1,0.0820312,0.686035,0.586426,-0.9375,-2.25,0.9375,0.865837,-0.0828151,-2.59848
237,0,-9,-7,-2,0,1,1,1,0.0820312,0.686035,0.586426,-0.9375,-2.25,0.9375,0.865837,-0.0828151,-2.59848
252,0,12,21,1,-2,-1,-2,1,0.0786133,0.685547,0.583008,0.8125,-1.5625,0.0625,0.86613,-0.0832857,-2.59888
252,1,21,-7,0,-1,-4,-2,1,0.0786133,0.685547,0.583008,0.8125,-1.5625,0.0625,0.86613,-0.0832857,-2.59888
252,-5,-46,-16,-6,-2,-4,-1,-1,0.0786133,0.685547,0.583008,0.8125,-1.5625,0.0625,0.86613,-0.0832857,-2.59888
252,-1,-6,-8,-1,-1,-1,-1,0,0.0786133,0.685547,0.583008,0.8125,-1.5625,0.0625,0.86613,-0.0832857,-2.59888
274,0,6,8,0,-2,0,-2,-1,0.0717773,0.687988,0.589844,1.8125,-1.5,-0.625,0.86677,-0.0833577,-2.59943
274,0,-6,-2,-2,-2,-1,-2,0,0.0717773,0.687988,0.589844,1.8125,-1.5,-0.625,0.86677,-0.0833577,-2.59943
275,0,29,24,6,-1,0,-1,0,0.0717773,0.687988,0.589844,1.8125,-1.5,-0.625,0.86677,-0.0833577,-2.59943
275,-4,-73,-52,-5,-1,-2,-1,-3,0.0717773,0.687988,0.589844,1.8125,-1.5,-0.625,0.86677,-0.0833577,-2.59943
290,1,11,6,1,-1,1,-1,-1,0.0810547,0.696777,0.592285,2.1875,-0.3125,-1.875,0.867475,-0.0830685,-2.59985
290,-1,-16,-5,-1,-1,1,0,-2,0.0810547,0.696777,0.592285,2.1875,-0.3125,-1.875,0.867475,-0.0830685,-2.59985
297,-3,5,1,-4,-3,0,-4,-1,0.0810547,0.696777,0.592285,2.1875,-0.3125,-1.875,0.867475,-0.0830685,-2.59985
297,1,13,12,0,-2,-1,-1,-1,0.0810547,0.696777,0.592285,2.1875,-0.3125,-1.875,0.867475,-0.0830685,-2.59985
320,1,4,4,-1,0,-2,0,0,0.0859375,0.708496,0.587402,1.875,1.4375,-3.6875,0.86841,-0.0820295,-2.60028
320,-3,-6,-24,-4,-1,-3,-1,-3,0.0859375,0.708496,0.587402,1.875,1.4375,-3.6875,0.86841,-0.0820295,-2.60028
321,0,4,6,4,3,-1,1,1,0.0859375,0.708496,0.587402,1.875,1.4375,-3.6875,0.86841,-0.0820295,-2.60028
321,-5,-12,-9,-6,-2,-4,-1,-2,0.0859375,0.708496,0.587402,1.875,1.4375,-3.6875,0.86841,-0.0820295,-2.60028
335,0,-2,3,0,-2,-1,-1,-1,0.0693359,0.715332,0.575684,-0.75,3.0625,-3.8125,0.868775,-0.0801334,-2.60043
335,-1,-5,5,1,1,0,-1,-1,0.0693359,0.715332,0.575684,-0.75,3.0625,-3.8125,0.868775,-0.0801334,-2.60043
335,1,20,2,1,-4,1,-3,-1,0.0693359,0.715332,0.575684,-0.75,3.0625,-3.8125,0.868775,-0.0801334,-2.60043
335,-1,7,9,1,-1,0,-1,-1,0.0693359,0.715332,0.575684,-0.75,3.0625,-3.8125,0.868775,-0.0801334,-2.60043
349,-3,4,-10,-6,-2,-2,-3,-1,0.0541992,0.69873,0.594727,-3.75,3.3125,-3.25,0.867319,-0.078153,-2.60015
349,-2,-34,0,0,0,-2,-2,-1,0.0541992,0.69873,0.594727,-3.75,3.3125,-3.25,0.867319,-0.078153,-2.60015
357,1,-1,-4,-2,2,0,0,0,0.0541992,0.69873,0.594727,-3.75,3.3125,-3.25,0.867319,-0.078153,-2.60015
357,-1,23,18,-1,-1,1,0,-1,0.0541992,0.69873,0.594727,-3.75,3.3125,-3.25,0.867319,-0.078153,-2.60015
374,-5,-60,-39,-3,-3,1,-3,-2,0.0673828,0.684082,0.598145,-5.0625,2.5625,-4.6875,0.865394,-0.0762631,-2.60062
374,-1,8,-5,-2,-2,1,-1,-1,0.0673828,0.684082,0.598145,-5.0625,2.5625,-4.6875,0.865394,-0.0762631,-2.60062
375,0,14,14,-5,0,0,0,0,0.0673828,0.684082,0.598145,-5.0625,2.5625,-4.6875,0.865394,-0.0762631,-2.60062
375,-1,-33,-5,-1,1,-5,0,-1,0.0673828,0.684082,0.598145,-5.0625,2.5625,-4.6875,0.865394,-0.0762631,-2.60062
395,0,45,20,-1,0,-1,0,-1,0.0751953,0.66748,0.603027,-4.8125,2.625,-5.125,0.863183,-0.0744586,-2.60103
395,-1,9,0,0,0,-2,-1,-1,0.0751953,0.66748,0.603027,-4.8125,2.625,-5.125,0.863183,-0.0744586,-2.60103
395,-4,-47,-9,2,-2,-1,-2,-1,0.0751953,0.66748,0.603027,-4.8125,2.625,-5.125,0.863183,-0.0744586,-2.60103
395,4,42,6,0,-1,2,-1,1,0.0751953,0.66748,0.603027,-4.8125,2.625,-5.125,0.863183,-0.0744586,-2.60103
418,-1,-24,-2,-1,-2,-1,1,0,0.0615234,0.645996,0.60498,-2.5625,2.9375,-4.1875,0.861252,-0.0726346,-2.60102
418,-4,-40,-36,-5,-1,-1,0,0,0.0615234,0.645996,0.60498,-2.5625,2.9375,-4.1875,0.861252,-0.0726346,-2.60102
419,-1,13,20,2,-2,-1,-3,-2,0.0615234,0.645996,0.60498,-2.5625,2.9375,-4.1875,0.861252,-0.0726346,-2.60102
419,2,42,0,1,0,-1,-2,-1,0.0615234,0.645996,0.60498,-2.5625,2.9375,-4.1875,0.861252,-0.0726346,-2.60102
448,-1,-28,0,0,0,-1,0,0,0.0585938,0.63916,0.611816,0,2.125,-3.375,0.860242,-0.0711573,-2.6012
448,2,28,12,1,-2,-1,0,-1,0.0585938,0.63916,0.611816,0,2.125,-3.375,0.860242,-0.0711573,-2.6012
449,1,5,-12,-5,-2,-1,-1,-1,0.0585938,0.63916,0.611816,0,2.125,-3.375,0.860242,-0.0711573,-2.6012
449,-3,0,5,1,-1,-2,-2,-1,0.0585938,0.63916,0.611816,0,2.125,-3.375,0.860242,-0.0711573,-2.6012
454,0,39,11,2,1,1,-2,1,0.065918,0.632812,0.602051,1.1875,1.125,-3,0.859609,-0.0702521,-2.60155
454,-2,-11,3,-1,0,0,-1,0,0.065918,0.632812,0.602051,1.1875,1.125,-3,0.859609,-0.0702521,-2.60155
462,-1,9,-8,-2,-1,-2,-2,-2,0.065918,0.632812,0.602051,1.1875,1.125,-3,0.859609,-0.0702521,-2.60155
462,-3,-19,-5,-3,-4,-2,-3,-2,0.065918,0.632812,0.602051,1.1875,1.125,-3,0.859609,-0.0702521,-2.60155
477,1,19,9,7,2,0,-1,0,0.0644531,0.650391,0.595703,4.125,1.5,-2.0625,0.86039,-0.0693935,-2.60149
477,1,-10,10,2,-2,-1,0,1,0.0644531,0.650391,0.595703,4.125,1.5,-2.0625,0.86039,-0.0693935,-2.60149
478,2,-1,-15,-4,-1,0,0,1,0.0644531,0.650391,0.595703,4.125,1.5,-2.0625,0.86039,-0.0693935,-2.60149
478,3,21,9,-2,-2,1,-3,-2,0.0644531,0.650391,0.595703,4.125,1.5,-2.0625,0.86039,-0.0693935,-2.60149
508,-7,-88,-25,-2,0,1,-1,-1,0.0551758,0.673828,0.597656,4.1875,1.875,-0.0625,0.861423,-0.0688185,-2.60098
508,1,15,-22,-4,-3,-2,-2,-2,0.0551758,0.673828,0.597656,4.1875,1.875,-0.0625,0.861423,-0.0688185,-2.60098
508,-2,19,19,0,0,0,0,-2,0.0551758,0.673828,0.597656,4.1875,1.875,-0.0625,0.861423,-0.0688185,-2.60098
508,-2,-25,-18,0,-1,-5,0,-2,0.0551758,0.673828,0.597656,4.1875,1.875,-0.0625,0.861423,-0.0688185,-2.60098
515,2,29,15,0,-3,-2,-1,0,0.0488281,0.675293,0.593262,2.5625,2,3,0.861965,-0.0688716,-2.59974
515,1,-1,15,2,-1,-4,0,0,0.0488281,0.675293,0.593262,2.5625,2,3,0.861965,-0.0688716,-2.59974
517,-3,-8,-25,-3,0,0,0,-1,0.0488281,0.675293,0.593262,2.5625,2,3,0.861965,-0.0688716,-2.59974
517,2,29,15,-5,0,0,1,1,0.0488281,0.675293,0.593262,2.5625,2,3,0.861965,-0.0688716,-2.59974
538,-2,-50,-25,2,1,-2,-1,-1,0.0610352,0.654785,0.581543,0.375,1.5625,4.3125,0.861625,-0.0695983,-2.59826
538,-3,22,10,2,1,-1,0,-1,0.0610352,0.654785,0.581543,0.375,1.5625,4.3125,0.861625,-0.0695983,-2.59826
539,-2,19,6,0,-2,-2,-3,-1,0.0610352,0.654785,0.581543,0.375,1.5625,4.3125,0.861625,-0.0695983,-2.59826
539,-5,-14,1,-4,-1,2,-3,-3,0.0610352,0.654785,0.581543,0.375,1.5625,4.3125,0.861625,-0.0695983,-2.59826
552,0,24,-14,-5,-2,-1,1,-2,0.0493164,0.650879,0.599121,3.1875,1.625,6.5625,0.86194,-0.0707137,-2.59639
552,1,2,25,5,-1,4,0,0,0.0493164,0.650879,0.599121,3.1875,1.625,6.5625,0.86194,-0.0707137,-2.59639
553,-3,-35,-28,-3,-2,-1,-2,0,0.0493164,0.650879,0.599121,3.1875,1.625,6.5625,0.86194,-0.0707137,-2.59639
553,-3,6,-3,1,0,3,-1,0,0.0493164,0.650879,0.599121,3.1875,1.625,6.5625,0.86194,-0.0707137,-2.59639
575,2,13,8,-2,1,2,-1,-2,0.0493164,0.663086,0.604004,5.5625,2.5625,7.75,0.862989,-0.0718141,-2.59378
575,0,-17,-19,-3,-2,-1,-3,-3,0.0493164,0.663086,0.604004,5.5625,2.5625,7.75,0.862989,-0.0718141,-2.59378
575,0,14,17,2,0,-2,-1,-1,0.0493164,0.663086,0.604004,5.5625,2.5625,7.75,0.862989,-0.0718141,-2.59378
575,-1,-20,-5,0,0,-1,-1,0,0.0493164,0.663086,0.604004,5.5625,2.5625,7.75,0.862989,-0.0718141,-2.59378
605,-3,25,-19,-12,-3,-5,-3,-2,0.0561523,0.666016,0.586426,5.6875,1.6875,9.1875,0.864459,-0.0735819,-2.59126
605,-3,-23,-3,6,5,-2,0,0,0.0561523,0.666016,0.586426,5.6875,1.6875,9.1875,0.864459,-0.0735819,-2.59126
627,0,12,12,0,-2,-1,0,-1,0.0561523,0.666016,0.586426,5.6875,1.6875,9.1875,0.864459,-0.0735819,-2.59126
627,-3,8,-2,-2,0,-1,1,-1,0.0561523,0.666016,0.586426,5.6875,1.6875,9.1875,0.864459,-0.0735819,-2.59126
637,3,29,24,3,-1,1,-1,1,0.0673828,0.686035,0.593262,3.4375,0.8125,10.125,0.865294,-0.0760467,-2.58859
637,-1,-2,-20,-7,-4,-1,-1,-2,0.0673828,0.686035,0.593262,3.4375,0.8125,10.125,0.865294,-0.0760467,-2.58859
638,1,27,22,6,-2,-1,-1,1,0.0673828,0.686035,0.593262,3.4375,0.8125,10.125,0.865294,-0.0760467,-2.58859
638,-2,-87,-43,-1,0,-2,-3,-1,0.0673828,0.686035,0.593262,3.4375,0.8125,10.125,0.865294,-0.0760467,-2.58859
642,-6,12,12,0,0,-3,-3,-3,0.0810547,0.697754,0.584473,1.125,0.9375,10.8125,0.865625,-0.0789234,-2.58596
642,-1,-8,-3,-5,-2,0,0,-2,0.0810547,0.697754,0.584473,1.125,0.9375,10.8125,0.865625,-0.0789234,-2.58596
650,-1,2,-7,-1,-1,2,-2,-1,0.0810547,0.697754,0.584473,1.125,0.9375,10.8125,0.865625,-0.0789234,-2.58596
650,0,14,11,1,-1,-1,-1,-2,0.0810547,0.697754,0.584473,1.125,0.9375,10.8125,0.865625,-0.0789234,-2.58596
658,1,12,-5,1,-1,0,-1,1,0.0888672,0.690918,0.592285,2.1875,2.3125,10.375,0.866182,-0.081576,-2.58307
658,-6,-37,-6,-1,1,0,-2,-1,0.0888672,0.690918,0.592285,2.1875,2.3125,10.375,0.866182,-0.081576,-2.58307
658,-1,0,-16,-3,1,2,1,0,0.0888672,0.690918,0.592285,2.1875,2.3125,10.375,0.866182,-0.081576,-2.58307
658,1,-22,-2,-3,-2,-1,-2,0,0.0888672,0.690918,0.592285,2.1875,2.3125,10.375,0.866182,-0.081576,-2.58307
674,-1,-7,10,-1,-1,-1,-1,-3,0.0854492,0.688477,0.586914,4.4375,3.6875,9,0.867354,-0.0834084,-2.57991
674,1,25,10,-2,-1,-1,-1,-2,0.0854492,0.688477,0.586914,4.4375,3.6875,9,0.867354,-0.0834084,-2.57991
675,-3,-8,-22,-4,0,-2,0,-3,0.0854492,0.688477,0.586914,4.4375,3.6875,9,0.867354,-0.0834084,-2.57991
675,0,14,9,0,-1,0,1,0,0.0854492,0.688477,0.586914,4.4375,3.6875,9,0.867354,-0.0834084,-2.57991
695,0,-19,-5,0,-3,-2,1,0,0.0756836,0.706543,0.597168,4.4375,4.1875,7.5,0.868632,-0.0843024,-2.57707
695,2,24,17,1,-1,0,0,2,0.0756836,0.706543,0.597168,4.4375,4.1875,7.5,0.868632,-0.0843024,-2.57707
696,-9,-85,-22,-1,1,-2,-3,-5,0.0756836,0.706543,0.597168,4.4375,4.1875,7.5,0.868632,-0.0843024,-2.57707
696,-1,27,10,-3,0,-1,-1,-2,0.0756836,0.706543,0.597168,4.4375,4.1875,7.5,0.868632,-0.0843024,-2.57707
718,1,17,4,2,0,1,1,0,0.0766602,0.714844,0.601074,1.6875,4.8125,6.5,0.86916,-0.084911,-2.57438
718,-6,-31,-20,-3,-4,-1,-1,-4,0.0766602,0.714844,0.601074,1.6875,4.8125,6.5,0.86916,-0.084911,-2.57438
718,3,14,20,2,2,-1,1,0,0.0766602,0.714844,0.601074,1.6875,4.8125,6.5,0.86916,-0.084911,-2.57438
718,-1,-9,2,-1,-2,1,-2,-2,0.0766602,0.714844,0.601074,1.6875,4.8125,6.5,0.86916,-0.084911,-2.57438
732,-2,-1,-8,-5,-1,-1,0,-1,0.078125,0.699219,0.598633,-3.1875,5.625,5.6875,0.867663,-0.0852145,-2.57161
732,2,8,12,5,0,-1,-1,0,0.078125,0.699219,0.598633,-3.1875,5.625,5.6875,0.867663,-0.0852145,-2.57161
733,-1,30,-8,-2,-2,1,0,1,0.078125,0.699219,0.598633,-3.1875,5.625,5.6875,0.867663,-0.0852145,-2.57161
733,0,-25,-5,-2,0,0,2,0,0.078125,0.699219,0.598633,-3.1875,5.625,5.6875,0.867663,-0.0852145,-2.57161
763,0,3,-6,-2,-3,-4,-2,0,0.0727539,0.679688,0.576172,-5.9375,5.625,5.1875,0.865354,-0.0852426,-2.56882
763,-4,-27,-11,-2,0,-1,-1,-2,0.0727539,0.679688,0.576172,-5.9375,5.625,5.1875,0.865354,-0.0852426,-2.56882
764,2,-4,3,2,-1,-2,-1,-1,0.0727539,0.679688,0.576172,-5.9375,5.625,5.1875,0.865354,-0.0852426,-2.56882
764,-1,26,10,0,0,-2,0,-2,0.0727539,0.679688,0.576172,-5.9375,5.625,5.1875,0.865354,-0.0852426,-2.56882
794,-5,-32,-17,-1,-3,0,0,-1,0.0844727,0.698242,0.584961,-3.625,6.375,3.875,0.864131,-0.0849451,-2.56628
794,-1,26,15,0,-3,-1,-4,-1,0.0844727,0.698242,0.584961,-3.625,6.375,3.875,0.864131,-0.0849451,-2.56628
795,2,-7,0,-3,-1,-1,-1,0,0.0844727,0.698242,0.584961,-3.625,6.375,3.875,0.864131,-0.0849451,-2.56628
795,-2,23,16,3,-3,-2,-1,-2,0.0844727,0.698242,0.584961,-3.625,6.375,3.875,0.864131,-0.0849451,-2.56628
796,0,-5,-15,-3,1,1,-1,0,0.0908203,0.691895,0.601562,0.4375,7.5625,2.8125,0.863867,-0.0842975,-2.56363
796,0,2,-13,-6,-2,0,-2,-1,0.0908203,0.691895,0.601562,0.4375,7.5625,2.8125,0.863867,-0.0842975,-2.56363
799,1,31,29,4,0,0,-1,-1,0.0908203,0.691895,0.601562,0.4375,7.5625,2.8125,0.863867,-0.0842975,-2.56363
799,-4,-26,-35,-6,-2,-2,-4,-2,0.0908203,0.691895,0.601562,0.4375,7.5625,2.8125,0.863867,-0.0842975,-2.56363
815,-3,-4,20,0,0,-1,-2,-3,0.0795898,0.690918,0.579102,-0.6875,8.625,1.125,0.863699,-0.0828187,-2.56105
815,-4,-1,1,-4,-2,-3,-1,-1,0.0795898,0.690918,0.579102,-0.6875,8.625,1.125,0.863699,-0.0828187,-2.56105
816,-1,-5,-9,-2,-2,-2,-1,1,0.0795898,0.690918,0.579102,-0.6875,8.625,1.125,0.863699,-0.0828187,-2.56105
816,3,24,10,4,0,-1,2,0,0.0795898,0.690918,0.579102,-0.6875,8.625,1.125,0.863699,-0.0828187,-2.56105
837,-1,-19,8,-4,-3,-2,-2,-3,0.0605469,0.682129,0.58252,-2.75,9.3125,0.9375,0.862437,-0.080635,-2.55827
837,0,-7,3,-1,-3,-1,-1,-3,0.0605469,0.682129,0.58252,-2.75,9.3125,0.9375,0.862437,-0.080635,-2.55827
838,-4,-22,-45,-6,-3,0,-1,-2,0.0605469,0.682129,0.58252,-2.75,9.3125,0.9375,0.862437,-0.080635,-2.55827
838,0,4,7,1,1,0,-2,0,0.0605469,0.682129,0.58252,-2.75,9.3125,0.9375,0.862437,-0.080635,-2.55827
853,1,0,-10,1,-2,1,0,0,0.0302734,0.673828,0.601074,-2.9375,8.125,2.8125,0.860784,-0.0784815,-2.5555
853,2,25,12,3,2,0,1,1,0.0302734,0.673828,0.601074,-2.9375,8.125,2.8125,0.860784,-0.0784815,-2.5555
853,-4,-22,49,0,-1,0,1,-2,0.0302734,0.673828,0.601074,-2.9375,8.125,2.8125,0.860784,-0.0784815,-2.5555
853,1,-17,-38,-4,-3,-3,-2,0,0.0302734,0.673828,0.601074,-2.9375,8.125,2.8125,0.860784,-0.0784815,-2.5555
875,1,4,-15,-2,0,-1,0,1,0.0371094,0.666992,0.603027,-4.0625,5.0625,2.1875,0.858803,-0.0772115,-2.55358
875,1,18,5,1,-2,-4,0,0,0.0371094,0.666992,0.603027,-4.0625,5.0625,2.1875,0.858803,-0.0772115,-2.55358
875,2,11,-3,-2,1,0,2,1,0.0371094,0.666992,0.603027,-4.0625,5.0625,2.1875,0.858803,-0.0772115,-2.55358
875,-2,-20,6,0,2,1,0,-1,0.0371094,0.666992,0.603027,-4.0625,5.0625,2.1875,0.858803,-0.0772115,-2.55358
897,2,13,21,4,-1,-2,1,1,0.0625,0.657227,0.602539,-3.6875,3.875,2.5,0.85671,-0.0767636,-2.55193
897,-2,-15,-13,-1,-1,-1,1,-2,0.0625,0.657227,0.602539,-3.6875,3.875,2.5,0.85671,-0.0767636,-2.55193
897,0,1,2,-3,-3,-3,-2,-1,0.0625,0.657227,0.602539,-3.6875,3.875,2.5,0.85671,-0.0767636,-2.55193
897,1,17,11,1,0,1,0,-1,0.0625,0.657227,0.602539,-3.6875,3.875,2.5,0.85671,-0.0767636,-2.55193
914,2,29,6,1,0,-1,0,1,0.0888672,0.651855,0.60791,-2.5625,3.75,2.75,0.854921,-0.0771109,-2.55022
914,-5,-60,2,-1,0,0,0,-3,0.0888672,0.651855,0.60791,-2.5625,3.75,2.75,0.854921,-0.0771109,-2.55022
915,-2,12,-17,-6,-2,-1,-1,-2,0.0888672,0.651855,0.60791,-2.5625,3.75,2.75,0.854921,-0.0771109,-2.55022
915,-1,-6,3,-4,0,1,0,0,0.0888672,0.651855,0.60791,-2.5625,3.75,2.75,0.854921,-0.0771109,-2.55022
935,-4,-19,-30,0,-2,0,-2,-3,0.0961914,0.659668,0.608398,-2.3125,4.25,1.8125,0.853493,-0.0772627,-2.54861
935,2,25,9,1,-2,-4,-3,-1,0.0961914,0.659668,0.608398,-2.3125,4.25,1.8125,0.853493,-0.0772627,-2.54861
936,1,4,20,8,3,3,-1,-2,0.0961914,0.659668,0.608398,-2.3125,4.25,1.8125,0.853493,-0.0772627,-2.54861
936,-2,16,3,-10,-5,-2,0,-1,0.0961914,0.659668,0.608398,-2.3125,4.25,1.8125,0.853493,-0.0772627,-2.54861
974,-3,-7,-6,8,5,1,0,-1,0.0908203,0.679688,0.616211,-0.25,6,3.8125,0.85275,-0.0773614,-2.5461
974,-2,7,18,-5,-3,-3,-4,-3,0.0908203,0.679688,0.616211,-0.25,6,3.8125,0.85275,-0.0773614,-2.5461
975,0,-22,-28,-2,-2,-5,-1,-1,0.0908203,0.679688,0.616211,-0.25,6,3.8125,0.85275,-0.0773614,-2.5461
975,2,40,27,5,-2,-5,-2,-1,0.0908203,0.679688,0.616211,-0.25,6,3.8125,0.85275,-0.0773614,-2.5461
977,-1,-9,-16,-9,-4,-1,-2,1,0.100098,0.67627,0.607422,-1.75,6.75,3.1875,0.851682,-0.0774949,-2.54354
977,0,2,-12,-2,1,2,-1,0,0.100098,0.67627,0.607422,-1.75,6.75,3.1875,0.851682,-0.0774949,-2.54354
979,1,6,-16,-3,0,1,-2,0,0.100098,0.67627,0.607422,-1.75,6.75,3.1875,0.851682,-0.0774949,-2.54354
979,0,11,8,-5,-3,0,-1,-3,0.100098,0.67627,0.607422,-1.75,6.75,3.1875,0.851682,-0.0774949,-2.54354
995,-1,-31,10,1,0,-1,-2,-2,0.12207,0.653809,0.617188,2.375,10.6875,0.9375,0.851455,-0.0764818,-2.54045
995,0,4,-6,1,2,1,0,0,0.12207,0.653809,0.617188,2.375,10.6875,0.9375,0.851455,-0.0764818,-2.54045
996,-3,-55,-16,0,-3,-1,1,0,0.12207,0.653809,0.617188,2.375,10.6875,0.9375,0.851455,-0.0764818,-2.54045
996,2,1,14,4,-2,-2,-1,-1,0.12207,0.653809,0.617188,2.375,10.6875,0.9375,0.851455,-0.0764818,-2.54045
1017,3,26,3,-7,-3,-2,-1,-1,0.0991211,0.686035,0.614746,2.75,15,-0.25,0.851805,-0.0737978,-2.53652
1017,-1,-6,-28,-1,1,3,-1,0,0.0991211,0.686035,0.614746,2.75,15,-0.25,0.851805,-0.0737978,-2.53652
1017,2,27,31,5,-1,-2,0,-1,0.0991211,0.686035,0.614746,2.75,15,-0.25,0.851805,-0.0737978,-2.53652
1017,-3,-21,-33,-3,1,-1,0,-1,0.0991211,0.686035,0.614746,2.75,15,-0.25,0.851805,-0.0737978,-2.53652
1032,2,21,14,-1,-4,-2,0,-2,0.0654297,0.712891,0.612793,-1.6875,18,1.4375,0.851056,-0.0700024,-2.53148
1032,-1,-37,-14,-1,-1,-1,-1,0,0.0654297,0.712891,0.612793,-1.6875,18,1.4375,0.851056,-0.0700024,-2.53148
1047,-2,-1,10,-5,-2,-2,-3,-1,0.0654297,0.712891,0.612793,-1.6875,18,1.4375,0.851056,-0.0700024,-2.53148
1047,0,3,0,2,0,0,0,2,0.0654297,0.712891,0.612793,-1.6875,18,1.4375,0.851056,-0.0700024,-2.53148
1055,-1,-9,-7,2,1,0,-1,1,0.0571289,0.697266,0.607422,-10.625,18.125,2.3125,0.84726,-0.0662958,-2.52619
1055,0,19,6,-4,-3,-1,0,-1,0.0571289,0.697266,0.607422,-10.625,18.125,2.3125,0.84726,-0.0662958,-2.52619
1055,-4,-5,-8,1,-2,-2,-2,-1,0.0571289,0.697266,0.607422,-10.625,18.125,2.3125,0.84726,-0.0662958,-2.52619
1055,3,19,8,-2,-1,-1,-2,0,0.0571289,0.697266,0.607422,-10.625,18.125,2.3125,0.84726,-0.0662958,-2.52619
1077,-3,-37,-6,-2,-1,-1,0,-3,0.0493164,0.665527,0.620117,-16.125,18.75,3.0625,0.840736,-0.0625357,-2.52051
1077,0,4,2,1,0,-2,0,-2,0.0493164,0.665527,0.620117,-16.125,18.75,3.0625,0.840736,-0.0625357,-2.52051
1078,2,17,9,-4,0,-2,-2,0,0.0493164,0.665527,0.620117,-16.125,18.75,3.0625,0.840736,-0.0625357,-2.52051
1078,1,3,26,3,-2,0,0,-1,0.0493164,0.665527,0.620117,-16.125,18.75,3.0625,0.840736,-0.0625357,-2.52051
1091,-1,-4,-39,1,1,-1,0,1,0.0351562,0.628906,0.638672,-14.5625,19.4375,3.9375,0.83405,-0.0585656,-2.51445
1091,3,-6,7,1,-1,0,2,2,0.0351562,0.628906,0.638672,-14.5625,19.4375,3.9375,0.83405,-0.0585656,-2.51445
1100,-3,1,-2,-4,-4,-3,-2,-4,0.0351562,0.628906,0.638672,-14.5625,19.4375,3.9375,0.83405,-0.0585656,-2.51445
1100,0,2,7,6,4,0,1,-1,0.0351562,0.628906,0.638672,-14.5625,19.4375,3.9375,0.83405,-0.0585656,-2.51445
1129,1,24,20,-2,1,-3,0,-1,0.034668,0.608398,0.640137,-4.8125,19.625,1.4375,0.830573,-0.0541288,-2.50894
1129,-1,-40,3,-2,-4,-2,-1,1,0.034668,0.608398,0.640137,-4.8125,19.625,1.4375,0.830573,-0.0541288,-2.50894
1138,-1,24,-10,-2,-2,-1,-1,0,0.034668,0.608398,0.640137,-4.8125,19.625,1.4375,0.830573,-0.0541288,-2.50894
1138,-3,-19,-23,2,0,-1,-2,0,0.034668,0.608398,0.640137,-4.8125,19.625,1.4375,0.830573,-0.0541288,-2.50894
1140,-1,6,12,-4,-3,-1,0,-1,0.0522461,0.637207,0.614746,0.25,18.5,-1.25,0.829879,-0.0496247,-2.50442
1140,0,2,3,-3,1,1,1,-1,0.0522461,0.637207,0.614746,0.25,18.5,-1.25,0.829879,-0.0496247,-2.50442
1140,-1,-4,7,2,-1,1,-1,0,0.0522461,0.637207,0.614746,0.25,18.5,-1.25,0.829879,-0.0496247,-2.50442
1140,-4,-27,-24,-5,-2,-2,-3,-1,0.0522461,0.637207,0.614746,0.25,18.5,-1.25,0.829879,-0.0496247,-2.50442
1161,1,17,15,1,1,-1,0,0,0.0488281,0.673828,0.596191,-3.8125,15.9375,-0.0625,0.828716,-0.0460207,-2.50031
1161,-4,26,-3,-1,0,0,-1,-1,0.0488281,0.673828,0.596191,-3.8125,15.9375,-0.0625,0.828716,-0.0460207,-2.50031
1162,0,-16,2,-2,-2,-3,1,0,0.0488281,0.673828,0.596191,-3.8125,15.9375,-0.0625,0.828716,-0.0460207,-2.50031
1162,-1,13,-7,-3,-4,-2,0,0,0.0488281,0.673828,0.596191,-3.8125,15.9375,-0.0625,0.828716,-0.0460207,-2.50031
1183,0,-5,-11,-1,0,-1,-1,-2,0.0322266,0.671387,0.611328,-7.875,13.5625,1.75,0.825947,-0.043028,-2.49642
1183,-2,23,-7,2,0,-2,-3,-1,0.0322266,0.671387,0.611328,-7.875,13.5625,1.75,0.825947,-0.043028,-2.49642
1184,3,19,11,4,2,-1,1,-1,0.0322266,0.671387,0.611328,-7.875,13.5625,1.75,0.825947,-0.043028,-2.49642
1184,-1,-23,-10,-4,-1,-4,-2,-1,0.0322266,0.671387,0.611328,-7.875,13.5625,1.75,0.825947,-0.043028,-2.49642
1205,2,41,1,2,-2,-3,-2,-1,0.0209961,0.634766,0.615723,-7.5,11.4375,1.125,0.822725,-0.0402659,-2.49317
1205,-1,-35,4,1,2,-2,-2,-1,0.0209961,0.634766,0.615723,-7.5,11.4375,1.125,0.822725,-0.0402659,-2.49317
1205,-2,-11,-14,-2,0,2,-1,-1,0.0209961,0.634766,0.615723,-7.5,11.4375,1.125,0.822725,-0.0402659,-2.49317
1205,1,-1,0,-5,-4,0,0,-1,0.0209961,0.634766,0.615723,-7.5,11.4375,1.125,0.822725,-0.0402659,-2.49317
1228,0,2,35,7,1,0,-1,0,0.03125,0.629395,0.60791,-4.8125,10.0625,-2.6875,0.82063,-0.0372004,-2.49121
1228,1,12,-38,-5,-2,-1,1,-1,0.03125,0.629395,0.60791,-4.8125,10.0625,-2.6875,0.82063,-0.0372004,-2.49121
1228,-1,-4,7,3,-1,0,-1,-2,0.03125,0.629395,0.60791,-4.8125,10.0625,-2.6875,0.82063,-0.0372004,-2.49121
1228,0,8,-9,0,-1,0,-1,1,0.03125,0.629395,0.60791,-4.8125,10.0625,-2.6875,0.82063,-0.0372004,-2.49121
1251,-6,-25,1,-6,-5,-1,-2,-1,0.027832,0.655762,0.600586,-1.9375,8.25,-2.9375,0.820029,-0.0344062,-2.48974
1251,-1,-6,-8,3,-2,0,-3,-1,0.027832,0.655762,0.600586,-1.9375,8.25,-2.9375,0.820029,-0.0344062,-2.48974
1251,0,-4,-7,-3,0,-2,0,-1,0.027832,0.655762,0.600586,-1.9375,8.25,-2.9375,0.820029,-0.0344062,-2.48974
1251,-2,12,-18,-6,-5,-2,-1,-2,0.027832,0.655762,0.600586,-1.9375,8.25,-2.9375,0.820029,-0.0344062,-2.48974
1256,-1,7,24,3,2,0,1,-2,0.00830078,0.666992,0.609375,-2,5.625,-1.625,0.819651,-0.0321902,-2.48877
1256,3,26,22,3,1,0,-1,-1,0.00830078,0.666992,0.609375,-2,5.625,-1.625,0.819651,-0.0321902,-2.48877
1272,-5,-33,-20,-8,-5,-2,-2,-2,-0.0131836,0.636719,0.600586,-2.5,2.75,-2.4375,0.818573,-0.029929,-2.48858
1272,2,1,3,3,1,-1,-3,1,-0.0131836,0.636719,0.600586,-2.5,2.75,-2.4375,0.818573,-0.029929,-2.48858
1280,-1,-2,-10,-5,-4,1,-1,-1,-0.0131836,0.636719,0.600586,-2.5,2.75,-2.4375,0.818573,-0.029929,-2.48858
1280,-2,-12,-2,-3,-3,0,-2,-3,-0.0131836,0.636719,0.600586,-2.5,2.75,-2.4375,0.818573,-0.029929,-2.48858
1281,2,23,18,3,0,1,-1,0,-0.00878906,0.643555,0.597656,-2.6875,0.0625,-4,0.817837,-0.0280366,-2.48946
1281,-1,-16,-7,2,1,1,0,1,-0.00878906,0.643555,0.597656,-2.6875,0.0625,-4,0.817837,-0.0280366,-2.48946
1303,-3,4,-7,-5,-2,0,0,-2,-0.00878906,0.643555,0.597656,-2.6875,0.0625,-4,0.817837,-0.0280366,-2.48946
1303,-1,8,10,-1,-2,-4,1,-1,-0.00878906,0.643555,0.597656,-2.6875,0.0625,-4,0.817837,-0.0280366,-2.48946
1304,-3,-18,-26,-3,0,0,-1,-2,-0.0131836,0.666504,0.601074,-0.1875,-1.3125,-2.9375,0.818136,-0.0266949,-2.49051
1304,0,12,17,0,0,-3,1,-3,-0.0131836,0.666504,0.601074,-0.1875,-1.3125,-2.9375,0.818136,-0.0266949,-2.49051
1317,4,26,6,0,-2,-4,-2,0,-0.0131836,0.666504,0.601074,-0.1875,-1.3125,-2.9375,0.818136,-0.0266949,-2.49051
1317,-8,-71,-51,-16,-5,-5,-4,-4,-0.0131836,0.666504,0.601074,-0.1875,-1.3125,-2.9375,0.818136,-0.0266949,-2.49051
1326,0,9,22,2,-3,-2,-2,1,-0.0205078,0.655273,0.606934,0.0625,-2.375,-1.625,0.818316,-0.0257638,-2.4915
1326,-3,-12,-3,3,2,2,0,-2,-0.0205078,0.655273,0.606934,0.0625,-2.375,-1.625,0.818316,-0.0257638,-2.4915
1340,-4,-12,14,3,4,1,0,-1,-0.0205078,0.655273,0.606934,0.0625,-2.375,-1.625,0.818316,-0.0257638,-2.4915
1340,4,34,9,2,-2,-1,-1,-2,-0.0205078,0.655273,0.606934,0.0625,-2.375,-1.625,0.818316,-0.0257638,-2.4915
1341,-2,19,-2,0,0,0,-1,-2,-0.0161133,0.650879,0.603516,0.9375,-4.3125,-0.3125,0.818826,-0.0258306,-2.4927
1341,-1,-13,-10,-7,-7,0,-1,0,-0.0161133,0.650879,0.603516,0.9375,-4.3125,-0.3125,0.818826,-0.0258306,-2.4927
1363,-3,-18,2,-2,0,-2,1,0,-0.0161133,0.650879,0.603516,0.9375,-4.3125,-0.3125,0.818826,-0.0258306,-2.4927
1363,0,9,13,2,1,0,1,2,-0.0161133,0.650879,0.603516,0.9375,-4.3125,-0.3125,0.818826,-0.0258306,-2.4927
1364,-1,7,-24,-7,0,-2,-2,-1,0.0166016,0.625,0.62207,1.9375,-7.4375,0.1875,0.818917,-0.0274354,-2.49457
1364,1,16,18,1,1,0,-2,-2,0.0166016,0.625,0.62207,1.9375,-7.4375,0.1875,0.818917,-0.0274354,-2.49457
1392,0,-8,-23,-3,0,0,-2,-1,0.0166016,0.625,0.62207,1.9375,-7.4375,0.1875,0.818917,-0.0274354,-2.49457
1392,-3,-27,2,-3,-4,-2,-2,-2,0.0166016,0.625,0.62207,1.9375,-7.4375,0.1875,0.818917,-0.0274354,-2.49457
1394,4,6,15,1,-1,-2,-2,-1,0.0380859,0.625977,0.624023,5.1875,-8.6875,-0.4375,0.819996,-0.029646,-2.49674
1394,-2,-28,-27,1,1,-1,1,1,0.0380859,0.625977,0.624023,5.1875,-8.6875,-0.4375,0.819996,-0.029646,-2.49674
1408,-2,-2,-11,-7,-5,-2,-2,-3,0.0380859,0.625977,0.624023,5.1875,-8.6875,-0.4375,0.819996,-0.029646,-2.49674
1408,0,18,18,1,-2,0,-1,-1,0.0380859,0.625977,0.624023,5.1875,-8.6875,-0.4375,0.819996,-0.029646,-2.49674
1410,0,-2,-5,-1,2,2,0,0,0.0395508,0.654297,0.63916,5.5625,-8.5625,-2,0.821441,-0.0314666,-2.49945
1410,-4,0,2,-1,0,-1,0,-1,0.0395508,0.654297,0.63916,5.5625,-8.5625,-2,0.821441,-0.0314666,-2.49945
1430,0,-12,-8,2,-1,-2,0,-1,0.0395508,0.654297,0.63916,5.5625,-8.5625,-2,0.821441,-0.0314666,-2.49945
1430,1,58,56,4,0,-1,-1,-1,0.0395508,0.654297,0.63916,5.5625,-8.5625,-2,0.821441,-0.0314666,-2.49945
1432,-5,-51,-42,-6,-4,-2,-1,-3,0.0302734,0.664062,0.63916,3.1875,-8.5,-0.6875,0.8224,-0.0333138,-2.50174
1432,1,42,38,4,0,-1,1,1,0.0302734,0.664062,0.63916,3.1875,-8.5,-0.6875,0.8224,-0.0333138,-2.50174
1436,-2,-60,-65,-7,-3,1,0,1,0.0302734,0.664062,0.63916,3.1875,-8.5,-0.6875,0.8224,-0.0333138,-2.50174
1436,-3,-9,1,-2,-1,-1,-1,1,0.0302734,0.664062,0.63916,3.1875,-8.5,-0.6875,0.8224,-0.0333138,-2.50174
1452,0,8,14,6,1,-1,-3,-1,0.0390625,0.634766,0.633789,1.125,-9.4375,-0.4375,0.822025,-0.035574,-2.50424
1452,-2,-9,-7,-5,-2,-2,-2,-2,0.0390625,0.634766,0.633789,1.125,-9.4375,-0.4375,0.822025,-0.035574,-2.50424
1461,1,23,27,1,0,1,0,-1,0.0390625,0.634766,0.633789,1.125,-9.4375,-0.4375,0.822025,-0.035574,-2.50424
1461,0,15,-27,-6,0,0,0,0,0.0390625,0.634766,0.633789,1.125,-9.4375,-0.4375,0.822025,-0.035574,-2.50424
1463,2,3,23,3,-1,-2,0,0,0.0405273,0.630859,0.629395,0.5,-7.875,-1,0.821604,-0.0374198,-2.50642
1463,-3,-54,-43,-8,-3,-2,-1,-3,0.0405273,0.630859,0.629395,0.5,-7.875,-1,0.821604,-0.0374198,-2.50642
1482,-2,-4,-6,-1,-3,-2,-3,-3,0.0405273,0.630859,0.629395,0.5,-7.875,-1,0.821604,-0.0374198,-2.50642
1482,1,-1,0,0,0,-2,-1,0,0.0405273,0.630859,0.629395,0.5,-7.875,-1,0.821604,-0.0374198,-2.50642
1491,1,14,12,4,-1,2,-1,1,0.0263672,0.639648,0.636719,5.5,-6.1875,-0.0625,0.822672,-0.0386196,-2.50795
1491,-2,13,14,0,-1,-2,-2,-3,0.0263672,0.639648,0.636719,5.5,-6.1875,-0.0625,0.822672,-0.0386196,-2.50795
1506,-2,-6,-3,-2,-2,0,-2,-2,0.0263672,0.639648,0.636719,5.5,-6.1875,-0.0625,0.822672,-0.0386196,-2.50795
1506,-1,-6,-8,2,0,-1,-2,-1,0.0263672,0.639648,0.636719,5.5,-6.1875,-0.0625,0.822672,-0.0386196,-2.50795
1507,0,18,15,-4,-1,-1,-1,0,0.0292969,0.668457,0.629395,5.75,-5.375,-0.6875,0.824592,-0.0395849,-2.50947
1507,0,2,-4,0,-1,-1,-1,0,0.0292969,0.668457,0.629395,5.75,-5.375,-0.6875,0.824592,-0.0395849,-2.50947
1528,-3,0,-2,-6,-1,-3,-3,-1,0.0292969,0.668457,0.629395,5.75,-5.375,-0.6875,0.824592,-0.0395849,-2.50947
1528,-2,-11,-13,6,2,1,1,1,0.0292969,0.668457,0.629395,5.75,-5.375,-0.6875,0.824592,-0.0395849,-2.50947
1529,4,31,5,-4,-2,-1,-1,-2,0.0458984,0.663086,0.634766,4.1875,-3.3125,-0.875,0.825726,-0.0404626,-2.51055
1529,-1,-15,6,-5,-2,-1,-1,-1,0.0458984,0.663086,0.634766,4.1875,-3.3125,-0.875,0.825726,-0.0404626,-2.51055
1550,0,25,9,0,-2,0,-2,-1,0.0458984,0.663086,0.634766,4.1875,-3.3125,-0.875,0.825726,-0.0404626,-2.51055
1550,1,13,10,0,1,1,1,0,0.0458984,0.663086,0.634766,4.1875,-3.3125,-0.875,0.825726,-0.0404626,-2.51055
1551,-4,-51,-30,-1,1,-1,0,-1,0.0488281,0.644531,0.632812,2.625,-1.625,-0.625,0.825959,-0.0408992,-2.51101
1551,0,-5,-22,-1,3,0,0,-2,0.0488281,0.644531,0.632812,2.625,-1.625,-0.625,0.825959,-0.0408992,-2.51101
1557,-2,5,18,0,-2,-3,-3,-1,0.0488281,0.644531,0.632812,2.625,-1.625,-0.625,0.825959,-0.0408992,-2.51101
1557,-3,-1,7,2,-1,-1,-3,-1,0.0488281,0.644531,0.632812,2.625,-1.625,-0.625,0.825959,-0.0408992,-2.51101
1566,-2,9,4,-2,-2,0,1,-1,0.0371094,0.649414,0.622559,2.4375,-0.5625,0.125,0.826267,-0.0410909,-2.51108
1566,-2,2,12,0,0,-1,-1,-1,0.0371094,0.649414,0.622559,2.4375,-0.5625,0.125,0.826267,-0.0410909,-2.51108
1580,3,-3,-3,-1,3,-1,1,1,0.0371094,0.649414,0.622559,2.4375,-0.5625,0.125,0.826267,-0.0410909,-2.51108
1580,1,-18,-21,-7,-4,-6,-1,-1,0.0371094,0.649414,0.622559,2.4375,-0.5625,0.125,0.826267,-0.0410909,-2.51108
1581,-1,8,6,-9,-2,-7,-3,-1,0.0395508,0.663086,0.622559,4.125,1.5,-0.25,0.827583,-0.0407334,-2.5107
1581,-3,-10,4,14,6,1,1,-1,0.0395508,0.663086,0.622559,4.125,1.5,-0.25,0.827583,-0.0407334,-2.5107
1602,2,35,7,1,-1,0,0,0,0.0395508,0.663086,0.622559,4.125,1.5,-0.25,0.827583,-0.0407334,-2.5107
1602,-2,-1,-8,-2,-2,0,0,-2,0.0395508,0.663086,0.622559,4.125,1.5,-0.25,0.827583,-0.0407334,-2.5107
1604,-7,-52,-34,-9,-6,-4,-1,-4,0.0288086,0.663574,0.619629,4.5625,2.1875,-0.125,0.828848,-0.0399886,-2.51016
1604,-2,3,10,-3,-2,1,0,0,0.0288086,0.663574,0.619629,4.5625,2.1875,-0.125,0.828848,-0.0399886,-2.51016
1617,1,8,4,2,0,1,-1,0,0.0288086,0.663574,0.619629,4.5625,2.1875,-0.125,0.828848,-0.0399886,-2.51016
1617,0,6,10,-2,-3,0,-2,-2,0.0288086,0.663574,0.619629,4.5625,2.1875,-0.125,0.828848,-0.0399886,-2.51016
1626,-2,9,2,12,3,3,0,0,0.0205078,0.655762,0.609375,1.4375,0.875,0.4375,0.829184,-0.039555,-2.50983
1626,3,11,5,-3,-1,-1,-1,-1,0.0205078,0.655762,0.609375,1.4375,0.875,0.4375,0.829184,-0.039555,-2.50983
1641,-4,-23,-8,0,-1,-2,-1,-1,0.0205078,0.655762,0.609375,1.4375,0.875,0.4375,0.829184,-0.039555,-2.50983
1641,2,0,-1,-4,-2,1,1,0,0.0205078,0.655762,0.609375,1.4375,0.875,0.4375,0.829184,-0.039555,-2.50983
1642,1,12,-2,-1,-1,-1,1,-2,0.0268555,0.650391,0.608398,0.5,0.6875,1.625,0.829231,-0.0396521,-2.50935
1642,-1,4,-6,-2,-2,0,-2,0,0.0268555,0.650391,0.608398,0.5,0.6875,1.625,0.829231,-0.0396521,-2.50935
1663,-1,-10,8,1,1,-2,-1,-3,0.0268555,0.650391,0.608398,0.5,0.6875,1.625,0.829231,-0.0396521,-2.50935
1663,-1,-13,-7,-2,0,-4,-1,-1,0.0268555,0.650391,0.608398,0.5,0.6875,1.625,0.829231,-0.0396521,-2.50935
1665,1,25,12,2,-1,-1,-3,-2,0.0307617,0.65918,0.607422,0.875,0.25,2.9375,0.829413,-0.0402619,-2.50841
1665,0,-2,-4,-3,-3,-1,0,1,0.0307617,0.65918,0.607422,0.875,0.25,2.9375,0.829413,-0.0402619,-2.50841
1685,-2,17,9,2,-2,-1,-1,0,0.0307617,0.65918,0.607422,0.875,0.25,2.9375,0.829413,-0.0402619,-2.50841
1685,-3,-9,-19,-2,1,0,-1,0,0.0307617,0.65918,0.607422,0.875,0.25,2.9375,0.829413,-0.0402619,-2.50841
1687,-2,9,25,0,-2,-1,0,0,0.0336914,0.663086,0.614258,0.5625,0,3.5,0.829399,-0.0410347,-2.5076
1687,0,-1,-19,-5,-3,-2,-1,-1,0.0336914,0.663086,0.614258,0.5625,0,3.5,0.829399,-0.0410347,-2.5076
1708,3,-3,1,-2,-1,0,0,-2,0.0336914,0.663086,0.614258,0.5625,0,3.5,0.829399,-0.0410347,-2.5076
1708,-1,15,6,1,1,0,-1,0,0.0336914,0.663086,0.614258,0.5625,0,3.5,0.829399,-0.0410347,-2.5076
1709,-1,-38,-8,1,0,0,-1,-1,0.0454102,0.663086,0.604492,-2.0625,0,4.8125,0.828677,-0.0424177,-2.50647
1709,1,3,3,-3,-4,-2,-1,-1,0.0454102,0.663086,0.604492,-2.0625,0,4.8125,0.828677,-0.0424177,-2.50647
1730,-2,27,4,2,1,-2,0,1,0.0454102,0.663086,0.604492,-2.0625,0,4.8125,0.828677,-0.0424177,-2.50647
1730,-4,-51,-22,-5,-4,-2,0,-2,0.0454102,0.663086,0.604492,-2.0625,0,4.8125,0.828677,-0.0424177,-2.50647
1732,0,-9,-3,-7,0,-2,0,-2,0.0463867,0.654785,0.599121,-3,-0.875,4.1875,0.827772,-0.0438549,-2.50573
1732,-1,11,10,0,2,-1,-1,-2,0.0463867,0.654785,0.599121,-3,-0.875,4.1875,0.827772,-0.0438549,-2.50573
1753,-3,-32,-8,-1,-1,1,1,-2,0.0463867,0.654785,0.599121,-3,-0.875,4.1875,0.827772,-0.0438549,-2.50573
1753,1,26,2,-3,-1,-1,-2,0,0.0463867,0.654785,0.599121,-3,-0.875,4.1875,0.827772,-0.0438549,-2.50573
1755,-4,9,0,-3,-3,-1,-1,-1,0.0297852,0.685547,0.604004,-5.875,-0.5625,5.6875,0.826046,-0.0452171,-2.50446
1755,1,-4,3,2,-1,0,-1,-1,0.0297852,0.685547,0.604004,-5.875,-0.5625,5.6875,0.826046,-0.0452171,-2.50446
1759,0,-1,-4,-2,-2,-1,-1,-1,0.0297852,0.685547,0.604004,-5.875,-0.5625,5.6875,0.826046,-0.0452171,-2.50446
1759,-1,-4,-2,1,-1,-2,-2,0,0.0297852,0.685547,0.604004,-5.875,-0.5625,5.6875,0.826046,-0.0452171,-2.50446
1792,-1,-3,-5,0,-3,-1,-2,-1,0.059082,0.708008,0.608887,-0.8125,-1,-1.875,0.826622,-0.0453724,-2.50519
1792,2,5,14,2,2,0,0,2,0.059082,0.708008,0.608887,-0.8125,-1,-1.875,0.826622,-0.0453724,-2.50519
1792,4,19,-7,-1,-1,-1,1,1,0.059082,0.708008,0.608887,-0.8125,-1,-1.875,0.826622,-0.0453724,-2.50519
1792,-6,6,10,-6,-6,-1,-3,-4,0.059082,0.708008,0.608887,-0.8125,-1,-1.875,0.826622,-0.0453724,-2.50519
1793,-2,-1,0,8,2,0,1,2,0.0385742,0.711426,0.645508,-0.875,0.5625,-2.1875,0.826533,-0.0446138,-2.50557
1793,4,1,6,2,5,2,1,1,0.0385742,0.711426,0.645508,-0.875,0.5625,-2.1875,0.826533,-0.0446138,-2.50557
1805,0,-34,-23,-2,2,1,2,0,0.0385742,0.711426,0.645508,-0.875,0.5625,-2.1875,0.826533,-0.0446138,-2.50557
1805,0,16,12,-2,0,-1,0,0,0.0385742,0.711426,0.645508,-0.875,0.5625,-2.1875,0.826533,-0.0446138,-2.50557
1807,0,10,-7,-5,-5,-3,-4,-3,0.00244141,0.649414,0.621094,-10.625,-2.5,-0.4375,0.822498,-0.0441874,-2.50629
1807,0,27,-2,-3,-4,-2,-2,1,0.00244141,0.649414,0.621094,-10.625,-2.5,-0.4375,0.822498,-0.0441874,-2.50629
1828,-3,-11,14,0,-2,-4,-2,-3,0.00244141,0.649414,0.621094,-10.625,-2.5,-0.4375,0.822498,-0.0441874,-2.50629
1828,0,-4,-1,-2,1,0,0,-1,0.00244141,0.649414,0.621094,-10.625,-2.5,-0.4375,0.822498,-0.0441874,-2.50629
1829,-1,-5,3,0,1,-1,-1,0,0.0283203,0.600098,0.610352,-14.5,-3.3125,1.0625,0.816728,-0.0449556,-2.50681
1829,-2,-20,-24,-2,1,-2,-2,-1,0.0283203,0.600098,0.610352,-14.5,-3.3125,1.0625,0.816728,-0.0449556,-2.50681
1850,5,45,40,0,2,-1,-1,1,0.0283203,0.600098,0.610352,-14.5,-3.3125,1.0625,0.816728,-0.0449556,-2.50681
1850,-3,-26,-31,-1,-4,0,0,-1,0.0283203,0.600098,0.610352,-14.5,-3.3125,1.0625,0.816728,-0.0449556,-2.50681
1852,-1,8,25,3,1,1,-2,1,0.0385742,0.602539,0.63916,-7.625,-0.9375,3.3125,0.812832,-0.0459987,-2.50623
1852,-2,-12,-23,-11,-6,-3,-3,-3,0.0385742,0.602539,0.63916,-7.625,-0.9375,3.3125,0.812832,-0.0459987,-2.50623
1856,-5,-11,-7,-4,-5,-1,0,-3,0.0385742,0.602539,0.63916,-7.625,-0.9375,3.3125,0.812832,-0.0459987,-2.50623
1856,0,2,3,0,-2,-1,0,-1,0.0385742,0.602539,0.63916,-7.625,-0.9375,3.3125,0.812832,-0.0459987,-2.50623
1881,2,6,-4,1,1,1,1,1,0.0390625,0.616699,0.637207,3.875,0.25,2.625,0.813135,-0.046544,-2.5055
1881,-1,4,10,0,-2,-3,-3,-3,0.0390625,0.616699,0.637207,3.875,0.25,2.625,0.813135,-0.046544,-2.5055
1882,-2,-18,-13,-1,-3,0,-2,-3,0.0390625,0.616699,0.637207,3.875,0.25,2.625,0.813135,-0.046544,-2.5055
1882,1,5,13,4,1,-1,0,1,0.0390625,0.616699,0.637207,3.875,0.25,2.625,0.813135,-0.046544,-2.5055
1883,-1,-35,-31,-5,-2,-1,0,-2,0.0546875,0.641602,0.643555,7.25,0.9375,0.375,0.814976,-0.0466652,-2.50505
1883,-5,21,44,3,-1,1,0,-1,0.0546875,0.641602,0.643555,7.25,0.9375,0.375,0.814976,-0.0466652,-2.50505
1903,5,-20,-32,-6,-2,-3,-2,1,0.0546875,0.641602,0.643555,7.25,0.9375,0.375,0.814976,-0.0466652,-2.50505
1903,-1,16,17,0,0,-1,-2,-2,0.0546875,0.641602,0.643555,7.25,0.9375,0.375,0.814976,-0.0466652,-2.50505
1904,-2,2,-8,-4,-1,-2,-1,-1,0.0634766,0.645508,0.639648,4.4375,2.5,3.4375,0.815885,-0.0474632,-2.50363
1904,-4,-8,-9,-2,-6,-4,-1,-2,0.0634766,0.645508,0.639648,4.4375,2.5,3.4375,0.815885,-0.0474632,-2.50363
1925,1,21,6,3,0,2,1,1,0.0634766,0.645508,0.639648,4.4375,2.5,3.4375,0.815885,-0.0474632,-2.50363
1925,2,3,23,8,4,-1,1,1,0.0634766,0.645508,0.639648,4.4375,2.5,3.4375,0.815885,-0.0474632,-2.50363
1943,-8,-53,-29,-10,-4,-1,-1,-4,0.0527344,0.652832,0.654297,-3.0625,2.8125,6.0625,0.813987,-0.0485171,-2.50134
1943,0,-9,-7,-1,-3,0,-1,-2,0.0527344,0.652832,0.654297,-3.0625,2.8125,6.0625,0.813987,-0.0485171,-2.50134
1943,-1,32,10,6,0,1,-1,1,0.0527344,0.652832,0.654297,-3.0625,2.8125,6.0625,0.813987,-0.0485171,-2.50134
1943,1,-7,6,1,-1,-2,-2,0,0.0527344,0.652832,0.654297,-3.0625,2.8125,6.0625,0.813987,-0.0485171,-2.50134
1946,-3,-9,-4,-3,-2,-2,-1,-1,0.0478516,0.622559,0.64502,-5.25,2.3125,5.75,0.811093,-0.0495322,-2.49931
1946,0,-17,0,3,-1,-1,0,1,0.0478516,0.622559,0.64502,-5.25,2.3125,5.75,0.811093,-0.0495322,-2.49931
1963,-2,-4,6,0,-1,-2,-2,-2,0.0478516,0.622559,0.64502,-5.25,2.3125,5.75,0.811093,-0.0495322,-2.49931
1963,-3,-12,-22,-2,0,0,-1,-2,0.0478516,0.622559,0.64502,-5.25,2.3125,5.75,0.811093,-0.0495322,-2.49931
1965,4,33,19,6,0,-2,-1,-1,0.0571289,0.601562,0.630859,1.375,2.6875,3.375,0.810503,-0.0501354,-2.49777
1965,-1,-8,-2,-4,-1,-1,0,0,0.0571289,0.601562,0.630859,1.375,2.6875,3.375,0.810503,-0.0501354,-2.49777
1985,-3,-10,-12,-2,-2,-4,-2,-2,0.0571289,0.601562,0.630859,1.375,2.6875,3.375,0.810503,-0.0501354,-2.49777
1985,-2,3,-8,0,-2,-2,0,-3,0.0571289,0.601562,0.630859,1.375,2.6875,3.375,0.810503,-0.0501354,-2.49777
1986,0,12,8,-2,-1,1,0,0,0.0517578,0.625488,0.634277,10.6875,3.9375,1.5625,0.813365,-0.0496826,-2.49627
1986,0,-4,-15,3,2,-1,-2,0,0.0517578,0.625488,0.634277,10.6875,3.9375,1.5625,0.813365,-0.0496826,-2.49627
2007,-1,1,17,0,0,0,-3,-1,0.0517578,0.625488,0.634277,10.6875,3.9375,1.5625,0.813365,-0.0496826,-2.49627
2007,-1,1,1,-4,-3,0,-2,-1,0.0517578,0.625488,0.634277,10.6875,3.9375,1.5625,0.813365,-0.0496826,-2.49627
2009,2,2,-11,-1,-1,1,-1,-1,0.0429688,0.659668,0.625977,14.6875,4.25,-0.4375,0.818357,-0.0485774,-2.4954
2009,0,-1,7,2,-2,0,-1,-1,0.0429688,0.659668,0.625977,14.6875,4.25,-0.4375,0.818357,-0.0485774,-2.4954
2030,-4,-12,-9,-6,-1,2,0,-2,0.0429688,0.659668,0.625977,14.6875,4.25,-0.4375,0.818357,-0.0485774,-2.4954
2030,2,14,-5,2,1,1,-1,0,0.0429688,0.659668,0.625977,14.6875,4.25,-0.4375,0.818357,-0.0485774,-2.4954
2032,2,26,15,7,0,0,0,0,0.0307617,0.674805,0.616699,8.4375,2.1875,0.125,0.821474,-0.0478184,-2.49476
2032,-6,-21,2,-6,0,-2,-1,-2,0.0307617,0.674805,0.616699,8.4375,2.1875,0.125,0.821474,-0.0478184,-2.49476
2045,0,-10,-12,3,1,0,0,-2,0.0307617,0.674805,0.616699,8.4375,2.1875,0.125,0.821474,-0.0478184,-2.49476
2045,0,0,-9,-4,-2,0,0,-1,0.0307617,0.674805,0.616699,8.4375,2.1875,0.125,0.821474,-0.0478184,-2.49476
2046,-1,-2,-1,-3,-3,-2,-2,-1,0.0375977,0.675781,0.618652,3.25,0.5625,0.9375,0.822671,-0.047695,-2.49437
2046,0,31,16,1,0,-4,-1,-2,0.0375977,0.675781,0.618652,3.25,0.5625,0.9375,0.822671,-0.047695,-2.49437
2060,1,-37,-21,-5,-3,-2,0,0,0.0375977,0.675781,0.618652,3.25,0.5625,0.9375,0.822671,-0.047695,-2.49437
2060,-1,2,1,0,0,-1,-4,-1,0.0375977,0.675781,0.618652,3.25,0.5625,0.9375,0.822671,-0.047695,-2.49437
2062,1,-3,-8,-5,-1,-1,0,0,0.0444336,0.657227,0.618652,1.3125,0.375,0.625,0.822983,-0.04777,-2.49416
2062,-4,-20,-7,-3,-4,0,-2,-2,0.0444336,0.657227,0.618652,1.3125,0.375,0.625,0.822983,-0.04777,-2.49416
2083,-1,12,19,6,-1,0,0,0,0.0444336,0.657227,0.618652,1.3125,0.375,0.625,0.822983,-0.04777,-2.49416
2083,0,-7,-23,-1,-3,0,1,0,0.0444336,0.657227,0.618652,1.3125,0.375,0.625,0.822983,-0.04777,-2.49416
2106,-2,-8,4,-4,-3,-2,-1,0,0.0336914,0.64502,0.616211,4.25,0.75,0.6875,0.824084,-0.0475049,-2.49368
2106,-1,27,6,3,1,-1,-1,0,0.0336914,0.64502,0.616211,4.25,0.75,0.6875,0.824084,-0.0475049,-2.49368
2107,0,4,-4,-5,-2,0,-2,-1,0.0336914,0.64502,0.616211,4.25,0.75,0.6875,0.824084,-0.0475049,-2.49368
2107,-2,6,11,2,-1,-1,0,-1,0.0336914,0.64502,0.616211,4.25,0.75,0.6875,0.824084,-0.0475049,-2.49368
2108,-3,-18,5,1,0,-3,-2,-1,0.0419922,0.65625,0.625,7.625,1,-2.1875,0.82643,-0.04678,-2.49402
2108,3,-8,-18,-5,0,-1,0,-2,0.0419922,0.65625,0.625,7.625,1,-2.1875,0.82643,-0.04678,-2.49402
2120,-1,8,2,-3,-2,0,-1,-2,0.0419922,0.65625,0.625,7.625,1,-2.1875,0.82643,-0.04678,-2.49402
2120,-4,-30,-9,-5,-2,-2,-3,-1,0.0419922,0.65625,0.625,7.625,1,-2.1875,0.82643,-0.04678,-2.49402
2126,2,17,15,3,1,0,0,-1,0.0483398,0.671875,0.626953,8.5,1.875,-3.9375,0.82919,-0.0454835,-2.49432
2126,-1,-4,-19,3,0,-1,-1,0,0.0483398,0.671875,0.626953,8.5,1.875,-3.9375,0.82919,-0.0454835,-2.49432
2142,-2,-10,8,-3,-2,-2,-2,-2,0.0483398,0.671875,0.626953,8.5,1.875,-3.9375,0.82919,-0.0454835,-2.49432
2142,-2,17,-12,-1,-4,-1,1,-3,0.0483398,0.671875,0.626953,8.5,1.875,-3.9375,0.82919,-0.0454835,-2.49432
2145,-1,-43,-9,-4,-1,-2,0,-2,0.0415039,0.678223,0.618164,5.875,2,-3,0.831272,-0.04427,-2.49458
2145,0,-9,3,1,-1,1,0,1,0.0415039,0.678223,0.618164,5.875,2,-3,0.831272,-0.04427,-2.49458
2173,-1,29,21,6,2,-1,-1,-1,0.0415039,0.678223,0.618164,5.875,2,-3,0.831272,-0.04427,-2.49458
2173,-1,2,7,-4,-1,0,0,1,0.0415039,0.678223,0.618164,5.875,2,-3,0.831272,-0.04427,-2.49458
2174,0,8,-4,0,-2,-3,0,0,0.0297852,0.673828,0.60498,-0.1875,0.75,-2.9375,0.831442,-0.0431345,-2.49506
2174,2,35,10,-1,0,-1,1,1,0.0297852,0.673828,0.60498,-0.1875,0.75,-2.9375,0.831442,-0.0431345,-2.49506
2180,-7,-81,-39,-9,-4,1,-2,-4,0.0297852,0.673828,0.60498,-0.1875,0.75,-2.9375,0.831442,-0.0431345,-2.49506
2180,2,7,11,0,0,0,-1,-1,0.0297852,0.673828,0.60498,-0.1875,0.75,-2.9375,0.831442,-0.0431345,-2.49506
2186,0,16,-5,0,-1,2,-1,-1,0.0424805,0.662109,0.615723,-2.375,0.625,-3.875,0.830423,-0.0420288,-2.49579
2186,2,-19,3,-1,0,0,0,-3,0.0424805,0.662109,0.615723,-2.375,0.625,-3.875,0.830423,-0.0420288,-2.49579
2203,-1,26,7,0,-3,-4,-2,-2,0.0424805,0.662109,0.615723,-2.375,0.625,-3.875,0.830423,-0.0420288,-2.49579
2203,-3,-27,-4,-1,-1,-3,0,-2,0.0424805,0.662109,0.615723,-2.375,0.625,-3.875,0.830423,-0.0420288,-2.49579
2204,0,20,-6,-3,-1,-2,0,0,0.0405273,0.648926,0.62207,2.75,1.75,-4.125,0.830955,-0.0407075,-2.49636
2204,-1,-5,-7,-2,0,-4,-1,-1,0.0405273,0.648926,0.62207,2.75,1.75,-4.125,0.830955,-0.0407075,-2.49636
2226,2,23,5,-1,1,-2,-2,0,0.0405273,0.648926,0.62207,2.75,1.75,-4.125,0.830955,-0.0407075,-2.49636
2226,2,-1,5,3,2,1,0,2,0.0405273,0.648926,0.62207,2.75,1.75,-4.125,0.830955,-0.0407075,-2.49636
2227,-1,3,4,-2,-2,3,-2,-1,0.0273438,0.658691,0.611328,4.625,1.5625,-4.25,0.832271,-0.0389983,-2.49676
2227,-4,-6,-5,1,-1,-1,-2,-2,0.0273438,0.658691,0.611328,4.625,1.5625,-4.25,0.832271,-0.0389983,-2.49676
2240,-3,-21,-16,-2,-1,1,1,-1,0.0273438,0.658691,0.611328,4.625,1.5625,-4.25,0.832271,-0.0389983,-2.49676
2240,0,15,10,2,0,-1,-2,0,0.0273438,0.658691,0.611328,4.625,1.5625,-4.25,0.832271,-0.0389983,-2.49676
2246,0,26,9,1,-2,-2,-1,0,0.0224609,0.666992,0.608887,2.0625,0.375,-3.4375,0.832992,-0.037773,-2.49754
2246,0,-50,-22,-2,-1,2,-1,0,0.0224609,0.666992,0.608887,2.0625,0.375,-3.4375,0.832992,-0.037773,-2.49754
2263,-1,8,11,0,-1,-1,-2,-1,0.0224609,0.666992,0.608887,2.0625,0.375,-3.4375,0.832992,-0.037773,-2.49754
2263,-1,-6,-12,-3,-2,-2,-1,-1,0.0224609,0.666992,0.608887,2.0625,0.375,-3.4375,0.832992,-0.037773,-2.49754
2265,-3,-11,-3,-5,-3,0,0,-1,0.0166016,0.642578,0.609863,-0.75,-1.75,-1.375,0.832355,-0.0373918,-2.49826
2265,-1,20,4,5,-2,-1,-1,-1,0.0166016,0.642578,0.609863,-0.75,-1.75,-1.375,0.832355,-0.0373918,-2.49826
2286,-2,4,-5,0,1,-3,-1,0,0.0166016,0.642578,0.609863,-0.75,-1.75,-1.375,0.832355,-0.0373918,-2.49826
2286,-1,-16,-4,-2,0,-1,-3,0,0.0166016,0.642578,0.609863,-0.75,-1.75,-1.375,0.832355,-0.0373918,-2.49826
2287,-3,-9,0,2,4,-2,0,-2,0.0249023,0.641113,0.598633,-1.3125,-3.125,-0.3125,0.831634,-0.0378982,-2.49905
2287,0,10,7,-9,-6,-4,-2,-1,0.0249023,0.641113,0.598633,-1.3125,-3.125,-0.3125,0.831634,-0.0378982,-2.49905
2300,0,-10,-16,-11,-2,-1,-1,1,0.0249023,0.641113,0.598633,-1.3125,-3.125,-0.3125,0.831634,-0.0378982,-2.49905
2300,-3,1,-8,6,-1,-1,-3,-4,0.0249023,0.641113,0.598633,-1.3125,-3.125,-0.3125,0.831634,-0.0378982,-2.49905
2313,0,4,14,7,1,1,-1,-1,0.0205078,0.647461,0.602539,2.9375,-5.0625,1.5,0.832537,-0.0391403,-2.50014
2313,4,52,27,2,-1,-3,-2,-1,0.0205078,0.647461,0.602539,2.9375,-5.0625,1.5,0.832537,-0.0391403,-2.50014
2323,-9,-73,-18,6,2,-2,0,-2,0.0205078,0.647461,0.602539,2.9375,-5.0625,1.5,0.832537,-0.0391403,-2.50014
2323,-1,13,-15,-9,-3,-3,0,0,0.0205078,0.647461,0.602539,2.9375,-5.0625,1.5,0.832537,-0.0391403,-2.50014
2324,1,18,1,-2,-3,0,-1,0,0.0244141,0.640137,0.589355,3.0625,-8.0625,3.9375,0.833498,-0.0417665,-2.50124
2324,-4,-51,-6,-5,2,-2,0,-3,0.0244141,0.640137,0.589355,3.0625,-8.0625,3.9375,0.833498,-0.0417665,-2.50124
2345,5,40,6,6,-3,-1,1,-1,0.0244141,0.640137,0.589355,3.0625,-8.0625,3.9375,0.833498,-0.0417665,-2.50124
2345,1,-7,6,-1,1,1,0,1,0.0244141,0.640137,0.589355,3.0625,-8.0625,3.9375,0.833498,-0.0417665,-2.50124
2347,-3,-25,-4,-1,-1,-3,-2,-2,0.0302734,0.635742,0.603516,-1.0625,-10.6875,4,0.832782,-0.0450531,-2.50307
2347,-1,8,-5,-1,-1,-1,2,-1,0.0302734,0.635742,0.603516,-1.0625,-10.6875,4,0.832782,-0.0450531,-2.50307
2359,4,35,6,2,0,2,-1,0,0.0302734,0.635742,0.603516,-1.0625,-10.6875,4,0.832782,-0.0450531,-2.50307
2359,-2,-31,0,-1,-2,-1,-1,-2,0.0302734,0.635742,0.603516,-1.0625,-10.6875,4,0.832782,-0.0450531,-2.50307
2367,-2,-10,-17,-9,-3,-1,-4,-1,0.0507812,0.640137,0.623047,5.1875,-9.625,3,0.833938,-0.0483119,-2.50482
2367,1,7,9,5,0,0,-1,1,0.0507812,0.640137,0.623047,5.1875,-9.625,3,0.833938,-0.0483119,-2.50482
2383,-1,-11,-3,-4,-1,-2,0,-3,0.0507812,0.640137,0.623047,5.1875,-9.625,3,0.833938,-0.0483119,-2.50482
2383,1,29,12,3,0,0,0,0,0.0507812,0.640137,0.623047,5.1875,-9.625,3,0.833938,-0.0483119,-2.50482
2384,-1,12,4,-2,-2,-1,-2,-1,0.0566406,0.678711,0.631836,11.5,-6.625,3.1875,0.837527,-0.0508071,-2.50569
2384,-2,-24,-23,-1,-2,1,-2,-3,0.0566406,0.678711,0.631836,11.5,-6.625,3.1875,0.837527,-0.0508071,-2.50569
2405,1,9,-1,1,0,-1,-2,1,0.0566406,0.678711,0.631836,11.5,-6.625,3.1875,0.837527,-0.0508071,-2.50569
2405,-1,25,8,5,1,-1,0,1,0.0566406,0.678711,0.631836,11.5,-6.625,3.1875,0.837527,-0.0508071,-2.50569
2407,1,-3,-10,-6,-3,-1,0,0,0.0463867,0.714355,0.613281,9.5,-4.5,3.6875,0.841379,-0.0528237,-2.50599
2407,-1,29,27,-8,-3,-2,1,0,0.0463867,0.714355,0.613281,9.5,-4.5,3.6875,0.841379,-0.0528237,-2.50599
2419,-4,-36,-27,7,0,-1,0,0,0.0463867,0.714355,0.613281,9.5,-4.5,3.6875,0.841379,-0.0528237,-2.50599
2419,-1,4,10,-6,-2,-3,0,-3,0.0463867,0.714355,0.613281,9.5,-4.5,3.6875,0.841379,-0.0528237,-2.50599
2428,0,-37,-23,3,2,-1,0,-1,0.0366211,0.678711,0.598633,0.1875,-6.5,4.3125,0.841554,-0.0550986,-2.50666
2428,-2,14,6,1,0,0,-2,-2,0.0366211,0.678711,0.598633,0.1875,-6.5,4.3125,0.841554,-0.0550986,-2.50666
2458,2,25,6,-3,-1,0,-1,0,0.0366211,0.678711,0.598633,0.1875,-6.5,4.3125,0.841554,-0.0550986,-2.50666
2458,-2,-9,5,-2,-1,1,-2,0,0.0366211,0.678711,0.598633,0.1875,-6.5,4.3125,0.841554,-0.0550986,-2.50666
2460,-1,-3,-2,0,0,-1,-3,-2,0.0566406,0.644531,0.59668,-4.4375,-7.125,3.3125,0.83972,-0.0577662,-2.50774
2460,-2,-17,-22,-3,0,-3,0,-2,0.0566406,0.644531,0.59668,-4.4375,-7.125,3.3125,0.83972,-0.0577662,-2.50774
2473,3,30,30,4,1,-2,-1,1,0.0566406,0.644531,0.59668,-4.4375,-7.125,3.3125,0.83972,-0.0577662,-2.50774
2473,-5,-46,-35,-4,-3,-5,-2,-3,0.0566406,0.644531,0.59668,-4.4375,-7.125,3.3125,0.83972,-0.0577662,-2.50774
2475,-1,16,18,-2,-1,-3,-1,-2,0.0649414,0.657227,0.611328,2.8125,-4,3.25,0.840319,-0.0598616,-2.5079
2475,-2,-14,-17,0,-3,-1,-2,0,0.0649414,0.657227,0.611328,2.8125,-4,3.25,0.840319,-0.0598616,-2.5079
2479,-2,21,2,-6,-3,-2,-1,0,0.0649414,0.657227,0.611328,2.8125,-4,3.25,0.840319,-0.0598616,-2.5079
2479,-2,-17,20,-1,-2,3,-3,-1,0.0649414,0.657227,0.611328,2.8125,-4,3.25,0.840319,-0.0598616,-2.5079
2494,-4,-18,-23,-3,-3,-2,-1,-3,0.0595703,0.678711,0.62207,6.9375,-1.625,2.5,0.842392,-0.0609448,-2.50767
2494,-2,-10,-15,0,-2,-1,0,-1,0.0595703,0.678711,0.62207,6.9375,-1.625,2.5,0.842392,-0.0609448,-2.50767
2526,-1,10,8,1,0,1,-2,-3,0.0595703,0.678711,0.62207,6.9375,-1.625,2.5,0.842392,-0.0609448,-2.50767
2526,0,17,-5,-1,-1,-2,0,-2,0.0595703,0.678711,0.62207,6.9375,-1.625,2.5,0.842392,-0.0609448,-2.50767
2528,0,5,13,3,1,0,0,1,0.0493164,0.672363,0.602051,3.9375,-1.875,1.4375,0.843748,-0.0616036,-2.50789
2528,-1,10,-1,-1,-1,-1,-1,-1,0.0493164,0.672363,0.602051,3.9375,-1.875,1.4375,0.843748,-0.0616036,-2.50789
2528,-1,-21,-12,-2,0,-2,-2,-2,0.0493164,0.672363,0.602051,3.9375,-1.875,1.4375,0.843748,-0.0616036,-2.50789
2528,4,27,9,2,0,0,0,1,0.0493164,0.672363,0.602051,3.9375,-1.875,1.4375,0.843748,-0.0616036,-2.50789
2550,-1,-17,-4,0,2,-1,-1,-2,0.0644531,0.685059,0.606934,-0.4375,-2.6875,0.3125,0.843678,-0.0624227,-2.50847
2550,-1,1,7,-2,-1,-2,-1,-1,0.0644531,0.685059,0.606934,-0.4375,-2.6875,0.3125,0.843678,-0.0624227,-2.50847
2551,-2,-2,-7,-7,-5,-2,-3,-1,0.0644531,0.685059,0.606934,-0.4375,-2.6875,0.3125,0.843678,-0.0624227,-2.50847
2551,1,-8,-18,-8,-2,-1,0,-1,0.0644531,0.685059,0.606934,-0.4375,-2.6875,0.3125,0.843678,-0.0624227,-2.50847
2571,2,24,-1,1,-1,2,0,1,0.0664062,0.671387,0.613281,0.5625,-1.375,1.125,0.843683,-0.063331,-2.50867
2571,0,24,-7,4,-1,0,0,-1,0.0664062,0.671387,0.613281,0.5625,-1.375,1.125,0.843683,-0.063331,-2.50867
2572,-9,-81,-11,-3,-2,-2,-2,-3,0.0664062,0.671387,0.613281,0.5625,-1.375,1.125,0.843683,-0.063331,-2.50867
2572,1,26,10,2,-1,-2,-1,-1,0.0664062,0.671387,0.613281,0.5625,-1.375,1.125,0.843683,-0.063331,-2.50867
2573,-1,4,-3,-6,-1,0,-1,0,0.059082,0.668457,0.601074,-1.0625,-2.1875,2.3125,0.843192,-0.0644391,-2.50863
2573,0,4,7,2,3,0,-1,1,0.059082,0.668457,0.601074,-1.0625,-2.1875,2.3125,0.843192,-0.0644391,-2.50863
2640,-2,-15,1,-4,-2,-3,-2,-1,0.059082,0.668457,0.601074,-1.0625,-2.1875,2.3125,0.843192,-0.0644391,-2.50863
2640,-1,-2,-8,2,-1,-1,-1,-2,0.059082,0.668457,0.601074,-1.0625,-2.1875,2.3125,0.843192,-0.0644391,-2.50863
2641,-1,2,6,0,-1,-2,-2,0,0.0595703,0.661621,0.60791,-2.3125,-1.625,0.5625,0.842145,-0.0649725,-2.50882
2641,-1,-14,-1,-1,-2,0,-1,-1,0.0595703,0.661621,0.60791,-2.3125,-1.625,0.5625,0.842145,-0.0649725,-2.50882
2642,0,19,9,3,2,0,0,-1,0.0595703,0.661621,0.60791,-2.3125,-1.625,0.5625,0.842145,-0.0649725,-2.50882
2642,-1,11,-2,-6,-2,-1,-3,-1,0.0595703,0.661621,0.60791,-2.3125,-1.625,0.5625,0.842145,-0.0649725,-2.50882
2647,-4,-28,-24,-3,-2,1,-1,-3,0.0683594,0.671387,0.623535,1,0.6875,-0.625,0.842002,-0.0649363,-2.50877
2647,1,-2,5,-1,0,-1,0,-1,0.0683594,0.671387,0.623535,1,0.6875,-0.625,0.842002,-0.0649363,-2.50877
2648,1,34,-14,-1,0,1,0,0,0.0683594,0.671387,0.623535,1,0.6875,-0.625,0.842002,-0.0649363,-2.50877
2648,-1,-41,11,-3,-1,0,0,-1,0.0683594,0.671387,0.623535,1,0.6875,-0.625,0.842002,-0.0649363,-2.50877
2649,1,9,17,0,-2,-2,0,-2,0.0683594,0.671387,0.623535,1,0.6875,-0.625,0.842002,-0.0649363,-2.50877
2649,0,12,-8,1,-1,-2,0,0,0.0683594,0.671387,0.623535,1,0.6875,-0.625,0.842002,-0.0649363,-2.50877
2660,0,6,-13,-6,-1,0,2,2,0.0581055,0.679688,0.609863,0.4375,3.5625,-0.75,0.842723,-0.0632069,-2.50762
2660,-3,-11,-2,-2,0,0,-3,-2,0.0581055,0.679688,0.609863,0.4375,3.5625,-0.75,0.842723,-0.0632069,-2.50762
2662,0,5,4,5,2,2,2,0,0.0581055,0.679688,0.609863,0.4375,3.5625,-0.75,0.842723,-0.0632069,-2.50762
2662,0,8,1,0,0,-1,-1,1,0.0581055,0.679688,0.609863,0.4375,3.5625,-0.75,0.842723,-0.0632069,-2.50762
2668,-1,-20,2,1,-2,0,-2,-2,0.0546875,0.668945,0.615234,-2.875,3.5,-0.9375,0.841319,-0.062093,-2.50686
2668,0,-2,-4,-3,-1,0,2,-1,0.0546875,0.668945,0.615234,-2.875,3.5,-0.9375,0.841319,-0.062093,-2.50686
2682,0,1,-1,-4,-4,-2,-2,-1,0.0546875,0.668945,0.615234,-2.875,3.5,-0.9375,0.841319,-0.062093,-2.50686
2682,0,-7,-2,-1,-1,0,0,-1,0.0546875,0.668945,0.615234,-2.875,3.5,-0.9375,0.841319,-0.062093,-2.50686
2685,0,6,11,-1,2,-4,-1,0,0.0625,0.65625,0.604492,-0.0625,3.875,-2.25,0.840921,-0.0608075,-2.50628
2685,0,16,2,0,-3,-1,-2,0,0.0625,0.65625,0.604492,-0.0625,3.875,-2.25,0.840921,-0.0608075,-2.50628
2706,-1,-7,-1,-2,0,-3,0,2,0.0625,0.65625,0.604492,-0.0625,3.875,-2.25,0.840921,-0.0608075,-2.50628
2706,-5,-15,-11,-2,-4,-4,-4,-3,0.0625,0.65625,0.604492,-0.0625,3.875,-2.25,0.840921,-0.0608075,-2.50628
2707,1,13,-2,-2,-1,0,0,0,0.0571289,0.655762,0.606445,1.4375,3.75,-2.0625,0.840954,-0.0594893,-2.50579
2707,-1,-9,4,1,1,0,1,-3,0.0571289,0.655762,0.606445,1.4375,3.75,-2.0625,0.840954,-0.0594893,-2.50579
2728,-1,0,-1,-5,-2,-2,1,0,0.0571289,0.655762,0.606445,1.4375,3.75,-2.0625,0.840954,-0.0594893,-2.50579
2728,1,16,2,3,2,1,0,0,0.0571289,0.655762,0.606445,1.4375,3.75,-2.0625,0.840954,-0.0594893,-2.50579
2729,-1,-19,-1,-1,1,2,0,-1,0.0522461,0.658203,0.607422,2.125,3.25,-2.0625,0.841417,-0.05828,-2.50545
2729,0,-12,-2,0,0,-2,-2,0,0.0522461,0.658203,0.607422,2.125,3.25,-2.0625,0.841417,-0.05828,-2.50545
2750,-1,4,9,1,-1,-1,0,0,0.0522461,0.658203,0.607422,2.125,3.25,-2.0625,0.841417,-0.05828,-2.50545
2750,1,21,-20,-5,-3,-3,-1,-1,0.0522461,0.658203,0.607422,2.125,3.25,-2.0625,0.841417,-0.05828,-2.50545
2751,-5,-19,5,-1,-4,-2,-2,-2,0.0517578,0.665527,0.618652,1.8125,3.0625,-1.75,0.841563,-0.057011,-2.50491
2751,-3,-14,-4,2,1,1,-2,-1,0.0517578,0.665527,0.618652,1.8125,3.0625,-1.75,0.841563,-0.057011,-2.50491
2781,-1,-5,11,-2,-1,0,-1,-2,0.0517578,0.665527,0.618652,1.8125,3.0625,-1.75,0.841563,-0.057011,-2.50491
2781,1,5,-7,0,1,0,-1,-1,0.0517578,0.665527,0.618652,1.8125,3.0625,-1.75,0.841563,-0.057011,-2.50491
2782,-1,16,5,4,-1,-2,0,0,0.0488281,0.664551,0.606934,0.3125,1.75,-1.5625,0.841441,-0.0561471,-2.5049
2782,-1,-1,-5,-7,-4,-2,-1,-1,0.0488281,0.664551,0.606934,0.3125,1.75,-1.5625,0.841441,-0.0561471,-2.5049
2784,-2,-7,-7,0,-1,0,-2,-2,0.0488281,0.664551,0.606934,0.3125,1.75,-1.5625,0.841441,-0.0561471,-2.5049
2784,-1,1,8,1,-1,1,0,0,0.0488281,0.664551,0.606934,0.3125,1.75,-1.5625,0.841441,-0.0561471,-2.5049
2788,1,4,6,-1,-1,-3,0,0,0.0507812,0.648926,0.608887,0,0.75,-1.0625,0.840837,-0.055835,-2.50482
2788,-4,-8,6,-2,0,0,2,-4,0.0507812,0.648926,0.608887,0,0.75,-1.0625,0.840837,-0.055835,-2.50482
2804,0,18,-15,-1,0,1,-1,0,0.0507812,0.648926,0.608887,0,0.75,-1.0625,0.840837,-0.055835,-2.50482
2804,-3,-9,-2,0,1,-1,-2,-1,0.0507812,0.648926,0.608887,0,0.75,-1.0625,0.840837,-0.055835,-2.50482
2809,1,11,5,-4,0,-3,-1,2,0.0561523,0.656738,0.606934,2.9375,1.625,-1.625,0.841626,-0.0551699,-2.50471
2809,3,23,7,0,0,0,-1,0,0.0561523,0.656738,0.606934,2.9375,1.625,-1.625,0.841626,-0.0551699,-2.50471
2826,4,10,8,3,-1,0,0,-1,0.0561523,0.656738,0.606934,2.9375,1.625,-1.625,0.841626,-0.0551699,-2.50471
2826,-1,-40,-24,-6,-5,-1,-2,-2,0.0561523,0.656738,0.606934,2.9375,1.625,-1.625,0.841626,-0.0551699,-2.50471
2827,1,-7,15,8,1,-1,-1,0,0.0449219,0.671387,0.602539,3.4375,1.1875,-0.9375,0.842669,-0.0545902,-2.5046
2827,-2,5,-16,-1,-1,-1,-2,-1,0.0449219,0.671387,0.602539,3.4375,1.1875,-0.9375,0.842669,-0.0545902,-2.5046
2839,-4,-6,-6,-3,-1,-2,-1,-2,0.0449219,0.671387,0.602539,3.4375,1.1875,-0.9375,0.842669,-0.0545902,-2.5046
2839,-2,2,6,-1,-1,-2,0,0,0.0449219,0.671387,0.602539,3.4375,1.1875,-0.9375,0.842669,-0.0545902,-2.5046
2856,0,8,-4,3,3,3,0,0,0.0419922,0.669434,0.599609,1.75,0.3125,-0.25,0.84322,-0.0541928,-2.50466
2856,-1,-15,-6,-3,-5,-3,0,-2,0.0419922,0.669434,0.599609,1.75,0.3125,-0.25,0.84322,-0.0541928,-2.50466
2862,-1,0,0,0,-1,-1,-2,-1,0.0419922,0.669434,0.599609,1.75,0.3125,-0.25,0.84322,-0.0541928,-2.50466
2862,0,4,7,1,-2,-1,0,-1,0.0419922,0.669434,0.599609,1.75,0.3125,-0.25,0.84322,-0.0541928,-2.50466
2865,-2,-22,-3,-5,-2,1,-2,-1,0.043457,0.669922,0.604492,0.375,0,-0.4375,0.84322,-0.0541928,-2.50466
2865,1,19,10,-1,-1,0,-2,-2,0.043457,0.669922,0.604492,0.375,0,-0.4375,0.84322,-0.0541928,-2.50466
2885,-4,-39,-44,-2,0,-2,-3,0,0.043457,0.669922,0.604492,0.375,0,-0.4375,0.84322,-0.0541928,-2.50466
2885,-1,26,14,2,2,-2,0,1,0.043457,0.669922,0.604492,0.375,0,-0.4375,0.84322,-0.0541928,-2.50466
2887,-2,-48,-4,-7,-2,-3,-2,-3,0.0512695,0.665527,0.603027,2.75,0.5,-1,0.844024,-0.0538806,-2.50472
2887,-1,0,-19,1,1,0,-1,0,0.0512695,0.665527,0.603027,2.75,0.5,-1,0.844024,-0.0538806,-2.50472
2915,0,3,6,-5,-2,0,1,-1,0.0512695,0.665527,0.603027,2.75,0.5,-1,0.844024,-0.0538806,-2.50472
2915,-1,-1,-1,-5,0,-1,-1,-1,0.0512695,0.665527,0.603027,2.75,0.5,-1,0.844024,-0.0538806,-2.50472
2917,1,28,-5,1,-3,-2,-1,-2,0.050293,0.677734,0.606445,4,1.5625,-1.25,0.845222,-0.0532447,-2.50452
2917,-2,-9,11,-3,-1,-2,-2,-2,0.050293,0.677734,0.606445,4,1.5625,-1.25,0.845222,-0.0532447,-2.50452
2923,0,-3,-7,-3,-2,-1,0,-1,0.050293,0.677734,0.606445,4,1.5625,-1.25,0.845222,-0.0532447,-2.50452
2923,0,-10,3,4,0,-1,-1,-1,0.050293,0.677734,0.606445,4,1.5625,-1.25,0.845222,-0.0532447,-2.50452
2925,-1,17,-4,-4,-2,0,0,-1,0.0488281,0.677734,0.608887,2.5625,1.375,-0.9375,0.845979,-0.0527342,-2.50437
2925,-5,-16,-8,-1,-2,0,-1,0,0.0488281,0.677734,0.608887,2.5625,1.375,-0.9375,0.845979,-0.0527342,-2.50437
2945,-3,3,9,0,0,-2,-1,0,0.0488281,0.677734,0.608887,2.5625,1.375,-0.9375,0.845979,-0.0527342,-2.50437
2945,0,-4,1,-3,-1,1,-1,0,0.0488281,0.677734,0.608887,2.5625,1.375,-0.9375,0.845979,-0.0527342,-2.50437
2947,-1,-3,-17,-1,1,-1,0,-1,0.0483398,0.666504,0.608887,0,1,-1,0.845705,-0.052248,-2.50429
2947,0,3,2,-2,-2,-1,-2,-1,0.0483398,0.666504,0.608887,0,1,-1,0.845705,-0.052248,-2.50429
2968,-1,3,1,-3,-4,-2,-2,-3,0.0483398,0.666504,0.608887,0,1,-1,0.845705,-0.052248,-2.50429
2968,-1,-3,2,-2,-3,0,0,-2,0.0483398,0.666504,0.608887,0,1,-1,0.845705,-0.052248,-2.50429
2970,2,20,15,9,1,0,-1,1,0.0429688,0.652344,0.604004,0.3125,1.1875,-0.375,0.845338,-0.0518097,-2.5041
2970,-1,5,5,-1,-1,0,-1,-1,0.0429688,0.652344,0.604004,0.3125,1.1875,-0.375,0.845338,-0.0518097,-2.5041
2983,-1,-14,-4,-6,-3,-2,0,-3,0.0429688,0.652344,0.604004,0.3125,1.1875,-0.375,0.845338,-0.0518097,-2.5041
2983,-1,11,1,-1,-3,-1,-3,-2,0.0429688,0.652344,0.604004,0.3125,1.1875,-0.375,0.845338,-0.0518097,-2.5041
2984,0,6,-3,1,0,1,2,-1,0.0415039,0.660645,0.604492,2,1.125,-0.1875,0.845642,-0.0513932,-2.50367
2984,1,9,13,-2,-2,-2,0,2,0.0415039,0.660645,0.604492,2,1.125,-0.1875,0.845642,-0.0513932,-2.50367
3006,0,0,-3,2,0,-2,-1,0,0.0415039,0.660645,0.604492,2,1.125,-0.1875,0.845642,-0.0513932,-2.50367
3006,-1,6,0,1,-2,-2,-1,-1,0.0415039,0.660645,0.604492,2,1.125,-0.1875,0.845642,-0.0513932,-2.50367
3013,-1,6,-7,-3,-2,-2,1,-2,0.046875,0.66748,0.605469,3.4375,2.25,-1.125,0.846498,-0.0505799,-2.5033
3013,-1,-19,-1,2,1,-1,0,-1,0.046875,0.66748,0.605469,3.4375,2.25,-1.125,0.846498,-0.0505799,-2.5033
3029,-2,-6,2,1,0,0,-1,-1,0.046875,0.66748,0.605469,3.4375,2.25,-1.125,0.846498,-0.0505799,-2.5033
3029,0,5,-1,-1,-2,-2,-1,-1,0.046875,0.66748,0.605469,3.4375,2.25,-1.125,0.846498,-0.0505799,-2.5033
3030,0,7,11,-1,0,-1,-1,-1,0.0439453,0.671875,0.60791,2.875,2.3125,-1.125,0.847245,-0.0497177,-2.50299
3030,0,8,-14,-2,-2,0,0,-1,0.0439453,0.671875,0.60791,2.875,2.3125,-1.125,0.847245,-0.0497177,-2.50299
3042,1,15,5,-1,-1,-1,0,-1,0.0439453,0.671875,0.60791,2.875,2.3125,-1.125,0.847245,-0.0497177,-2.50299
3042,-2,-39,-4,-2,2,-2,0,0,0.0439453,0.671875,0.60791,2.875,2.3125,-1.125,0.847245,-0.0497177,-2.50299
3049,-3,-10,-13,0,-1,-1,-2,-2,0.0424805,0.673828,0.610352,2.3125,2.0625,-0.9375,0.847804,-0.0490657,-2.50271
3049,-4,-12,-6,0,-1,-2,-2,-3,0.0424805,0.673828,0.610352,2.3125,2.0625,-0.9375,0.847804,-0.0490657,-2.50271
3065,-2,11,1,-3,0,-3,-2,-1,0.0424805,0.673828,0.610352,2.3125,2.0625,-0.9375,0.847804,-0.0490657,-2.50271
3065,0,-3,2,-1,-4,2,-1,-1,0.0424805,0.673828,0.610352,2.3125,2.0625,-0.9375,0.847804,-0.0490657,-2.50271
3067,0,2,5,1,1,1,-3,-1,0.0507812,0.674316,0.605957,1.8125,2.4375,-2,0.848104,-0.048139,-2.50247
3067,0,-4,-3,-1,-1,-1,-1,1,0.0507812,0.674316,0.605957,1.8125,2.4375,-2,0.848104,-0.048139,-2.50247
3087,-3,-9,-3,-1,-2,0,1,-1,0.0507812,0.674316,0.605957,1.8125,2.4375,-2,0.848104,-0.048139,-2.50247
3087,0,-1,-4,-2,-1,-2,-1,0,0.0507812,0.674316,0.605957,1.8125,2.4375,-2,0.848104,-0.048139,-2.50247
3096,-2,13,8,-1,-3,-2,-1,1,0.0380859,0.673828,0.602539,1.8125,2.625,-1.5625,0.848688,-0.0469812,-2.50208
3096,-1,3,-5,4,3,2,-1,1,0.0380859,0.673828,0.602539,1.8125,2.625,-1.5625,0.848688,-0.0469812,-2.50208
3102,0,-19,4,-4,-1,-3,-2,-4,0.0380859,0.673828,0.602539,1.8125,2.625,-1.5625,0.848688,-0.0469812,-2.50208
3102,-2,12,0,-2,-2,-2,-1,-1,0.0380859,0.673828,0.602539,1.8125,2.625,-1.5625,0.848688,-0.0469812,-2.50208
3111,-1,-7,-1,-4,-3,-2,0,-3,0.0371094,0.666016,0.60498,2.25,2.125,-1.875,0.849056,-0.0458876,-2.50198
3111,-1,3,2,1,2,2,2,-1,0.0371094,0.666016,0.60498,2.25,2.125,-1.875,0.849056,-0.0458876,-2.50198
3126,1,-8,2,1,-2,-2,-2,-1,0.0371094,0.666016,0.60498,2.25,2.125,-1.875,0.849056,-0.0458876,-2.50198
3126,-3,-32,-11,0,-1,2,-2,-2,0.0371094,0.666016,0.60498,2.25,2.125,-1.875,0.849056,-0.0458876,-2.50198
3128,-2,14,-17,-4,-1,0,-1,1,0.0371094,0.661133,0.598633,2.125,1.9375,-2.5,0.849559,-0.0447815,-2.50202
3128,0,16,5,-4,-4,-3,0,0,0.0371094,0.661133,0.598633,2.125,1.9375,-2.5,0.849559,-0.0447815,-2.50202
3148,-1,-7,-2,-1,-1,0,0,0,0.0371094,0.661133,0.598633,2.125,1.9375,-2.5,0.849559,-0.0447815,-2.50202
3148,0,11,11,2,2,-1,1,-2,0.0371094,0.661133,0.598633,2.125,1.9375,-2.5,0.849559,-0.0447815,-2.50202
3150,0,-13,-3,2,-2,-3,-1,-1,0.0395508,0.669434,0.602539,2.6875,1.4375,-1.875,0.850085,-0.0439356,-2.50208
3150,4,28,0,-2,-1,-1,0,-1,0.0395508,0.669434,0.602539,2.6875,1.4375,-1.875,0.850085,-0.0439356,-2.50208
3178,0,5,13,1,0,-1,-1,0,0.0395508,0.669434,0.602539,2.6875,1.4375,-1.875,0.850085,-0.0439356,-2.50208
3178,-1,-6,-11,-2,0,0,0,1,0.0395508,0.669434,0.602539,2.6875,1.4375,-1.875,0.850085,-0.0439356,-2.50208
3180,-2,-15,4,-2,-1,-2,-1,-2,0.0405273,0.679199,0.599609,2.0625,1.5,-1.375,0.850739,-0.0432365,-2.50192
3180,-3,-5,-1,1,-1,0,-1,-2,0.0405273,0.679199,0.599609,2.0625,1.5,-1.375,0.850739,-0.0432365,-2.50192
3193,-1,-2,-6,1,3,1,0,-1,0.0405273,0.679199,0.599609,2.0625,1.5,-1.375,0.850739,-0.0432365,-2.50192
3193,1,4,-2,-3,-2,-1,1,-1,0.0405273,0.679199,0.599609,2.0625,1.5,-1.375,0.850739,-0.0432365,-2.50192
3194,2,15,7,3,2,1,0,0,0.0351562,0.673828,0.599609,1.4375,0.5,-1.1875,0.851174,-0.0427415,-2.50211
3194,-4,-38,3,-4,-3,-1,-3,-2,0.0351562,0.673828,0.599609,1.4375,0.5,-1.1875,0.851174,-0.0427415,-2.50211
3216,0,-5,-14,0,0,-1,0,2,0.0351562,0.673828,0.599609,1.4375,0.5,-1.1875,0.851174,-0.0427415,-2.50211
3216,-1,3,1,0,-1,1,0,-1,0.0351562,0.673828,0.599609,1.4375,0.5,-1.1875,0.851174,-0.0427415,-2.50211
3217,0,2,-2,-4,-3,-2,0,-1,0.034668,0.671387,0.594238,1.5625,0,-1.125,0.851533,-0.0423654,-2.50225
3217,-1,23,9,-1,-1,-2,-1,-1,0.034668,0.671387,0.594238,1.5625,0,-1.125,0.851533,-0.0423654,-2.50225
3222,0,0,-1,-2,-3,1,2,1,0.034668,0.671387,0.594238,1.5625,0,-1.125,0.851533,-0.0423654,-2.50225
3222,-3,0,-8,0,0,-1,-1,-1,0.034668,0.671387,0.594238,1.5625,0,-1.125,0.851533,-0.0423654,-2.50225
3229,1,-4,-1,0,-2,-1,-1,0,0.0375977,0.66748,0.600586,1.125,-0.375,-0.625,0.85169,-0.0422905,-2.50256
3229,-4,-30,-8,-2,-1,-3,-1,-2,0.0375977,0.66748,0.600586,1.125,-0.375,-0.625,0.85169,-0.0422905,-2.50256
3246,0,13,-4,1,-2,0,-2,-2,0.0375977,0.66748,0.600586,1.125,-0.375,-0.625,0.85169,-0.0422905,-2.50256
3246,-2,-13,-3,-4,1,1,-1,0,0.0375977,0.66748,0.600586,1.125,-0.375,-0.625,0.85169,-0.0422905,-2.50256
3247,-3,1,1,1,-1,0,-3,-3,0.0341797,0.670898,0.603027,1.4375,-0.125,-0.3125,0.851835,-0.0421861,-2.50256
3247,2,-5,-6,-3,-2,-1,-1,-1,0.0341797,0.670898,0.603027,1.4375,-0.125,-0.3125,0.851835,-0.0421861,-2.50256
3268,-4,0,2,-1,-2,-2,-1,0,0.0341797,0.670898,0.603027,1.4375,-0.125,-0.3125,0.851835,-0.0421861,-2.50256
3268,0,9,8,1,-2,-3,-1,2,0.0341797,0.670898,0.603027,1.4375,-0.125,-0.3125,0.851835,-0.0421861,-2.50256
3283,0,29,11,0,0,-1,-1,0,0.0268555,0.675293,0.602051,2.5625,0.0625,-0.125,0.852509,-0.0418875,-2.50248
3283,-2,-36,-36,-1,0,-1,-2,-1,0.0268555,0.675293,0.602051,2.5625,0.0625,-0.125,0.852509,-0.0418875,-2.50248
3284,0,11,0,-1,1,-1,-1,-1,0.0268555,0.675293,0.602051,2.5625,0.0625,-0.125,0.852509,-0.0418875,-2.50248
3284,-1,-1,6,-1,-2,2,-2,-2,0.0268555,0.675293,0.602051,2.5625,0.0625,-0.125,0.852509,-0.0418875,-2.50248
3289,-5,-40,-15,-3,-2,-1,0,-1,0.0297852,0.671875,0.599609,2.1875,-0.5,-0.0625,0.853118,-0.041737,-2.50266
3289,3,37,16,-3,-2,-2,-1,-2,0.0297852,0.671875,0.599609,2.1875,-0.5,-0.0625,0.853118,-0.041737,-2.50266
3305,-1,-4,-4,4,-3,1,0,0,0.0297852,0.671875,0.599609,2.1875,-0.5,-0.0625,0.853118,-0.041737,-2.50266
3305,-1,6,-6,-1,-1,-3,2,-1,0.0297852,0.671875,0.599609,2.1875,-0.5,-0.0625,0.853118,-0.041737,-2.50266
3307,3,22,13,-1,-1,1,0,1,0.0375977,0.674805,0.591309,0.4375,-0.5,0.25,0.853118,-0.041737,-2.50266
3307,-4,-12,-1,-3,-2,-1,0,-4,0.0375977,0.674805,0.591309,0.4375,-0.5,0.25,0.853118,-0.041737,-2.50266
3334,-4,-19,4,1,-1,0,-3,-4,0.0375977,0.674805,0.591309,0.4375,-0.5,0.25,0.853118,-0.041737,-2.50266
3334,1,35,-1,-4,0,-3,-2,1,0.0375977,0.674805,0.591309,0.4375,-0.5,0.25,0.853118,-0.041737,-2.50266
3352,-4,-52,-11,2,-1,-1,-2,-2,0.0366211,0.669922,0.600098,0.375,-0.75,0.9375,0.852975,-0.041701,-2.50262
3352,2,26,5,-1,-5,-1,-1,1,0.0366211,0.669922,0.600098,0.375,-0.75,0.9375,0.852975,-0.041701,-2.50262
3353,0,-50,-9,-3,2,1,2,2,0.0366211,0.669922,0.600098,0.375,-0.75,0.9375,0.852975,-0.041701,-2.50262
3353,-1,50,11,1,-2,-1,-2,-1,0.0366211,0.669922,0.600098,0.375,-0.75,0.9375,0.852975,-0.041701,-2.50262
3356,-2,-14,-14,-2,1,-1,-1,-1,0.0449219,0.67627,0.602539,1.4375,-0.5625,0.5625,0.853248,-0.0421869,-2.50269
3356,0,-7,0,0,-2,-2,-2,-2,0.0449219,0.67627,0.602539,1.4375,-0.5625,0.5625,0.853248,-0.0421869,-2.50269
3373,0,17,4,0,-3,-2,-1,-1,0.0449219,0.67627,0.602539,1.4375,-0.5625,0.5625,0.853248,-0.0421869,-2.50269
3373,-2,-39,1,-3,-1,-1,-2,-4,0.0449219,0.67627,0.602539,1.4375,-0.5625,0.5625,0.853248,-0.0421869,-2.50269
3374,2,13,-2,-2,-1,-1,-1,-2,0.0419922,0.673828,0.60791,2.1875,0,0.1875,0.85362,-0.0423708,-2.50256
3374,-1,4,14,3,-1,1,-1,-1,0.0419922,0.673828,0.60791,2.1875,0,0.1875,0.85362,-0.0423708,-2.50256
3388,3,44,-8,-4,-6,-1,-2,0,0.0419922,0.673828,0.60791,2.1875,0,0.1875,0.85362,-0.0423708,-2.50256
3388,-3,-13,3,0,-2,-1,1,-1,0.0419922,0.673828,0.60791,2.1875,0,0.1875,0.85362,-0.0423708,-2.50256
3390,-10,-70,-18,-7,-4,-2,0,-3,0.0356445,0.675293,0.602051,1.625,0,0.375,0.854069,-0.0424358,-2.50248
3390,0,-12,-18,5,2,-2,1,1,0.0356445,0.675293,0.602051,1.625,0,0.375,0.854069,-0.0424358,-2.50248
3402,1,28,14,-5,2,0,-1,0,0.0356445,0.675293,0.602051,1.625,0,0.375,0.854069,-0.0424358,-2.50248
3402,-3,-33,0,0,1,-1,-1,0,0.0356445,0.675293,0.602051,1.625,0,0.375,0.854069,-0.0424358,-2.50248
3426,3,34,4,-2,0,-2,1,-1,0.0351562,0.671387,0.591309,1,-0.4375,0.75,0.854288,-0.0426754,-2.50243
3426,-2,-13,-4,-2,1,0,0,0,0.0351562,0.671387,0.591309,1,-0.4375,0.75,0.854288,-0.0426754,-2.50243
3433,0,1,-1,-3,-2,-2,-1,0,0.0351562,0.671387,0.591309,1,-0.4375,0.75,0.854288,-0.0426754,-2.50243
3433,1,-2,-11,0,-1,0,-1,0,0.0351562,0.671387,0.591309,1,-0.4375,0.75,0.854288,-0.0426754,-2.50243
3434,-1,12,8,-1,-3,-1,-3,-2,0.0356445,0.670898,0.599121,-0.625,-0.5625,1.3125,0.853745,-0.0429807,-2.50224
3434,1,24,5,-1,1,-1,-1,0,0.0356445,0.670898,0.599121,-0.625,-0.5625,1.3125,0.853745,-0.0429807,-2.50224
3448,-3,-29,-16,2,0,1,0,-2,0.0356445,0.670898,0.599121,-0.625,-0.5625,1.3125,0.853745,-0.0429807,-2.50224
3448,2,53,19,0,-4,-4,-3,-1,0.0356445,0.670898,0.599121,-0.625,-0.5625,1.3125,0.853745,-0.0429807,-2.50224
3454,-6,-79,-22,-2,-3,0,-2,-1,0.0292969,0.66748,0.60498,0.875,-0.4375,0.9375,0.853634,-0.0429311,-2.50229
3454,0,26,12,-11,-5,-1,-2,0,0.0292969,0.66748,0.60498,0.875,-0.4375,0.9375,0.853634,-0.0429311,-2.50229
3471,-1,4,3,12,4,3,0,-1,0.0292969,0.66748,0.60498,0.875,-0.4375,0.9375,0.853634,-0.0429311,-2.50229
3471,-2,-33,-18,-3,-2,0,-1,-2,0.0292969,0.66748,0.60498,0.875,-0.4375,0.9375,0.853634,-0.0429311,-2.50229
3472,5,47,6,-3,1,0,1,3,0.0429688,0.67627,0.600586,3.0625,0.0625,0.1875,0.854491,-0.0430262,-2.50212
3472,-3,-64,-12,-1,-3,-3,0,-2,0.0429688,0.67627,0.600586,3.0625,0.0625,0.1875,0.854491,-0.0430262,-2.50212
3493,6,4,9,0,1,-2,1,4,0.0429688,0.67627,0.600586,3.0625,0.0625,0.1875,0.854491,-0.0430262,-2.50212
3493,-5,-6,-16,-1,-1,1,-1,-1,0.0429688,0.67627,0.600586,3.0625,0.0625,0.1875,0.854491,-0.0430262,-2.50212
3494,-7,31,14,2,-3,1,0,-1,0.0375977,0.689453,0.594238,1.25,0.3125,0.875,0.855028,-0.0432035,-2.50181
3494,-3,-12,-5,-2,-5,-3,-3,-6,0.0375977,0.689453,0.594238,1.25,0.3125,0.875,0.855028,-0.0432035,-2.50181
3508,-3,34,-2,-5,-2,-3,-2,-3,0.0375977,0.689453,0.594238,1.25,0.3125,0.875,0.855028,-0.0432035,-2.50181
3508,-5,-52,-14,-5,-1,-4,-2,-1,0.0375977,0.689453,0.594238,1.25,0.3125,0.875,0.855028,-0.0432035,-2.50181
3510,-3,-2,-8,-1,1,-3,0,-2,0.0380859,0.672852,0.601562,-0.625,-0.625,1,0.854473,-0.0436003,-2.50175
3510,2,-11,20,3,3,0,0,1,0.0380859,0.672852,0.601562,-0.625,-0.625,1,0.854473,-0.0436003,-2.50175
3522,3,11,1,0,-4,-1,-1,0,0.0380859,0.672852,0.601562,-0.625,-0.625,1,0.854473,-0.0436003,-2.50175
3522,0,-9,-3,2,3,3,2,0,0.0380859,0.672852,0.601562,-0.625,-0.625,1,0.854473,-0.0436003,-2.50175
3547,-1,-8,-8,-4,-5,-2,-1,-1,0.0458984,0.669434,0.598145,1.1875,-0.25,0.4375,0.854691,-0.0438399,-2.5017
3547,0,5,-1,5,1,1,1,3,0.0458984,0.669434,0.598145,1.1875,-0.25,0.4375,0.854691,-0.0438399,-2.5017
3548,-5,-28,-8,-8,-3,-3,-3,-4,0.0458984,0.669434,0.598145,1.1875,-0.25,0.4375,0.854691,-0.0438399,-2.5017
3548,2,5,12,3,-1,0,0,1,0.0458984,0.669434,0.598145,1.1875,-0.25,0.4375,0.854691,-0.0438399,-2.5017
3552,11,49,7,4,2,1,0,1,0.0361328,0.671875,0.59375,3.1875,0,1.25,0.855624,-0.0441391,-2.50144
3552,-6,10,-5,-2,0,0,-2,-4,0.0361328,0.671875,0.59375,3.1875,0,1.25,0.855624,-0.0441391,-2.50144
3568,-2,-22,-5,-1,-1,-2,-2,-1,0.0361328,0.671875,0.59375,3.1875,0,1.25,0.855624,-0.0441391,-2.50144
3568,-5,7,-9,-4,-1,-4,0,-3,0.0361328,0.671875,0.59375,3.1875,0,1.25,0.855624,-0.0441391,-2.50144
3570,2,-8,8,2,1,-3,0,1,0.0283203,0.677734,0.60498,0.4375,-0.9375,0.6875,0.855482,-0.0441031,-2.50139
3570,3,27,13,1,-2,-1,-1,1,0.0283203,0.677734,0.60498,0.4375,-0.9375,0.6875,0.855482,-0.0441031,-2.50139
3582,-2,13,-1,-4,-3,-1,-2,-1,0.0283203,0.677734,0.60498,0.4375,-0.9375,0.6875,0.855482,-0.0441031,-2.50139
3582,2,3,15,4,1,0,-1,-1,0.0283203,0.677734,0.60498,0.4375,-0.9375,0.6875,0.855482,-0.0441031,-2.50139
3607,-1,15,-1,-2,-5,-1,-1,-1,0.0458984,0.67334,0.603516,0.6875,-1.125,0.25,0.85548,-0.0445461,-2.5017
3607,4,-13,-15,0,1,-2,0,2,0.0458984,0.67334,0.603516,0.6875,-1.125,0.25,0.85548,-0.0445461,-2.5017
3608,-5,16,9,2,0,-2,-1,-1,0.0458984,0.67334,0.603516,0.6875,-1.125,0.25,0.85548,-0.0445461,-2.5017
3608,-1,-41,-10,-2,-3,0,-2,0,0.0458984,0.67334,0.603516,0.6875,-1.125,0.25,0.85548,-0.0445461,-2.5017
3611,-8,-36,-4,-6,-1,-1,-4,-3,0.0405273,0.674316,0.599121,1.5,-1.1875,1.6875,0.855694,-0.0452488,-2.50155
3611,0,4,0,1,-2,-2,0,1,0.0405273,0.674316,0.599121,1.5,-1.1875,1.6875,0.855694,-0.0452488,-2.50155
3628,0,5,24,2,0,0,-1,0,0.0405273,0.674316,0.599121,1.5,-1.1875,1.6875,0.855694,-0.0452488,-2.50155
3628,4,27,-20,0,3,-2,-1,0,0.0405273,0.674316,0.599121,1.5,-1.1875,1.6875,0.855694,-0.0452488,-2.50155
3629,2,28,-3,-2,1,-1,0,0,0.0483398,0.673828,0.605469,0.625,-0.4375,0.8125,0.855694,-0.0452488,-2.50155
3629,-2,1,0,-2,-1,-1,-2,0,0.0483398,0.673828,0.605469,0.625,-0.4375,0.8125,0.855694,-0.0452488,-2.50155
3642,-4,-42,-20,-2,0,-1,-1,-4,0.0483398,0.673828,0.605469,0.625,-0.4375,0.8125,0.855694,-0.0452488,-2.50155
3642,-5,4,9,-2,-5,1,-1,-3,0.0483398,0.673828,0.605469,0.625,-0.4375,0.8125,0.855694,-0.0452488,-2.50155
3658,-1,-2,3,0,-1,0,-2,-2,0.0444336,0.674316,0.606934,1.0625,0,0.375,0.855636,-0.0454653,-2.50132
3658,0,19,2,-1,-1,0,-2,-2,0.0444336,0.674316,0.606934,1.0625,0,0.375,0.855636,-0.0454653,-2.50132
3672,4,17,6,3,2,4,1,1,0.0444336,0.674316,0.606934,1.0625,0,0.375,0.855636,-0.0454653,-2.50132
3672,-2,-1,-4,-4,1,-1,-1,1,0.0444336,0.674316,0.606934,1.0625,0,0.375,0.855636,-0.0454653,-2.50132
3674,1,11,15,3,0,-3,0,0,0.0380859,0.67627,0.598633,2.5625,0.875,1.3125,0.85627,-0.0454817,-2.50085
3674,-5,-14,-30,-5,0,1,2,-3,0.0380859,0.67627,0.598633,2.5625,0.875,1.3125,0.85627,-0.0454817,-2.50085
3688,-2,-11,9,-3,-2,-2,-1,-2,0.0380859,0.67627,0.598633,2.5625,0.875,1.3125,0.85627,-0.0454817,-2.50085
3688,0,-16,6,5,1,0,-1,0,0.0380859,0.67627,0.598633,2.5625,0.875,1.3125,0.85627,-0.0454817,-2.50085
3689,1,-12,-1,-1,-1,-1,-1,-2,0.0351562,0.678711,0.601074,1.25,0.875,1.3125,0.856472,-0.0455304,-2.50029
3689,-1,10,-4,-4,-1,-4,-2,-3,0.0351562,0.678711,0.601074,1.25,0.875,1.3125,0.856472,-0.0455304,-2.50029
3702,-1,-14,-3,-3,0,0,0,-1,0.0351562,0.678711,0.601074,1.25,0.875,1.3125,0.856472,-0.0455304,-2.50029
3702,1,13,0,0,1,-1,1,2,0.0351562,0.678711,0.601074,1.25,0.875,1.3125,0.856472,-0.0455304,-2.50029
3718,0,12,4,-4,-1,-1,0,0,0.0444336,0.667969,0.594727,-0.0625,0,1.4375,0.856058,-0.0459828,-2.49988
3718,-1,-14,0,0,-1,0,-1,-2,0.0444336,0.667969,0.594727,-0.0625,0,1.4375,0.856058,-0.0459828,-2.49988
3726,2,20,18,3,-2,-3,-1,1,0.0444336,0.667969,0.594727,-0.0625,0,1.4375,0.856058,-0.0459828,-2.49988
3726,3,16,-33,2,3,2,0,-2,0.0444336,0.667969,0.594727,-0.0625,0,1.4375,0.856058,-0.0459828,-2.49988
3728,-4,-23,9,1,-1,0,-2,-2,0.043457,0.669434,0.595215,-0.0625,-0.25,1.5625,0.855818,-0.0464576,-2.49961
3728,-2,32,5,-6,-5,-4,-2,-2,0.043457,0.669434,0.595215,-0.0625,-0.25,1.5625,0.855818,-0.0464576,-2.49961
3755,-9,-73,-36,-6,-4,-4,-1,-4,0.043457,0.669434,0.595215,-0.0625,-0.25,1.5625,0.855818,-0.0464576,-2.49961
3755,2,20,22,-1,-5,-2,-2,2,0.043457,0.669434,0.595215,-0.0625,-0.25,1.5625,0.855818,-0.0464576,-2.49961
3757,-4,-1,-10,1,-2,-3,-1,0,0.0463867,0.681152,0.598145,2.25,-0.125,0.375,0.856445,-0.0467282,-2.49948
3757,1,15,-1,8,1,1,2,0,0.0463867,0.681152,0.598145,2.25,-0.125,0.375,0.856445,-0.0467282,-2.49948
3770,3,21,3,-4,-3,-1,0,0,0.0463867,0.681152,0.598145,2.25,-0.125,0.375,0.856445,-0.0467282,-2.49948
3770,-3,-29,-6,1,-3,-3,-2,-2,0.0463867,0.681152,0.598145,2.25,-0.125,0.375,0.856445,-0.0467282,-2.49948
3772,-2,-12,-4,-3,0,0,-2,-4,0.0424805,0.68457,0.603516,1.1875,0.0625,-0.4375,0.856766,-0.0466465,-2.49962
3772,0,6,14,1,0,0,-3,-2,0.0424805,0.68457,0.603516,1.1875,0.0625,-0.4375,0.856766,-0.0466465,-2.49962
3800,-1,6,-13,-3,-2,-1,-2,-1,0.0424805,0.68457,0.603516,1.1875,0.0625,-0.4375,0.856766,-0.0466465,-2.49962
3800,0,-2,-3,-4,0,0,-1,-1,0.0424805,0.68457,0.603516,1.1875,0.0625,-0.4375,0.856766,-0.0466465,-2.49962
3816,3,8,4,0,-1,1,0,1,0.0400391,0.681641,0.59375,0.9375,-0.1875,-0.6875,0.856623,-0.0466103,-2.49957
3816,0,11,13,5,3,-1,-2,-3,0.0400391,0.681641,0.59375,0.9375,-0.1875,-0.6875,0.856623,-0.0466103,-2.49957
3817,-4,-57,-37,-1,3,0,0,-2,0.0400391,0.681641,0.59375,0.9375,-0.1875,-0.6875,0.856623,-0.0466103,-2.49957
3817,2,23,10,-2,-3,-1,-2,-2,0.0400391,0.681641,0.59375,0.9375,-0.1875,-0.6875,0.856623,-0.0466103,-2.49957
3839,-3,-27,1,-1,-2,-2,-2,-1,0.0439453,0.685547,0.599121,1.25,-0.25,-0.625,0.857046,-0.0465294,-2.49974
3839,0,-8,1,-1,-2,0,0,1,0.0439453,0.685547,0.599121,1.25,-0.25,-0.625,0.857046,-0.0465294,-2.49974
3839,-2,-6,-13,-4,-2,-2,-1,-2,0.0439453,0.685547,0.599121,1.25,-0.25,-0.625,0.857046,-0.0465294,-2.49974
3839,0,14,18,4,1,-2,0,0,0.0439453,0.685547,0.599121,1.25,-0.25,-0.625,0.857046,-0.0465294,-2.49974
3840,-3,-26,-13,-4,2,-1,1,-1,0.0454102,0.66748,0.600586,-0.6875,-0.25,0,0.856891,-0.0465847,-2.49983
3840,0,14,-2,2,-2,-1,1,1,0.0454102,0.66748,0.600586,-0.6875,-0.25,0,0.856891,-0.0465847,-2.49983
3846,-1,-7,17,1,-1,-1,-1,1,0.0454102,0.66748,0.600586,-0.6875,-0.25,0,0.856891,-0.0465847,-2.49983
3846,-2,-18,-14,-5,-3,-2,-1,-3,0.0454102,0.66748,0.600586,-0.6875,-0.25,0,0.856891,-0.0465847,-2.49983
3847,0,10,-11,-2,-1,0,-1,-1,0.0400391,0.662598,0.604004,0.125,0.1875,0.125,0.856757,-0.0465975,-2.4997
3847,4,-15,5,-1,-1,2,0,2,0.0400391,0.662598,0.604004,0.125,0.1875,0.125,0.856757,-0.0465975,-2.4997
3869,-6,22,7,3,-1,0,0,-3,0.0400391,0.662598,0.604004,0.125,0.1875,0.125,0.856757,-0.0465975,-2.4997
3869,0,-11,6,3,-3,-3,-1,1,0.0400391,0.662598,0.604004,0.125,0.1875,0.125,0.856757,-0.0465975,-2.4997
3870,-5,-28,-8,2,2,0,-2,-4,0.0454102,0.665527,0.601074,2.3125,1,-0.375,0.857143,-0.0463682,-2.49958
3870,2,6,3,-5,-4,-2,1,0,0.0454102,0.665527,0.601074,2.3125,1,-0.375,0.857143,-0.0463682,-2.49958
3890,3,-7,-10,3,1,-2,-1,0,0.0454102,0.665527,0.601074,2.3125,1,-0.375,0.857143,-0.0463682,-2.49958
3890,-4,0,8,-5,-2,-1,0,-2,0.0454102,0.665527,0.601074,2.3125,1,-0.375,0.857143,-0.0463682,-2.49958
3891,2,23,-5,-3,-1,-2,-1,1,0.0449219,0.67627,0.609375,2.9375,1.5625,-0.0625,0.857714,-0.0460903,-2.49907
3891,-7,-15,7,0,0,-1,-2,-3,0.0449219,0.67627,0.609375,2.9375,1.5625,-0.0625,0.857714,-0.0460903,-2.49907
3906,-1,4,-1,-4,-2,0,-1,-2,0.0449219,0.67627,0.609375,2.9375,1.5625,-0.0625,0.857714,-0.0460903,-2.49907
3906,1,9,-2,-1,-1,0,-1,0,0.0449219,0.67627,0.609375,2.9375,1.5625,-0.0625,0.857714,-0.0460903,-2.49907
3907,2,19,15,3,-1,2,0,0,0.0429688,0.682617,0.594238,1.0625,1.5,0,0.858011,-0.0457689,-2.49878
3907,2,-16,-15,-7,-3,-2,0,-2,0.0429688,0.682617,0.594238,1.0625,1.5,0,0.858011,-0.0457689,-2.49878
3928,4,40,0,0,-2,-3,-1,1,0.0429688,0.682617,0.594238,1.0625,1.5,0,0.858011,-0.0457689,-2.49878
3928,-8,-35,-2,-5,-1,-2,-3,-5,0.0429688,0.682617,0.594238,1.0625,1.5,0,0.858011,-0.0457689,-2.49878
3929,2,-7,-10,-4,-2,-5,0,0,0.046875,0.674805,0.600098,0.0625,1.5625,0,0.857742,-0.0454921,-2.49827
3929,-3,-12,-3,4,1,-1,0,1,0.046875,0.674805,0.600098,0.0625,1.5625,0,0.857742,-0.0454921,-2.49827
3951,1,18,1,0,1,1,-1,0,0.046875,0.674805,0.600098,0.0625,1.5625,0,0.857742,-0.0454921,-2.49827
3951,2,25,20,0,-3,-2,0,-1,0.046875,0.674805,0.600098,0.0625,1.5625,0,0.857742,-0.0454921,-2.49827
3952,-2,3,15,2,0,3,-1,0,0.043457,0.662598,0.597168,0.6875,1.5625,0.1875,0.85743,-0.0453203,-2.49779
3952,-3,-11,-23,-1,-1,0,-2,-2,0.043457,0.662598,0.597168,0.6875,1.5625,0.1875,0.85743,-0.0453203,-2.49779
3973,1,5,-3,-7,-3,-1,-1,-3,0.043457,0.662598,0.597168,0.6875,1.5625,0.1875,0.85743,-0.0453203,-2.49779
3973,0,5,-9,-2,1,-1,-1,1,0.043457,0.662598,0.597168,0.6875,1.5625,0.1875,0.85743,-0.0453203,-2.49779
3974,-1,10,12,-1,-1,-3,-1,-1,0.0439453,0.67627,0.601562,1.4375,2.4375,-0.625,0.857727,-0.0446967,-2.49725
3974,-10,-47,-24,-6,0,-2,0,-2,0.0439453,0.67627,0.601562,1.4375,2.4375,-0.625,0.857727,-0.0446967,-2.49725
3996,1,7,12,3,3,-1,0,2,0.0439453,0.67627,0.601562,1.4375,2.4375,-0.625,0.857727,-0.0446967,-2.49725
3996,3,5,-2,-1,-1,1,1,0,0.0439453,0.67627,0.601562,1.4375,2.4375,-0.625,0.857727,-0.0446967,-2.49725
4002,2,3,-6,-1,-4,-3,-2,0,0.0322266,0.681152,0.589844,3.125,1.6875,-0.5625,0.858704,-0.0439389,-2.49684
4002,2,14,10,0,0,0,-1,0,0.0322266,0.681152,0.589844,3.125,1.6875,-0.5625,0.858704,-0.0439389,-2.49684
4027,-3,-2,7,2,-3,-2,-1,-3,0.0322266,0.681152,0.589844,3.125,1.6875,-0.5625,0.858704,-0.0439389,-2.49684
4027,-1,5,-6,-1,0,0,-1,-1,0.0322266,0.681152,0.589844,3.125,1.6875,-0.5625,0.858704,-0.0439389,-2.49684
4028,-1,-6,-6,-1,-1,-1,-1,-1,0.0371094,0.685547,0.59375,1.3125,1.25,-1.1875,0.85902,-0.043366,-2.49676
4028,0,-6,2,0,1,-1,0,1,0.0371094,0.685547,0.59375,1.3125,1.25,-1.1875,0.85902,-0.043366,-2.49676
4029,0,-5,-2,-3,-2,-2,-1,1,0.0371094,0.685547,0.59375,1.3125,1.25,-1.1875,0.85902,-0.043366,-2.49676
4029,1,7,0,3,-1,-1,-1,0,0.0371094,0.685547,0.59375,1.3125,1.25,-1.1875,0.85902,-0.043366,-2.49676
4033,1,27,1,5,-1,-1,0,1,0.0395508,0.683105,0.600098,-0.0625,0.6875,-0.9375,0.859052,-0.0433521,-2.49686
4033,-4,-24,-19,-4,-3,-3,-2,-5,0.0395508,0.683105,0.600098,-0.0625,0.6875,-0.9375,0.859052,-0.0433521,-2.49686
4048,-6,-10,13,-2,-2,-3,-2,-4,0.0395508,0.683105,0.600098,-0.0625,0.6875,-0.9375,0.859052,-0.0433521,-2.49686
4048,3,14,-3,-2,0,0,-1,0,0.0395508,0.683105,0.600098,-0.0625,0.6875,-0.9375,0.859052,-0.0433521,-2.49686
4050,-6,-12,-3,0,1,-2,-3,-2,0.0371094,0.68457,0.592773,-1,0.375,-1.25,0.858759,-0.0429078,-2.497
4050,2,7,12,-3,-3,0,-1,0,0.0371094,0.68457,0.592773,-1,0.375,-1.25,0.858759,-0.0429078,-2.497
4070,3,5,-5,-2,-2,2,0,0,0.0371094,0.68457,0.592773,-1,0.375,-1.25,0.858759,-0.0429078,-2.497
4070,-1,13,3,-3,-2,0,1,-2,0.0371094,0.68457,0.592773,-1,0.375,-1.25,0.858759,-0.0429078,-2.497
4072,-1,-17,-9,-2,-2,-1,1,-2,0.0375977,0.675781,0.586914,-0.1875,0.125,-1.875,0.858626,-0.0422477,-2.4974
4072,2,14,7,1,-1,0,-1,2,0.0375977,0.675781,0.586914,-0.1875,0.125,-1.875,0.858626,-0.0422477,-2.4974
4085,-2,7,1,2,-1,-2,0,-2,0.0375977,0.675781,0.586914,-0.1875,0.125,-1.875,0.858626,-0.0422477,-2.4974
4085,-6,-56,-6,-2,-1,-3,-2,0,0.0375977,0.675781,0.586914,-0.1875,0.125,-1.875,0.858626,-0.0422477,-2.4974
4101,-3,8,1,0,-2,-1,-1,-2,0.0341797,0.681152,0.597168,2.0625,0.4375,-2,0.859089,-0.04155,-2.49772
4101,-1,11,4,0,0,-3,-2,-1,0.0341797,0.681152,0.597168,2.0625,0.4375,-2,0.859089,-0.04155,-2.49772
4116,1,28,5,0,0,-1,1,-1,0.0341797,0.681152,0.597168,2.0625,0.4375,-2,0.859089,-0.04155,-2.49772
4116,-9,-70,-27,-7,-2,-3,-4,-6,0.0341797,0.681152,0.597168,2.0625,0.4375,-2,0.859089,-0.04155,-2.49772
4117,-1,3,-14,-4,-1,-1,-1,0,0.0341797,0.678223,0.595703,1.8125,0.6875,-2.0625,0.859607,-0.0407962,-2.49791
4117,-1,-4,14,-1,-1,0,-1,-2,0.0341797,0.678223,0.595703,1.8125,0.6875,-2.0625,0.859607,-0.0407962,-2.49791
4130,4,25,1,4,1,0,0,2,0.0341797,0.678223,0.595703,1.8125,0.6875,-2.0625,0.859607,-0.0407962,-2.49791
4130,-2,1,1,-1,-1,1,1,0,0.0341797,0.678223,0.595703,1.8125,0.6875,-2.0625,0.859607,-0.0407962,-2.49791
4132,-1,-17,-4,-1,-1,-1,0,-3,0.0322266,0.672852,0.597168,-0.4375,0.375,-2.125,0.859077,-0.0400139,-2.49827
4132,-3,-1,-14,-5,-1,-1,1,1,0.0322266,0.672852,0.597168,-0.4375,0.375,-2.125,0.859077,-0.0400139,-2.49827
4145,1,-2,17,3,-1,-1,-1,0,0.0322266,0.672852,0.597168,-0.4375,0.375,-2.125,0.859077,-0.0400139,-2.49827
4145,3,25,7,4,0,1,1,1,0.0322266,0.672852,0.597168,-0.4375,0.375,-2.125,0.859077,-0.0400139,-2.49827
4152,4,32,17,2,0,0,-1,0,0.0351562,0.674805,0.602051,-0.4375,0.5,-2.25,0.858655,-0.0394219,-2.49863
4152,-5,-39,-17,-8,-4,-2,-2,-3,0.0351562,0.674805,0.602051,-0.4375,0.5,-2.25,0.858655,-0.0394219,-2.49863
4168,-5,-14,4,-4,-2,-1,-2,-1,0.0351562,0.674805,0.602051,-0.4375,0.5,-2.25,0.858655,-0.0394219,-2.49863
4168,0,12,-9,3,1,-3,-1,0,0.0351562,0.674805,0.602051,-0.4375,0.5,-2.25,0.858655,-0.0394219,-2.49863
4169,0,-9,8,-1,-3,1,-1,-1,0.0400391,0.675293,0.612305,1.1875,1.375,-1.5625,0.858465,-0.0386766,-2.49856
4169,3,24,3,6,0,-2,-3,-1,0.0400391,0.675293,0.612305,1.1875,1.375,-1.5625,0.858465,-0.0386766,-2.49856
4191,0,-6,7,-2,-1,-3,-1,-1,0.0400391,0.675293,0.612305,1.1875,1.375,-1.5625,0.858465,-0.0386766,-2.49856
4191,-2,-22,-23,-4,0,-1,0,0,0.0400391,0.675293,0.612305,1.1875,1.375,-1.5625,0.858465,-0.0386766,-2.49856
4193,3,6,-1,-3,0,1,1,5,0.0317383,0.674316,0.603027,0.25,1.875,-2,0.858208,-0.0377763,-2.49849
4193,-6,-1,3,4,0,-2,0,-5,0.0317383,0.674316,0.603027,0.25,1.875,-2,0.858208,-0.0377763,-2.49849
4212,-4,-26,-21,-4,-1,-1,-2,-2,0.0317383,0.674316,0.603027,0.25,1.875,-2,0.858208,-0.0377763,-2.49849
4212,3,37,34,2,-1,0,-3,-1,0.0317383,0.674316,0.603027,0.25,1.875,-2,0.858208,-0.0377763,-2.49849
4214,-1,17,-7,-5,-4,-3,-1,0,0.0268555,0.671875,0.595703,-0.5625,1.125,-2,0.857778,-0.0368333,-2.49869
4214,-2,-25,-14,-2,-2,-1,-4,-1,0.0268555,0.671875,0.595703,-0.5625,1.125,-2,0.857778,-0.0368333,-2.49869
4236,-1,-3,2,-3,-1,-4,-2,1,0.0268555,0.671875,0.595703,-0.5625,1.125,-2,0.857778,-0.0368333,-2.49869
4236,0,45,16,4,0,-2,1,-1,0.0268555,0.671875,0.595703,-0.5625,1.125,-2,0.857778,-0.0368333,-2.49869
4237,-7,-69,-38,-8,0,-3,-2,-4,0.0332031,0.660645,0.597168,0.9375,1.0625,-1.625,0.857576,-0.0361791,-2.49875
4237,4,46,15,2,-2,0,-2,1,0.0332031,0.660645,0.597168,0.9375,1.0625,-1.625,0.857576,-0.0361791,-2.49875
4258,-6,-27,-1,-2,0,1,-2,-1,0.0332031,0.660645,0.597168,0.9375,1.0625,-1.625,0.857576,-0.0361791,-2.49875
4258,1,18,-4,-4,-3,0,-1,-1,0.0332031,0.660645,0.597168,0.9375,1.0625,-1.625,0.857576,-0.0361791,-2.49875
4260,2,7,9,1,1,-2,-1,0,0.0297852,0.668457,0.598145,1,1.3125,-0.9375,0.857648,-0.0355688,-2.4986
4260,-5,-29,-3,-3,-1,1,-2,-5,0.0297852,0.668457,0.598145,1,1.3125,-0.9375,0.857648,-0.0355688,-2.4986
4265,2,7,-8,0,0,1,-1,0,0.0297852,0.668457,0.598145,1,1.3125,-0.9375,0.857648,-0.0355688,-2.4986
4265,-3,-31,-4,1,0,-1,0,-2,0.0297852,0.668457,0.598145,1,1.3125,-0.9375,0.857648,-0.0355688,-2.4986
4271,-2,20,12,1,-3,-1,-1,-1,0.0268555,0.664062,0.602051,1.375,1,-0.5,0.857543,-0.0350765,-2.49835
4271,3,-2,-10,-1,0,0,0,1,0.0268555,0.664062,0.602051,1.375,1,-0.5,0.857543,-0.0350765,-2.49835
4287,2,14,0,-7,-1,-1,-2,-2,0.0268555,0.664062,0.602051,1.375,1,-0.5,0.857543,-0.0350765,-2.49835
4287,1,-27,-4,-4,-6,-3,-1,-1,0.0268555,0.664062,0.602051,1.375,1,-0.5,0.857543,-0.0350765,-2.49835
4303,2,5,-22,4,3,2,1,0,0.0263672,0.657227,0.601074,0.4375,0.8125,-0.625,0.857433,-0.0350264,-2.4984
4303,0,25,18,-1,0,-1,-1,2,0.0263672,0.657227,0.601074,0.4375,0.8125,-0.625,0.857433,-0.0350264,-2.4984
4311,-1,-24,-1,3,1,-1,-1,1,0.0263672,0.657227,0.601074,0.4375,0.8125,-0.625,0.857433,-0.0350264,-2.4984
4311,1,14,0,-1,0,-1,-1,0,0.0263672,0.657227,0.601074,0.4375,0.8125,-0.625,0.857433,-0.0350264,-2.4984
4312,-2,-5,-7,-2,0,-1,-1,-2,0.0263672,0.668945,0.596191,2.4375,1.0625,0.875,0.857973,-0.0349029,-2.49784
4312,0,3,-5,-6,-2,0,-2,0,0.0263672,0.668945,0.596191,2.4375,1.0625,0.875,0.857973,-0.0349029,-2.49784
4324,0,31,5,3,1,0,-2,-1,0.0263672,0.668945,0.596191,2.4375,1.0625,0.875,0.857973,-0.0349029,-2.49784
4324,-2,12,7,-3,2,0,0,-1,0.0263672,0.668945,0.596191,2.4375,1.0625,0.875,0.857973,-0.0349029,-2.49784
4333,-5,-30,-7,-2,-3,-4,0,-3,0.0288086,0.67627,0.597656,1.5,0.8125,1.25,0.858124,-0.0350087,-2.4974
4333,-2,1,-3,1,-1,-3,0,1,0.0288086,0.67627,0.597656,1.5,0.8125,1.25,0.858124,-0.0350087,-2.4974
4348,0,-3,2,0,0,1,2,-1,0.0288086,0.67627,0.597656,1.5,0.8125,1.25,0.858124,-0.0350087,-2.4974
4348,-2,4,4,3,-1,-2,-2,-2,0.0288086,0.67627,0.597656,1.5,0.8125,1.25,0.858124,-0.0350087,-2.4974
4350,5,19,9,2,-2,-1,-2,1,0.0336914,0.674316,0.604004,1.5625,0.25,1,0.858373,-0.0352557,-2.49705
4350,-3,7,9,3,0,-1,1,-3,0.0336914,0.674316,0.604004,1.5625,0.25,1,0.858373,-0.0352557,-2.49705
4370,-2,-15,-19,-4,-2,-1,-1,-2,0.0336914,0.674316,0.604004,1.5625,0.25,1,0.858373,-0.0352557,-2.49705
4370,0,7,-10,-1,0,0,-2,0,0.0336914,0.674316,0.604004,1.5625,0.25,1,0.858373,-0.0352557,-2.49705
4372,-1,46,41,2,0,-2,-3,-2,0.0297852,0.678711,0.593262,2.4375,0.1875,0.875,0.858957,-0.0353302,-2.4967
4372,-4,-68,-44,-5,-1,0,1,-1,0.0297852,0.678711,0.593262,2.4375,0.1875,0.875,0.858957,-0.0353302,-2.4967
4393,2,12,-1,-2,1,-1,-1,-2,0.0297852,0.678711,0.593262,2.4375,0.1875,0.875,0.858957,-0.0353302,-2.4967
4393,0,-19,-5,-4,-2,2,0,0,0.0297852,0.678711,0.593262,2.4375,0.1875,0.875,0.858957,-0.0353302,-2.4967
4395,-2,3,-1,1,-3,-3,-1,-2,0.0268555,0.676758,0.592773,2.25,-0.5,0.6875,0.859606,-0.0355389,-2.49674
4395,3,9,13,1,-1,-3,-1,1,0.0268555,0.676758,0.592773,2.25,-0.5,0.6875,0.859606,-0.0355389,-2.49674
4415,0,-3,-1,1,-1,-1,1,2,0.0268555,0.676758,0.592773,2.25,-0.5,0.6875,0.859606,-0.0355389,-2.49674
4415,-4,-4,-13,-4,-3,-1,-1,-4,0.0268555,0.676758,0.592773,2.25,-0.5,0.6875,0.859606,-0.0355389,-2.49674
4417,0,14,9,1,-2,-1,-3,-1,0.0268555,0.681641,0.588867,-0.625,-1.1875,0,0.859396,-0.0356497,-2.49695
4417,-2,-2,-2,-3,-4,-4,-2,-3,0.0268555,0.681641,0.588867,-0.625,-1.1875,0,0.859396,-0.0356497,-2.49695
4438,-2,-25,-10,-3,-2,0,-1,-2,0.0268555,0.681641,0.588867,-0.625,-1.1875,0,0.859396,-0.0356497,-2.49695
4438,0,8,-4,0,-1,0,-1,-3,0.0268555,0.681641,0.588867,-0.625,-1.1875,0,0.859396,-0.0356497,-2.49695
4439,2,-14,11,-5,-1,1,-1,0,0.0336914,0.673828,0.599609,0.5,-1.4375,-0.5625,0.859252,-0.0358947,-2.49755
4439,2,10,-28,2,5,1,-1,1,0.0336914,0.673828,0.599609,0.5,-1.4375,-0.5625,0.859252,-0.0358947,-2.49755
4444,-2,15,15,1,-1,-1,-1,1,0.0336914,0.673828,0.599609,0.5,-1.4375,-0.5625,0.859252,-0.0358947,-2.49755
4444,-2,-9,-1,2,-2,-2,-1,-1,0.0336914,0.673828,0.599609,0.5,-1.4375,-0.5625,0.859252,-0.0358947,-2.49755
4461,-1,4,-14,-4,-3,0,1,-1,0.0327148,0.692871,0.600586,2.25,-0.75,-1.1875,0.859941,-0.0357883,-2.49799
4461,6,45,30,3,1,-1,1,1,0.0327148,0.692871,0.600586,2.25,-0.75,-1.1875,0.859941,-0.0357883,-2.49799
4468,-2,-47,-50,-5,-3,-2,-1,-3,0.0327148,0.692871,0.600586,2.25,-0.75,-1.1875,0.859941,-0.0357883,-2.49799
4468,-1,-1,9,0,1,-1,1,1,0.0327148,0.692871,0.600586,2.25,-0.75,-1.1875,0.859941,-0.0357883,-2.49799
4469,-6,-41,-11,-3,-1,-7,-4,-2,0.0288086,0.689941,0.600586,0.25,-0.8125,-0.8125,0.859941,-0.0357883,-2.49799
4469,2,18,19,1,-2,3,4,0,0.0288086,0.689941,0.600586,0.25,-0.8125,-0.8125,0.859941,-0.0357883,-2.49799
4490,-1,11,2,3,1,2,-3,-2,0.0288086,0.689941,0.600586,0.25,-0.8125,-0.8125,0.859941,-0.0357883,-2.49799
4490,-2,-1,-3,-1,-2,-3,-1,-2,0.0288086,0.689941,0.600586,0.25,-0.8125,-0.8125,0.859941,-0.0357883,-2.49799
4492,5,9,-7,2,1,5,-1,0,0.0288086,0.666016,0.599121,-1.0625,-0.6875,-0.4375,0.859081,-0.035691,-2.49816
4492,-5,9,9,0,-2,-3,-2,0,0.0288086,0.666016,0.599121,-1.0625,-0.6875,-0.4375,0.859081,-0.035691,-2.49816
4504,-1,-19,-6,-2,-2,-4,-1,-1,0.0288086,0.666016,0.599121,-1.0625,-0.6875,-0.4375,0.859081,-0.035691,-2.49816
4504,0,-18,0,-6,0,0,1,1,0.0288086,0.666016,0.599121,-1.0625,-0.6875,-0.4375,0.859081,-0.035691,-2.49816
4513,-1,-13,-14,4,0,-2,-1,0,0.0307617,0.674316,0.606445,0.25,0.8125,-0.125,0.859081,-0.035691,-2.49816
4513,1,2,-2,-2,2,-2,-2,1,0.0307617,0.674316,0.606445,0.25,0.8125,-0.125,0.859081,-0.035691,-2.49816
4535,-2,10,10,-3,1,-2,0,-1,0.0307617,0.674316,0.606445,0.25,0.8125,-0.125,0.859081,-0.035691,-2.49816
4535,1,-31,-3,0,-2,-3,-2,0,0.0307617,0.674316,0.606445,0.25,0.8125,-0.125,0.859081,-0.035691,-2.49816
4536,-1,26,3,1,1,-1,0,-2,0.0244141,0.665527,0.598145,1.375,0.8125,0.25,0.859083,-0.0353887,-2.49791
4536,6,7,4,1,-2,3,-1,0,0.0244141,0.665527,0.598145,1.375,0.8125,0.25,0.859083,-0.0353887,-2.49791
4557,-3,37,17,-2,-3,0,0,-2,0.0244141,0.665527,0.598145,1.375,0.8125,0.25,0.859083,-0.0353887,-2.49791
4557,-3,-18,-17,-2,1,5,0,0,0.0244141,0.665527,0.598145,1.375,0.8125,0.25,0.859083,-0.0353887,-2.49791
4559,-11,-57,-25,-10,-6,-3,-4,-6,0.0292969,0.658691,0.605957,1,1.125,0.0625,0.858621,-0.0351324,-2.49748
4559,0,16,9,1,0,-2,-1,-1,0.0292969,0.658691,0.605957,1,1.125,0.0625,0.858621,-0.0351324,-2.49748
4580,3,6,-7,3,1,-1,1,1,0.0292969,0.658691,0.605957,1,1.125,0.0625,0.858621,-0.0351324,-2.49748
4580,1,55,41,-1,-4,-3,-3,0,0.0292969,0.658691,0.605957,1,1.125,0.0625,0.858621,-0.0351324,-2.49748
4581,0,-53,-5,3,2,1,1,0,0.0327148,0.655273,0.595703,2,0.1875,1.3125,0.858867,-0.0355191,-2.49718
4581,-6,-7,-13,-2,1,-2,-2,-1,0.0327148,0.655273,0.595703,2,0.1875,1.3125,0.858867,-0.0355191,-2.49718
4588,3,8,2,2,-2,-1,-1,0,0.0327148,0.655273,0.595703,2,0.1875,1.3125,0.858867,-0.0355191,-2.49718
4588,1,20,10,1,0,0,-2,0,0.0327148,0.655273,0.595703,2,0.1875,1.3125,0.858867,-0.0355191,-2.49718
4589,3,39,5,-2,-1,0,4,1,0.0288086,0.657227,0.595215,-0.8125,-1.1875,1.9375,0.858095,-0.0361864,-2.49698
4589,-2,-46,-14,-3,-1,-3,-6,0,0.0288086,0.657227,0.595215,-0.8125,-1.1875,1.9375,0.858095,-0.0361864,-2.49698
4610,-9,0,-4,0,-1,-5,-7,-6,0.0288086,0.657227,0.595215,-0.8125,-1.1875,1.9375,0.858095,-0.0361864,-2.49698
4610,-1,4,0,-2,-1,-2,1,1,0.0288086,0.657227,0.595215,-0.8125,-1.1875,1.9375,0.858095,-0.0361864,-2.49698
4612,1,3,-9,-3,-4,-1,-2,-2,0.0332031,0.658691,0.593262,0.125,-2.375,2.4375,0.857727,-0.0373272,-2.497
4612,-4,-9,-3,-6,-4,0,1,-3,0.0332031,0.658691,0.593262,0.125,-2.375,2.4375,0.857727,-0.0373272,-2.497
4625,2,22,10,4,2,1,-1,0,0.0332031,0.658691,0.593262,0.125,-2.375,2.4375,0.857727,-0.0373272,-2.497
4625,-5,-30,-23,0,-1,-2,-3,-1,0.0332031,0.658691,0.593262,0.125,-2.375,2.4375,0.857727,-0.0373272,-2.497
4634,-1,5,8,3,1,-2,-1,1,0.0429688,0.677734,0.602539,3.875,-1.4375,3,0.858595,-0.0386113,-2.49666
4634,3,14,7,-3,-2,-1,-2,0,0.0429688,0.677734,0.602539,3.875,-1.4375,3,0.858595,-0.0386113,-2.49666
4655,-2,-33,-6,-5,-2,0,-1,0,0.0429688,0.677734,0.602539,3.875,-1.4375,3,0.858595,-0.0386113,-2.49666
4655,3,-1,-10,-2,-1,0,0,-4,0.0429688,0.677734,0.602539,3.875,-1.4375,3,0.858595,-0.0386113,-2.49666
4658,-5,16,14,3,2,2,1,1,0.0361328,0.694336,0.597656,3.5625,-0.8125,4,0.859835,-0.0399189,-2.49598
4658,0,-2,-18,-4,-2,-1,0,-1,0.0361328,0.694336,0.597656,3.5625,-0.8125,4,0.859835,-0.0399189,-2.49598
4671,-1,-1,12,-5,-4,-2,0,0,0.0361328,0.694336,0.597656,3.5625,-0.8125,4,0.859835,-0.0399189,-2.49598
4671,5,47,12,1,0,0,-2,1,0.0361328,0.694336,0.597656,3.5625,-0.8125,4,0.859835,-0.0399189,-2.49598
4672,-10,-78,-28,-5,-4,-5,-5,-7,0.0356445,0.682129,0.592285,-0.0625,-1.1875,4.25,0.859793,-0.0412091,-2.49531
4672,-1,-15,-19,3,1,1,0,1,0.0356445,0.682129,0.592285,-0.0625,-1.1875,4.25,0.859793,-0.0412091,-2.49531
4693,1,10,8,1,-2,0,-1,-1,0.0356445,0.682129,0.592285,-0.0625,-1.1875,4.25,0.859793,-0.0412091,-2.49531
4693,-1,-4,-4,-4,-3,-2,0,0,0.0356445,0.682129,0.592285,-0.0625,-1.1875,4.25,0.859793,-0.0412091,-2.49531
4694,2,27,11,-3,0,0,0,-2,0.0380859,0.675781,0.59082,0.3125,-1,4.375,0.859715,-0.0426533,-2.49458
4694,-4,26,14,4,1,1,0,0,0.0380859,0.675781,0.59082,0.3125,-1,4.375,0.859715,-0.0426533,-2.49458
4716,2,-49,-10,-4,0,0,3,3,0.0380859,0.675781,0.59082,0.3125,-1,4.375,0.859715,-0.0426533,-2.49458
4716,-6,21,4,3,-1,-1,-1,-3,0.0380859,0.675781,0.59082,0.3125,-1,4.375,0.859715,-0.0426533,-2.49458
4717,0,-10,-18,-5,-3,-1,-2,-3,0.0400391,0.67627,0.595703,-0.1875,-0.5625,3.625,0.859321,-0.0437155,-2.49382
4717,-2,-10,9,-1,-2,0,0,-3,0.0400391,0.67627,0.595703,-0.1875,-0.5625,3.625,0.859321,-0.0437155,-2.49382
4738,1,26,-11,2,1,-1,-1,-1,0.0400391,0.67627,0.595703,-0.1875,-0.5625,3.625,0.859321,-0.0437155,-2.49382
4738,0,-31,-18,8,4,0,0,1,0.0400391,0.67627,0.595703,-0.1875,-0.5625,3.625,0.859321,-0.0437155,-2.49382
4745,1,23,22,-1,-1,0,-2,1,0.0390625,0.682617,0.600098,3.125,-0.5,3,0.860223,-0.0446853,-2.49334
4745,-2,18,8,-6,-4,0,-2,-2,0.0390625,0.682617,0.600098,3.125,-0.5,3,0.860223,-0.0446853,-2.49334
4745,1,-4,-16,-4,-5,-1,-1,-2,0.0390625,0.682617,0.600098,3.125,-0.5,3,0.860223,-0.0446853,-2.49334
4745,-4,-15,0,-2,-1,0,0,-1,0.0390625,0.682617,0.600098,3.125,-0.5,3,0.860223,-0.0446853,-2.49334
4753,5,38,5,6,1,1,0,4,0.0424805,0.699707,0.585938,3.4375,-0.0625,2.0625,0.861651,-0.0452751,-2.49281
4753,-6,-66,-27,-2,0,-1,-2,-5,0.0424805,0.699707,0.585938,3.4375,-0.0625,2.0625,0.861651,-0.0452751,-2.49281
4768,-1,5,17,-4,0,0,-1,-2,0.0424805,0.699707,0.585938,3.4375,-0.0625,2.0625,0.861651,-0.0452751,-2.49281
4768,-1,-12,-7,-3,-3,-5,-2,-1,0.0424805,0.699707,0.585938,3.4375,-0.0625,2.0625,0.861651,-0.0452751,-2.49281
4770,2,21,7,-1,0,0,1,2,0.0415039,0.708496,0.587402,-0.75,-1.5,1.625,0.861842,-0.046021,-2.49289
4770,12,38,15,3,1,-1,-1,3,0.0415039,0.708496,0.587402,-0.75,-1.5,1.625,0.861842,-0.046021,-2.49289
4789,-9,-20,5,0,1,0,0,0,0.0415039,0.708496,0.587402,-0.75,-1.5,1.625,0.861842,-0.046021,-2.49289
4789,-3,19,8,-3,0,-1,-1,-4,0.0415039,0.708496,0.587402,-0.75,-1.5,1.625,0.861842,-0.046021,-2.49289
4815,-5,-44,-31,-2,-1,-2,1,-2,0.0473633,0.689941,0.604004,-0.875,-1.0625,0.0625,0.861222,-0.0464219,-2.49303
4815,1,11,27,2,-2,-1,0,0,0.0473633,0.689941,0.604004,-0.875,-1.0625,0.0625,0.861222,-0.0464219,-2.49303
4816,4,12,-5,1,0,-3,-1,1,0.0473633,0.689941,0.604004,-0.875,-1.0625,0.0625,0.861222,-0.0464219,-2.49303
4816,2,23,10,2,2,2,-1,1,0.0473633,0.689941,0.604004,-0.875,-1.0625,0.0625,0.861222,-0.0464219,-2.49303
4818,-4,11,8,-4,2,0,0,-1,0.0463867,0.678223,0.59375,0.0625,0,-1.1875,0.861116,-0.0462103,-2.49343
4818,-5,-33,-13,0,-1,0,-2,-1,0.0463867,0.678223,0.59375,0.0625,0,-1.1875,0.861116,-0.0462103,-2.49343
4842,0,14,-7,-5,-2,0,7,1,0.0463867,0.678223,0.59375,0.0625,0,-1.1875,0.861116,-0.0462103,-2.49343
4842,-1,-12,4,-1,-4,0,-6,-1,0.0463867,0.678223,0.59375,0.0625,0,-1.1875,0.861116,-0.0462103,-2.49343
4860,4,29,-6,0,-3,-4,-1,-2,0.0366211,0.678711,0.592773,0.5625,-0.0625,-1.5,0.861103,-0.0456489,-2.4937
4860,-6,-46,6,1,-1,-2,-1,-2,0.0366211,0.678711,0.592773,0.5625,-0.0625,-1.5,0.861103,-0.0456489,-2.4937
4861,4,47,24,3,1,0,-1,0,0.0366211,0.678711,0.592773,0.5625,-0.0625,-1.5,0.861103,-0.0456489,-2.4937
4861,-2,-49,-25,-6,0,0,1,-1,0.0366211,0.678711,0.592773,0.5625,-0.0625,-1.5,0.861103,-0.0456489,-2.4937
4864,1,13,-4,0,-3,2,-1,2,0.0444336,0.67627,0.605469,-0.5625,0.1875,-2.0625,0.860534,-0.0451591,-2.49406
4864,1,34,32,2,-2,0,-1,-2,0.0444336,0.67627,0.605469,-0.5625,0.1875,-2.0625,0.860534,-0.0451591,-2.49406
4881,-6,-21,-28,0,-2,-2,-2,-3,0.0444336,0.67627,0.605469,-0.5625,0.1875,-2.0625,0.860534,-0.0451591,-2.49406
4881,2,13,8,0,-1,-2,0,1,0.0444336,0.67627,0.605469,-0.5625,0.1875,-2.0625,0.860534,-0.0451591,-2.49406
4882,2,23,15,-2,0,-2,0,-2,0.0419922,0.670898,0.603027,1.1875,0.75,-1.75,0.860388,-0.0446105,-2.49419
4882,-5,-64,-28,-4,-4,-4,0,-2,0.0419922,0.670898,0.603027,1.1875,0.75,-1.75,0.860388,-0.0446105,-2.49419
4888,2,5,4,4,2,3,1,-1,0.0419922,0.670898,0.603027,1.1875,0.75,-1.75,0.860388,-0.0446105,-2.49419
4888,-1,-3,-1,-2,-2,0,1,-2,0.0419922,0.670898,0.603027,1.1875,0.75,-1.75,0.860388,-0.0446105,-2.49419
4889,-1,-9,3,1,0,-2,-2,0,0.0410156,0.677734,0.593262,0.625,0.8125,-1.75,0.860429,-0.0439933,-2.49434
4889,2,26,-1,-1,0,-4,-4,1,0.0410156,0.677734,0.593262,0.625,0.8125,-1.75,0.860429,-0.0439933,-2.49434
4910,-2,-15,-5,-2,-1,-4,-4,-2,0.0410156,0.677734,0.593262,0.625,0.8125,-1.75,0.860429,-0.0439933,-2.49434
4910,0,5,-1,3,0,0,0,-1,0.0410156,0.677734,0.593262,0.625,0.8125,-1.75,0.860429,-0.0439933,-2.49434
4912,-2,5,16,-1,-1,0,1,0,0.0390625,0.680664,0.600098,0.0625,0.875,-2.0625,0.860207,-0.0432406,-2.49457
4912,-5,-16,-26,-1,-2,-1,-1,-2,0.0390625,0.680664,0.600098,0.0625,0.875,-2.0625,0.860207,-0.0432406,-2.49457
4933,-6,-7,3,-3,-4,0,-4,-3,0.0390625,0.680664,0.600098,0.0625,0.875,-2.0625,0.860207,-0.0432406,-2.49457
4933,1,2,-6,-1,3,0,1,-1,0.0390625,0.680664,0.600098,0.0625,0.875,-2.0625,0.860207,-0.0432406,-2.49457
4935,2,24,11,-1,0,-1,-2,1,0.0351562,0.679199,0.597656,1.25,0.75,-1.625,0.860436,-0.0425548,-2.49472
4935,2,26,5,3,2,-1,0,-1,0.0351562,0.679199,0.597656,1.25,0.75,-1.625,0.860436,-0.0425548,-2.49472
4947,0,-13,-7,-2,-2,-13,-4,0,0.0351562,0.679199,0.597656,1.25,0.75,-1.625,0.860436,-0.0425548,-2.49472
4947,0,8,6,-1,-2,3,-3,1,0.0351562,0.679199,0.597656,1.25,0.75,-1.625,0.860436,-0.0425548,-2.49472
4955,-6,-14,-8,1,0,9,3,-3,0.0356445,0.67627,0.594727,0.3125,0.8125,-1.5,0.860335,-0.0419014,-2.49482
4955,-3,-23,-2,-5,-2,-1,-1,-2,0.0356445,0.67627,0.594727,0.3125,0.8125,-1.5,0.860335,-0.0419014,-2.49482
4971,2,10,7,-1,-1,9,1,1,0.0356445,0.67627,0.594727,0.3125,0.8125,-1.5,0.860335,-0.0419014,-2.49482
4971,5,40,11,-4,-2,-7,1,0,0.0356445,0.67627,0.594727,0.3125,0.8125,-1.5,0.860335,-0.0419014,-2.49482
4972,-4,-84,-32,1,-2,-9,-5,-6,0.0405273,0.683105,0.595215,0.5,1,-2.5625,0.860435,-0.0410673,-2.49519
4972,6,46,-12,-2,-1,0,2,1,0.0405273,0.683105,0.595215,0.5,1,-2.5625,0.860435,-0.0410673,-2.49519
4992,1,-15,-3,10,6,1,1,0,0.0405273,0.683105,0.595215,0.5,1,-2.5625,0.860435,-0.0410673,-2.49519
4992,0,12,18,-1,-1,-2,-3,-2,0.0405273,0.683105,0.595215,0.5,1,-2.5625,0.860435,-0.0410673,-2.49519
4995,-5,0,-5,-7,-5,-2,-3,-2,0.0361328,0.683594,0.591797,1.0625,0.4375,-2.3125,0.860788,-0.0403196,-2.49555
4995,4,38,10,-5,-5,-3,-2,-1,0.0361328,0.683594,0.591797,1.0625,0.4375,-2.3125,0.860788,-0.0403196,-2.49555
5015,-1,-26,-3,-2,1,-1,1,0,0.0361328,0.683594,0.591797,1.0625,0.4375,-2.3125,0.860788,-0.0403196,-2.49555
5015,0,-1,-7,2,0,1,-2,0,0.0361328,0.683594,0.591797,1.0625,0.4375,-2.3125,0.860788,-0.0403196,-2.49555
5017,4,10,10,-2,0,-2,-2,0,0.0307617,0.663574,0.586426,0.3125,-0.75,-1.9375,0.860512,-0.039925,-2.49616
5017,-4,13,0,1,-4,-11,-2,1,0.0307617,0.663574,0.586426,0.3125,-0.75,-1.9375,0.860512,-0.039925,-2.49616
5038,-1,-8,1,-2,0,4,-1,0,0.0307617,0.663574,0.586426,0.3125,-0.75,-1.9375,0.860512,-0.039925,-2.49616
5038,-5,-8,-6,1,-4,0,1,-4,0.0307617,0.663574,0.586426,0.3125,-0.75,-1.9375,0.860512,-0.039925,-2.49616
5039,3,2,1,-1,0,0,-1,1,0.0405273,0.666992,0.600098,-0.6875,-1.0625,-2.1875,0.859965,-0.039675,-2.49695
5039,-1,-7,6,2,1,0,-1,-1,0.0405273,0.666992,0.600098,-0.6875,-1.0625,-2.1875,0.859965,-0.039675,-2.49695
5076,-4,24,-5,-5,-5,-4,-1,-3,0.0405273,0.666992,0.600098,-0.6875,-1.0625,-2.1875,0.859965,-0.039675,-2.49695
5076,-5,-48,-14,-4,-4,-3,-1,-2,0.0405273,0.666992,0.600098,-0.6875,-1.0625,-2.1875,0.859965,-0.039675,-2.49695
5078,1,40,11,3,0,-1,-1,1,0.0390625,0.672852,0.60498,2.0625,0,-2.3125,0.860187,-0.0391022,-2.49738
5078,-1,-43,-15,-2,-2,1,1,-3,0.0390625,0.672852,0.60498,2.0625,0,-2.3125,0.860187,-0.0391022,-2.49738
5080,2,14,1,-1,-2,-7,-9,0,0.0390625,0.672852,0.60498,2.0625,0,-2.3125,0.860187,-0.0391022,-2.49738
5080,3,-10,-5,0,-1,-1,3,3,0.0390625,0.672852,0.60498,2.0625,0,-2.3125,0.860187,-0.0391022,-2.49738
5083,-8,6,2,-2,-4,-8,-3,-5,0.0317383,0.674805,0.591797,0.1875,-0.625,-1.0625,0.860081,-0.038891,-2.49778
5083,-1,7,10,-2,3,1,1,2,0.0317383,0.674805,0.591797,0.1875,-0.625,-1.0625,0.860081,-0.038891,-2.49778
5091,-2,10,4,-4,-4,-1,-1,-2,0.0317383,0.674805,0.591797,0.1875,-0.625,-1.0625,0.860081,-0.038891,-2.49778
5091,0,-20,-9,-1,0,-2,-1,1,0.0317383,0.674805,0.591797,0.1875,-0.625,-1.0625,0.860081,-0.038891,-2.49778
5092,5,50,7,2,-1,8,0,0,0.0327148,0.678711,0.597168,-2,-0.6875,-0.625,0.859209,-0.0388846,-2.49809
5092,-4,-42,-17,-4,-1,-8,-4,-2,0.0327148,0.678711,0.597168,-2,-0.6875,-0.625,0.859209,-0.0388846,-2.49809
5113,-4,-8,0,0,-2,3,1,1,0.0327148,0.678711,0.597168,-2,-0.6875,-0.625,0.859209,-0.0388846,-2.49809
5113,1,7,1,-3,0,-2,-7,-1,0.0327148,0.678711,0.597168,-2,-0.6875,-0.625,0.859209,-0.0388846,-2.49809
5115,1,6,7,2,-1,1,2,1,0.0317383,0.666504,0.600586,-0.1875,-0.625,-0.0625,0.859066,-0.0388485,-2.49804
5115,0,9,1,-2,1,4,3,-2,0.0317383,0.666504,0.600586,-0.1875,-0.625,-0.0625,0.859066,-0.0388485,-2.49804
5135,2,-2,-5,0,0,-1,-1,3,0.0317383,0.666504,0.600586,-0.1875,-0.625,-0.0625,0.859066,-0.0388485,-2.49804
5135,4,3,13,0,0,-2,-2,-3,0.0317383,0.666504,0.600586,-0.1875,-0.625,-0.0625,0.859066,-0.0388485,-2.49804
5137,-6,-23,-15,4,1,0,-6,-1,0.0317383,0.66748,0.587891,-0.375,-0.625,-0.0625,0.858923,-0.0388125,-2.49799
5137,-4,23,-9,-6,-5,-3,-4,-3,0.0317383,0.66748,0.587891,-0.375,-0.625,-0.0625,0.858923,-0.0388125,-2.49799
5158,0,-12,-3,-2,0,-3,-3,-2,0.0317383,0.66748,0.587891,-0.375,-0.625,-0.0625,0.858923,-0.0388125,-2.49799
5158,-1,-3,-1,-1,-3,2,3,1,0.0317383,0.66748,0.587891,-0.375,-0.625,-0.0625,0.858923,-0.0388125,-2.49799
5159,1,-24,-7,1,0,2,2,3,0.0307617,0.666504,0.597656,1.125,-0.375,-0.25,0.858946,-0.0387495,-2.49817
5159,0,49,16,3,-1,-6,-1,-4,0.0307617,0.666504,0.597656,1.125,-0.375,-0.25,0.858946,-0.0387495,-2.49817
5189,-5,-41,-3,-2,-1,-12,-1,0,0.0307617,0.666504,0.597656,1.125,-0.375,-0.25,0.858946,-0.0387495,-2.49817
5189,-7,-35,-33,-5,-3,-5,-5,-5,0.0307617,0.666504,0.597656,1.125,-0.375,-0.25,0.858946,-0.0387495,-2.49817
5191,2,7,10,-2,-2,-1,5,1,0.0385742,0.67334,0.606445,2.375,-0.125,-0.4375,0.859333,-0.0388227,-2.4983
5191,6,-2,2,3,6,14,5,3,0.0385742,0.67334,0.606445,2.375,-0.125,-0.4375,0.859333,-0.0388227,-2.4983
5191,0,19,2,1,-3,-4,-5,-2,0.0385742,0.67334,0.606445,2.375,-0.125,-0.4375,0.859333,-0.0388227,-2.4983
5191,-5,5,1,-1,-3,-5,1,-1,0.0385742,0.67334,0.606445,2.375,-0.125,-0.4375,0.859333,-0.0388227,-2.4983
5195,-6,-28,-11,-7,-4,-5,-10,-5,0.0332031,0.684082,0.594727,1.375,-0.3125,0.3125,0.859729,-0.0389449,-2.49835
5195,-2,13,1,0,7,15,19,2,0.0332031,0.684082,0.594727,1.375,-0.3125,0.3125,0.859729,-0.0389449,-2.49835
5211,0,-6,-1,-2,-1,1,3,-2,0.0332031,0.684082,0.594727,1.375,-0.3125,0.3125,0.859729,-0.0389449,-2.49835
5211,-1,-30,2,-1,-3,-6,-1,0,0.0332031,0.684082,0.594727,1.375,-0.3125,0.3125,0.859729,-0.0389449,-2.49835
5212,3,13,-1,-4,-3,-6,1,0,0.0405273,0.680664,0.602051,0.75,0.4375,0.25,0.859586,-0.0389089,-2.4983
5212,-3,-49,-10,0,-6,-7,-8,0,0.0405273,0.680664,0.602051,0.75,0.4375,0.25,0.859586,-0.0389089,-2.4983
5233,3,20,6,2,6,22,0,2,0.0405273,0.680664,0.602051,0.75,0.4375,0.25,0.859586,-0.0389089,-2.4983
5233,-3,17,-10,0,-1,-4,2,-1,0.0405273,0.680664,0.602051,0.75,0.4375,0.25,0.859586,-0.0389089,-2.4983
5234,-8,-30,-4,-5,-4,-7,-5,-9,0.0512695,0.680664,0.600586,2.5625,2,-2.0625,0.860201,-0.038317,-2.49818
5234,1,0,0,1,0,0,-6,2,0.0512695,0.680664,0.600586,2.5625,2,-2.0625,0.860201,-0.038317,-2.49818
5246,2,-1,2,-4,-5,-5,0,-1,0.0512695,0.680664,0.600586,2.5625,2,-2.0625,0.860201,-0.038317,-2.49818
5246,7,15,4,2,3,-7,-4,3,0.0512695,0.680664,0.600586,2.5625,2,-2.0625,0.860201,-0.038317,-2.49818
5256,-7,1,-5,0,-1,4,6,0,0.0405273,0.681152,0.600586,2.8125,3.5625,-1.4375,0.860926,-0.0373113,-2.49757
5256,-10,6,3,-3,-9,-15,-16,-10,0.0405273,0.681152,0.600586,2.8125,3.5625,-1.4375,0.860926,-0.0373113,-2.49757
5271,-2,-4,-8,0,-1,1,-3,2,0.0405273,0.681152,0.600586,2.8125,3.5625,-1.4375,0.860926,-0.0373113,-2.49757
5271,0,17,3,-1,5,6,-6,-4,0.0405273,0.681152,0.600586,2.8125,3.5625,-1.4375,0.860926,-0.0373113,-2.49757
5276,8,7,11,1,-1,-8,7,5,0.0229492,0.676758,0.611328,1.6875,4.5,-1.375,0.860853,-0.0357102,-2.4967
5276,-5,-20,-15,-4,-10,1,-2,-2,0.0229492,0.676758,0.611328,1.6875,4.5,-1.375,0.860853,-0.0357102,-2.4967
5293,0,7,3,0,3,-12,8,0,0.0229492,0.676758,0.611328,1.6875,4.5,-1.375,0.860853,-0.0357102,-2.4967
5293,1,2,1,1,10,33,1,3,0.0229492,0.676758,0.611328,1.6875,4.5,-1.375,0.860853,-0.0357102,-2.4967
5295,-2,-5,3,2,3,6,-2,-1,0.0395508,0.679199,0.616211,3.1875,4.75,-3.5625,0.861373,-0.033862,-2.49618
5295,0,10,3,-2,-2,-8,-7,0,0.0395508,0.679199,0.616211,3.1875,4.75,-3.5625,0.861373,-0.033862,-2.49618
5307,-5,-6,-8,-5,-13,-38,-22,-10,0.0395508,0.679199,0.616211,3.1875,4.75,-3.5625,0.861373,-0.033862,-2.49618
5307,-2,-2,0,-1,2,21,15,-6,0.0395508,0.679199,0.616211,3.1875,4.75,-3.5625,0.861373,-0.033862,-2.49618
5316,1,0,0,0,0,0,13,9,0.0517578,0.70459,0.610352,5.5,8.5625,-6.0625,0.863184,-0.0309165,-2.49535
5316,2,16,8,0,2,0,-13,1,0.0517578,0.70459,0.610352,5.5,8.5625,-6.0625,0.863184,-0.0309165,-2.49535
5338,0,11,6,2,-3,-6,3,-3,0.0517578,0.70459,0.610352,5.5,8.5625,-6.0625,0.863184,-0.0309165,-2.49535
5338,-13,-64,-31,-8,-6,-6,-4,-6,0.0517578,0.70459,0.610352,5.5,8.5625,-6.0625,0.863184,-0.0309165,-2.49535
5340,-3,2,-3,-4,-6,-17,-10,-5,0.0229492,0.706543,0.59668,2.5,10.0625,-7,0.864162,-0.0266675,-2.49424
5340,-2,26,7,1,0,20,10,2,0.0229492,0.706543,0.59668,2.5,10.0625,-7,0.864162,-0.0266675,-2.49424
5369,8,-47,-9,-1,2,-9,-8,1,0.0229492,0.706543,0.59668,2.5,10.0625,-7,0.864162,-0.0266675,-2.49424
5369,0,26,5,-1,-4,-2,3,-1,0.0229492,0.706543,0.59668,2.5,10.0625,-7,0.864162,-0.0266675,-2.49424
5370,-9,0,-3,3,10,7,-3,-4,0.00830078,0.67041,0.583008,-0.25,6.0625,-5.9375,0.863845,-0.0234444,-2.49394
5370,1,6,1,1,7,3,2,1,0.00830078,0.67041,0.583008,-0.25,6.0625,-5.9375,0.863845,-0.0234444,-2.49394
5370,-4,11,3,-4,-4,0,-5,-5,0.00830078,0.67041,0.583008,-0.25,6.0625,-5.9375,0.863845,-0.0234444,-2.49394
5370,0,7,7,0,-7,-15,0,0,0.00830078,0.67041,0.583008,-0.25,6.0625,-5.9375,0.863845,-0.0234444,-2.49394
5375,9,-15,-4,-1,4,11,-9,5,0.0205078,0.671387,0.571777,-8.4375,4,-7.1875,0.860997,-0.0206597,-2.4945
5375,-6,4,1,0,-3,-4,3,-7,0.0205078,0.671387,0.571777,-8.4375,4,-7.1875,0.860997,-0.0206597,-2.4945
5390,-6,6,0,0,4,12,0,-3,0.0205078,0.671387,0.571777,-8.4375,4,-7.1875,0.860997,-0.0206597,-2.4945
5390,5,-3,-1,-4,-9,-20,-5,-1,0.0205078,0.671387,0.571777,-8.4375,4,-7.1875,0.860997,-0.0206597,-2.4945
5392,-3,25,9,-4,-10,-11,-8,-2,0.00488281,0.644531,0.593262,-4.875,1.5625,-5.4375,0.85857,-0.0186112,-2.49531
5392,9,-16,-14,1,-26,-45,3,7,0.00488281,0.644531,0.593262,-4.875,1.5625,-5.4375,0.85857,-0.0186112,-2.49531
5414,4,6,1,7,56,89,44,1,0.00488281,0.644531,0.593262,-4.875,1.5625,-5.4375,0.85857,-0.0186112,-2.49531
5414,10,10,5,0,-1,-31,4,7,0.00488281,0.644531,0.593262,-4.875,1.5625,-5.4375,0.85857,-0.0186112,-2.49531
5415,-20,3,7,4,13,17,-3,-5,-0.0239258,0.664062,0.602051,-5.375,-0.625,-1.5,0.856185,-0.0174342,-2.49579
5415,1,-10,-18,-7,-4,7,-4,4,-0.0239258,0.664062,0.602051,-5.375,-0.625,-1.5,0.856185,-0.0174342,-2.49579
5435,-3,27,12,-3,-23,-38,-13,-3,-0.0239258,0.664062,0.602051,-5.375,-0.625,-1.5,0.856185,-0.0174342,-2.49579
5435,-8,-10,-9,-7,-9,-15,-9,-21,-0.0239258,0.664062,0.602051,-5.375,-0.625,-1.5,0.856185,-0.0174342,-2.49579
5437,12,11,12,6,16,2,18,29,0.00292969,0.706055,0.604492,-2.0625,2.125,-3.9375,0.855758,-0.0156283,-2.49603
5437,-2,-15,-2,-1,10,33,-23,-10,0.00292969,0.706055,0.604492,-2.0625,2.125,-3.9375,0.855758,-0.0156283,-2.49603
5451,-3,16,1,1,-4,-5,-10,3,0.00292969,0.706055,0.604492,-2.0625,2.125,-3.9375,0.855758,-0.0156283,-2.49603
5451,-1,14,11,-3,-10,-17,-15,0,0.00292969,0.706055,0.604492,-2.0625,2.125,-3.9375,0.855758,-0.0156283,-2.49603
5452,6,-17,-9,-2,-9,-26,11,-3,0.0209961,0.677734,0.625,0.25,3.875,-6.4375,0.85522,-0.0132603,-2.4965
5452,0,3,4,2,3,13,23,-5,0.0209961,0.677734,0.625,0.25,3.875,-6.4375,0.85522,-0.0132603,-2.4965
5480,-6,-5,-2,1,0,-11,-4,0,0.0209961,0.677734,0.625,0.25,3.875,-6.4375,0.85522,-0.0132603,-2.4965
5480,-8,8,3,-2,-24,-46,12,2,0.0209961,0.677734,0.625,0.25,3.875,-6.4375,0.85522,-0.0132603,-2.4965
5482,2,-19,-15,0,14,27,33,-10,0.0185547,0.663086,0.605957,3.125,5.5625,-4.875,0.85576,-0.0109,-2.49618
5482,12,1,3,5,24,33,1,34,0.0185547,0.663086,0.605957,3.125,5.5625,-4.875,0.85576,-0.0109,-2.49618
5487,-3,3,0,-5,-20,-14,-25,-26,0.0185547,0.663086,0.605957,3.125,5.5625,-4.875,0.85576,-0.0109,-2.49618
5487,-18,6,0,-1,-45,-65,-83,-14,0.0185547,0.663086,0.605957,3.125,5.5625,-4.875,0.85576,-0.0109,-2.49618
5503,15,0,1,12,66,96,69,35,0.0288086,0.694336,0.623047,-0.875,8.625,-4,0.854994,-0.00834147,-2.49473
5503,-12,-1,5,-8,-33,-89,-20,-26,0.0288086,0.694336,0.623047,-0.875,8.625,-4,0.854994,-0.00834147,-2.49473
5526,2,-12,-8,-3,-12,-21,53,12,0.0288086,0.694336,0.623047,-0.875,8.625,-4,0.854994,-0.00834147,-2.49473
5526,11,13,2,5,41,46,-10,1,0.0288086,0.694336,0.623047,-0.875,8.625,-4,0.854994,-0.00834147,-2.49473
5527,-12,2,1,-1,-4,6,-26,-22,0.0576172,0.708496,0.645508,-2.875,14.375,-4.6875,0.853505,-0.0050964,-2.49206
5527,4,-7,-1,-5,-15,-38,1,-16,0.0576172,0.708496,0.645508,-2.875,14.375,-4.6875,0.853505,-0.0050964,-2.49206
5533,-1,-4,-5,-1,4,82,39,-25,0.0576172,0.708496,0.645508,-2.875,14.375,-4.6875,0.853505,-0.0050964,-2.49206
5533,4,-2,9,17,29,33,24,17,0.0576172,0.708496,0.645508,-2.875,14.375,-4.6875,0.853505,-0.0050964,-2.49206
5535,-14,-13,-9,-11,-29,-50,-27,-12,0.0488281,0.709961,0.63916,2.8125,23.5625,-8.625,0.854039,0.00127736,-2.4878
5535,2,11,9,5,28,-22,-11,-1,0.0488281,0.709961,0.63916,2.8125,23.5625,-8.625,0.854039,0.00127736,-2.4878
5556,12,1,-6,-2,-20,19,-32,43,0.0488281,0.709961,0.63916,2.8125,23.5625,-8.625,0.854039,0.00127736,-2.4878
5556,-5,-2,-2,-6,-8,53,39,-18,0.0488281,0.709961,0.63916,2.8125,23.5625,-8.625,0.854039,0.00127736,-2.4878
5557,-9,-3,-5,0,15,-9,-10,8,-0.0268555,0.721191,0.70166,6,32.25,-2.5,0.854916,0.00969783,-2.47983
5557,-20,-11,-9,-24,-97,-128,-62,-45,-0.0268555,0.721191,0.70166,6,32.25,-2.5,0.854916,0.00969783,-2.47983
5578,7,10,9,17,66,25,40,-18,-0.0268555,0.721191,0.70166,6,32.25,-2.5,0.854916,0.00969783,-2.47983
5578,19,-3,-5,-5,0,-12,0,33,-0.0268555,0.721191,0.70166,6,32.25,-2.5,0.854916,0.00969783,-2.47983
5579,0,16,3,1,-28,-63,-41,-15,-0.0454102,0.73291,0.64209,-2.25,33.875,-8.375,0.854095,0.0203109,-2.47285
5579,-26,-47,-26,-24,-7,27,19,-5,-0.0454102,0.73291,0.64209,-2.25,33.875,-8.375,0.854095,0.0203109,-2.47285
5601,16,11,12,11,-28,-63,-30,-26,-0.0454102,0.73291,0.64209,-2.25,33.875,-8.375,0.854095,0.0203109,-2.47285
5601,-3,-3,3,12,55,118,64,14,-0.0454102,0.73291,0.64209,-2.25,33.875,-8.375,0.854095,0.0203109,-2.47285
5602,-10,0,-13,-20,-66,-67,-19,-23,-0.0600586,0.71875,0.469727,-28,25.5,-2.3125,0.847569,0.0277134,-2.4666
5602,16,1,6,-1,-35,10,-6,10,-0.0600586,0.71875,0.469727,-28,25.5,-2.3125,0.847569,0.0277134,-2.4666
5623,2,-9,-7,6,104,105,60,98,-0.0600586,0.71875,0.469727,-28,25.5,-2.3125,0.847569,0.0277134,-2.4666
5623,-9,7,-2,-4,-27,-17,-10,68,-0.0600586,0.71875,0.469727,-28,25.5,-2.3125,0.847569,0.0277134,-2.4666
5624,16,11,4,-8,-64,-81,-66,44,-0.0566406,0.585449,0.519043,-41.8125,9.4375,5.1875,0.833211,0.0293484,-2.46289
5624,25,6,8,24,127,127,111,73,-0.0566406,0.585449,0.519043,-41.8125,9.4375,5.1875,0.833211,0.0293484,-2.46289
5629,-13,-27,-13,-17,-56,-116,-53,-42,-0.0566406,0.585449,0.519043,-41.8125,9.4375,5.1875,0.833211,0.0293484,-2.46289
5629,7,6,4,-2,-31,-47,-22,-31,-0.0566406,0.585449,0.519043,-41.8125,9.4375,5.1875,0.833211,0.0293484,-2.46289
5659,12,12,8,10,5,-47,25,14,0.0195312,0.611328,0.601074,-28.3125,-6.75,-1.75,0.822811,0.0272492,-2.46511
5659,-13,17,6,11,8,-19,-70,-37,0.0195312,0.611328,0.601074,-28.3125,-6.75,-1.75,0.822811,0.0272492,-2.46511
5670,20,18,1,-9,-68,-62,50,61,0.0195312,0.611328,0.601074,-28.3125,-6.75,-1.75,0.822811,0.0272492,-2.46511
5670,11,26,5,11,39,-59,-25,-3,0.0195312,0.611328,0.601074,-28.3125,-6.75,-1.75,0.822811,0.0272492,-2.46511
5671,-28,-25,-15,-21,-68,-94,-94,-25,-0.0585938,0.697754,0.541504,-25.9375,-11.8125,-1.375,0.815629,0.0256313,-2.46838
5671,5,-29,5,12,16,73,0,14,-0.0585938,0.697754,0.541504,-25.9375,-11.8125,-1.375,0.815629,0.0256313,-2.46838
5675,-16,8,11,6,-10,-57,-29,-28,-0.0585938,0.697754,0.541504,-25.9375,-11.8125,-1.375,0.815629,0.0256313,-2.46838
5675,34,-9,-4,1,6,-36,9,51,-0.0585938,0.697754,0.541504,-25.9375,-11.8125,-1.375,0.815629,0.0256313,-2.46838
5692,15,0,-2,11,101,127,120,-30,-0.0664062,0.628906,0.628906,-34.625,-20.4375,3.0625,0.803073,0.0211078,-2.47275
5692,5,33,2,1,-2,20,-102,4,-0.0664062,0.628906,0.628906,-34.625,-20.4375,3.0625,0.803073,0.0211078,-2.47275
5693,-10,-13,-5,-8,7,11,-46,28,-0.0664062,0.628906,0.628906,-34.625,-20.4375,3.0625,0.803073,0.0211078,-2.47275
5693,-56,21,-3,-26,-58,-49,-24,-27,-0.0664062,0.628906,0.628906,-34.625,-20.4375,3.0625,0.803073,0.0211078,-2.47275
5697,10,-53,-3,26,38,-7,-8,-34,-0.0244141,0.513184,0.704102,-38.4375,-18.375,5.0625,0.786374,0.0156239,-2.47616
5697,-22,11,-17,-10,16,-12,59,-84,-0.0244141,0.513184,0.704102,-38.4375,-18.375,5.0625,0.786374,0.0156239,-2.47616
5713,26,-53,-10,-3,17,75,41,67,-0.0244141,0.513184,0.704102,-38.4375,-18.375,5.0625,0.786374,0.0156239,-2.47616
5713,-61,-17,-11,-17,-12,-74,-56,-52,-0.0244141,0.513184,0.704102,-38.4375,-18.375,5.0625,0.786374,0.0156239,-2.47616
5715,-11,8,3,-5,41,37,52,18,-0.074707,0.536621,0.666992,-21.5,-17.5,2.1875,0.77667,0.0122456,-2.47992
5715,11,7,6,16,20,-3,108,70,-0.074707,0.536621,0.666992,-21.5,-17.5,2.1875,0.77667,0.0122456,-2.47992
5735,5,9,2,3,13,41,-37,14,-0.074707,0.536621,0.666992,-21.5,-17.5,2.1875,0.77667,0.0122456,-2.47992
5735,-4,-19,-13,-13,-6,85,-21,-58,-0.074707,0.536621,0.666992,-21.5,-17.5,2.1875,0.77667,0.0122456,-2.47992
5737,-4,5,-17,-26,-66,-89,-95,89,-0.000976562,0.649902,0.664551,-9,-16.4375,0.75,0.773501,0.0078814,-2.48367
5737,10,3,8,-1,-68,-6,-7,34,-0.000976562,0.649902,0.664551,-9,-16.4375,0.75,0.773501,0.0078814,-2.48367
5757,22,12,16,34,95,95,17,3,-0.000976562,0.649902,0.664551,-9,-16.4375,0.75,0.773501,0.0078814,-2.48367
5757,28,-17,-5,-7,4,57,64,85,-0.000976562,0.649902,0.664551,-9,-16.4375,0.75,0.773501,0.0078814,-2.48367
5765,-21,10,4,-3,-45,-105,-109,-69,-0.0356445,0.67041,0.65625,-5.6875,-11.25,1.875,0.77203,0.00527414,-2.486
5765,33,3,1,-17,-65,-15,29,-17,-0.0356445,0.67041,0.65625,-5.6875,-11.25,1.875,0.77203,0.00527414,-2.486
5780,1,6,-11,-4,-4,20,52,41,-0.0356445,0.67041,0.65625,-5.6875,-11.25,1.875,0.77203,0.00527414,-2.486
5780,-11,8,4,6,2,69,-25,-88,-0.0356445,0.67041,0.65625,-5.6875,-11.25,1.875,0.77203,0.00527414,-2.486
5782,31,-22,0,6,-12,-7,-5,-24,0.0146484,0.619141,0.621582,-15.3125,-10.4375,3.25,0.767037,0.00156038,-2.48776
5782,-17,28,6,-6,-27,-126,-78,-53,0.0146484,0.619141,0.621582,-15.3125,-10.4375,3.25,0.767037,0.00156038,-2.48776
5803,-55,-86,-25,-13,36,-2,-13,-78,0.0146484,0.619141,0.621582,-15.3125,-10.4375,3.25,0.767037,0.00156038,-2.48776
5803,20,4,5,19,1,-102,10,-1,0.0146484,0.619141,0.621582,-15.3125,-10.4375,3.25,0.767037,0.00156038,-2.48776
5805,-2,9,3,-1,24,-5,70,-2,0.0600586,0.583496,0.643555,-14,-6.8125,2.875,0.761742,-0.0022613,-2.48865
5805,-8,13,-1,12,110,104,29,32,0.0600586,0.583496,0.643555,-14,-6.8125,2.875,0.761742,-0.0022613,-2.48865
5811,9,36,1,-27,-121,-128,-78,-61,0.0600586,0.583496,0.643555,-14,-6.8125,2.875,0.761742,-0.0022613,-2.48865
5811,33,-3,2,14,8,-42,37,85,0.0600586,0.583496,0.643555,-14,-6.8125,2.875,0.761742,-0.0022613,-2.48865
5812,12,-6,-3,-7,-28,127,-62,15,-0.0268555,0.614258,0.657715,-5,-3.875,7.875,0.759784,-0.00439469,-2.48756
5812,-17,-21,1,5,-3,-10,-7,-43,-0.0268555,0.614258,0.657715,-5,-3.875,7.875,0.759784,-0.00439469,-2.48756
5833,-44,-1,-12,-18,-88,-95,-4,-57,-0.0268555,0.614258,0.657715,-5,-3.875,7.875,0.759784,-0.00439469,-2.48756
5833,-17,-11,-1,3,28,-11,50,-29,-0.0268555,0.614258,0.657715,-5,-3.875,7.875,0.759784,-0.00439469,-2.48756
5834,12,22,6,-9,-97,-118,-34,-44,-0.0112305,0.605957,0.687988,-7.5,-3.5,5.875,0.756307,-0.00624588,-2.48689
5834,-34,-15,-25,-25,0,51,16,42,-0.0112305,0.605957,0.687988,-7.5,-3.5,5.875,0.756307,-0.00624588,-2.48689
5855,9,-31,5,-1,-13,-48,-96,-23,-0.0112305,0.605957,0.687988,-7.5,-3.5,5.875,0.756307,-0.00624588,-2.48689
5855,0,9,-5,-7,-5,87,-2,47,-0.0112305,0.605957,0.687988,-7.5,-3.5,5.875,0.756307,-0.00624588,-2.48689
5858,-14,0,-3,5,65,125,109,70,-0.00585938,0.593262,0.698242,-12.125,-0.9375,7.8125,0.751072,-0.00807157,-2.48513
5858,-31,-58,-14,-21,-102,-128,-51,-20,-0.00585938,0.593262,0.698242,-12.125,-0.9375,7.8125,0.751072,-0.00807157,-2.48513
5869,12,52,9,15,57,35,5,-38,-0.00585938,0.593262,0.698242,-12.125,-0.9375,7.8125,0.751072,-0.00807157,-2.48513
5869,-22,-67,-5,-7,-61,-123,-111,-51,-0.00585938,0.593262,0.698242,-12.125,-0.9375,7.8125,0.751072,-0.00807157,-2.48513
5877,-5,-26,-11,-11,19,33,-38,-25,0.00292969,0.568848,0.664551,-7.5625,1.875,9.5625,0.747525,-0.00979985,-2.48222
