0,-3,-18,-53,-11,-4,-2,-2,-2,0.108398,0.49707,0.721191,-0.6875,-3.625,-2.75,0.628488,-0.120622,-2.59583
0,-4,-3,-16,-2,-3,-1,-1,-3,0.108398,0.49707,0.721191,-0.6875,-3.625,-2.75,0.628488,-0.120622,-2.59583
0,-3,-17,39,4,0,-1,0,-2,0.108398,0.49707,0.721191,-0.6875,-3.625,-2.75,0.628488,-0.120622,-2.59583
0,0,5,11,-3,-2,-1,-1,-2,0.108398,0.49707,0.721191,-0.6875,-3.625,-2.75,0.628488,-0.120622,-2.59583
3,-1,11,14,1,0,1,-1,0,0.108398,0.49707,0.721191,-0.6875,-3.625,-2.75,0.628488,-0.120622,-2.59583
3,0,-6,-38,-4,0,1,0,0,0.108398,0.49707,0.721191,-0.6875,-3.625,-2.75,0.628488,-0.120622,-2.59583
4,-1,11,38,3,-4,0,-3,-2,0.109863,0.490723,0.727539,4.8125,-1.1875,-1.3125,0.629531,-0.120741,-2.59642
4,-1,-8,-42,-4,-2,-2,-3,-2,0.109863,0.490723,0.727539,4.8125,-1.1875,-1.3125,0.629531,-0.120741,-2.59642
5,1,-4,10,1,0,0,1,-2,0.109863,0.490723,0.727539,4.8125,-1.1875,-1.3125,0.629531,-0.120741,-2.59642
5,2,2,11,1,-1,-1,0,1,0.109863,0.490723,0.727539,4.8125,-1.1875,-1.3125,0.629531,-0.120741,-2.59642
20,-1,-6,-20,-2,1,-1,-1,0,0.0947266,0.521973,0.743652,11.0625,1.1875,-0.5,0.632807,-0.119943,-2.59612
20,1,3,11,11,1,2,0,0,0.0947266,0.521973,0.743652,11.0625,1.1875,-0.5,0.632807,-0.119943,-2.59612
31,-1,4,-4,-18,-4,-1,-4,-1,0.0947266,0.521973,0.743652,11.0625,1.1875,-0.5,0.632807,-0.119943,-2.59612
31,-2,-7,19,5,-3,-3,-3,-4,0.0947266,0.521973,0.743652,11.0625,1.1875,-0.5,0.632807,-0.119943,-2.59612
34,0,6,20,3,1,1,1,-1,0.0893555,0.550293,0.733398,11.5625,2.5625,1.625,0.636981,-0.119104,-2.59526
34,1,2,-3,1,2,0,-1,0,0.0893555,0.550293,0.733398,11.5625,2.5625,1.625,0.636981,-0.119104,-2.59526
39,-3,-19,-24,-6,1,-2,0,-1,0.0893555,0.550293,0.733398,11.5625,2.5625,1.625,0.636981,-0.119104,-2.59526
39,0,7,32,-1,1,0,0,0,0.0893555,0.550293,0.733398,11.5625,2.5625,1.625,0.636981,-0.119104,-2.59526
65,-4,-15,-106,-9,-3,-4,-2,-1,0.0986328,0.537598,0.721191,5.8125,1.875,3.125,0.638945,-0.118951,-2.59393
65,-1,15,17,3,0,-1,0,0,0.0986328,0.537598,0.721191,5.8125,1.875,3.125,0.638945,-0.118951,-2.59393
65,-4,-21,13,4,-3,0,1,-2,0.0986328,0.537598,0.721191,5.8125,1.875,3.125,0.638945,-0.118951,-2.59393
65,1,1,-8,-5,-2,0,-1,-1,0.0986328,0.537598,0.721191,5.8125,1.875,3.125,0.638945,-0.118951,-2.59393
84,1,7,16,0,-1,-1,0,-1,0.112305,0.51709,0.706543,3.75,0.625,4.0625,0.639816,-0.119788,-2.5926
84,0,1,-15,-4,1,-4,-1,-1,0.112305,0.51709,0.706543,3.75,0.625,4.0625,0.639816,-0.119788,-2.5926
84,1,3,-4,4,1,-1,-1,-1,0.112305,0.51709,0.706543,3.75,0.625,4.0625,0.639816,-0.119788,-2.5926
84,0,0,-23,-4,-4,-1,-1,0,0.112305,0.51709,0.706543,3.75,0.625,4.0625,0.639816,-0.119788,-2.5926
98,-1,3,21,8,2,0,-1,0,0.121582,0.520508,0.717773,8.375,1.8125,3.75,0.642283,-0.120381,-2.59114
98,-2,6,13,-8,-2,2,-2,-1,0.121582,0.520508,0.717773,8.375,1.8125,3.75,0.642283,-0.120381,-2.59114
99,-1,-3,2,-2,-2,-1,-2,0,0.121582,0.520508,0.717773,8.375,1.8125,3.75,0.642283,-0.120381,-2.59114
99,0,-4,15,2,-1,-2,-2,0,0.121582,0.520508,0.717773,8.375,1.8125,3.75,0.642283,-0.120381,-2.59114
146,0,-2,-2,2,2,0,-1,0,0.0981445,0.557617,0.710938,7.5,3.75,5.9375,0.649073,-0.120299,-2.58657
146,-2,4,16,5,0,-2,-1,0,0.0981445,0.557617,0.710938,7.5,3.75,5.9375,0.649073,-0.120299,-2.58657
147,0,-2,1,-10,-4,0,-1,0,0.0981445,0.557617,0.710938,7.5,3.75,5.9375,0.649073,-0.120299,-2.58657
147,1,1,-34,-4,-5,-3,-1,1,0.0981445,0.557617,0.710938,7.5,3.75,5.9375,0.649073,-0.120299,-2.58657
147,-1,-2,2,4,1,0,1,1,0.0981445,0.557617,0.710938,7.5,3.75,5.9375,0.649073,-0.120299,-2.58657
147,-2,-9,10,1,-2,-1,-3,-2,0.0981445,0.557617,0.710938,7.5,3.75,5.9375,0.649073,-0.120299,-2.58657
150,0,-4,-13,-2,-1,-3,-2,-3,0.0981445,0.557617,0.710938,7.5,3.75,5.9375,0.649073,-0.120299,-2.58657
150,-1,-4,2,0,0,-1,0,-1,0.0981445,0.557617,0.710938,7.5,3.75,5.9375,0.649073,-0.120299,-2.58657
159,2,20,14,1,1,-1,-1,0,0.113281,0.546875,0.696777,4.25,2.3125,6.4375,0.650685,-0.121163,-2.58438
159,6,18,26,-2,4,1,3,1,0.113281,0.546875,0.696777,4.25,2.3125,6.4375,0.650685,-0.121163,-2.58438
174,-12,-57,-46,-10,-3,-2,-2,-3,0.113281,0.546875,0.696777,4.25,2.3125,6.4375,0.650685,-0.121163,-2.58438
174,-2,-1,33,8,2,2,-1,-1,0.113281,0.546875,0.696777,4.25,2.3125,6.4375,0.650685,-0.121163,-2.58438
182,0,4,-10,2,-4,-1,-1,-1,0.112305,0.549316,0.719238,5,2.1875,6.125,0.652054,-0.121811,-2.58218
182,1,17,59,-4,-2,-1,0,-1,0.112305,0.549316,0.719238,5,2.1875,6.125,0.652054,-0.121811,-2.58218
189,2,11,5,2,1,-1,0,0,0.112305,0.549316,0.719238,5,2.1875,6.125,0.652054,-0.121811,-2.58218
189,-1,-5,-16,0,-1,-3,0,-3,0.112305,0.549316,0.719238,5,2.1875,6.125,0.652054,-0.121811,-2.58218
205,0,-4,11,-1,-2,-2,-2,-1,0.11084,0.546387,0.697266,3.75,1,5.9375,0.65346,-0.122898,-2.58035
205,-1,-6,-17,-4,-3,1,-2,-2,0.11084,0.546387,0.697266,3.75,1,5.9375,0.65346,-0.122898,-2.58035
211,1,8,9,6,3,2,1,1,0.11084,0.546387,0.697266,3.75,1,5.9375,0.65346,-0.122898,-2.58035
211,-2,-2,-8,-12,-1,0,-2,-3,0.11084,0.546387,0.697266,3.75,1,5.9375,0.65346,-0.122898,-2.58035
225,0,-2,3,-1,-2,1,0,-1,0.119629,0.556152,0.701172,4.5625,1.0625,5.625,0.655105,-0.124021,-2.57859
225,0,-1,-4,-5,-2,-2,-1,1,0.119629,0.556152,0.701172,4.5625,1.0625,5.625,0.655105,-0.124021,-2.57859
235,-1,9,-34,3,-2,-2,-2,-2,0.119629,0.556152,0.701172,4.5625,1.0625,5.625,0.655105,-0.124021,-2.57859
235,-3,-11,24,0,-2,-1,0,-1,0.119629,0.556152,0.701172,4.5625,1.0625,5.625,0.655105,-0.124021,-2.57859
236,-3,6,-2,-6,-2,-3,-1,-2,0.124512,0.569336,0.707031,4.375,1.75,4.875,0.656876,-0.12477,-2.57693
236,-3,-21,-35,1,-2,-2,-2,-2,0.124512,0.569336,0.707031,4.375,1.75,4.875,0.656876,-0.12477,-2.57693
256,1,3,-16,-1,0,-2,-2,-1,0.124512,0.569336,0.707031,4.375,1.75,4.875,0.656876,-0.12477,-2.57693
256,1,2,0,3,0,-3,-1,1,0.124512,0.569336,0.707031,4.375,1.75,4.875,0.656876,-0.12477,-2.57693
258,-2,-3,-4,-6,0,-1,-2,0,0.123535,0.559082,0.715332,1.25,1.375,3.0625,0.657297,-0.125331,-2.5757
258,-2,-7,6,4,-2,-2,-1,-3,0.123535,0.559082,0.715332,1.25,1.375,3.0625,0.657297,-0.125331,-2.5757
279,-1,10,10,-3,-1,0,-1,-2,0.123535,0.559082,0.715332,1.25,1.375,3.0625,0.657297,-0.125331,-2.5757
279,1,-5,15,2,2,1,-1,1,0.123535,0.559082,0.715332,1.25,1.375,3.0625,0.657297,-0.125331,-2.5757
280,-3,9,-44,0,0,-2,-3,0,0.125488,0.549316,0.708984,2.625,2.125,2.5625,0.658222,-0.125624,-2.57459
280,-3,-11,-11,-4,-2,-1,0,-2,0.125488,0.549316,0.708984,2.625,2.125,2.5625,0.658222,-0.125624,-2.57459
294,3,19,19,-2,-5,-1,-4,-1,0.125488,0.549316,0.708984,2.625,2.125,2.5625,0.658222,-0.125624,-2.57459
294,1,2,0,1,-3,0,0,-1,0.125488,0.549316,0.708984,2.625,2.125,2.5625,0.658222,-0.125624,-2.57459
296,1,-3,-40,-6,-3,-1,1,-1,0.11084,0.54834,0.710938,2.5625,1.875,2.125,0.658861,-0.125396,-2.57353
296,0,7,4,7,1,-1,1,0,0.11084,0.54834,0.710938,2.5625,1.875,2.125,0.658861,-0.125396,-2.57353
317,-3,-4,0,-14,-2,-3,-1,-2,0.11084,0.54834,0.710938,2.5625,1.875,2.125,0.658861,-0.125396,-2.57353
317,-2,-2,-8,3,1,-1,0,-2,0.11084,0.54834,0.710938,2.5625,1.875,2.125,0.658861,-0.125396,-2.57353
318,1,-3,21,2,-1,-2,-1,-1,0.108398,0.556152,0.708496,2.75,1.5625,0.8125,0.659931,-0.125002,-2.57293
318,-1,-10,-46,-9,-1,-2,-1,1,0.108398,0.556152,0.708496,2.75,1.5625,0.8125,0.659931,-0.125002,-2.57293
340,1,5,26,10,3,-2,0,-1,0.108398,0.556152,0.708496,2.75,1.5625,0.8125,0.659931,-0.125002,-2.57293
340,-1,11,-13,0,0,-2,-2,-2,0.108398,0.556152,0.708496,2.75,1.5625,0.8125,0.659931,-0.125002,-2.57293
340,-5,-22,-26,-6,-3,1,1,-5,0.106934,0.568359,0.706055,3.9375,2.125,-0.0625,0.661641,-0.124336,-2.57258
340,-1,-1,-9,-5,-4,-3,-3,-2,0.106934,0.568359,0.706055,3.9375,2.125,-0.0625,0.661641,-0.124336,-2.57258
354,2,2,18,6,-1,1,1,2,0.106934,0.568359,0.706055,3.9375,2.125,-0.0625,0.661641,-0.124336,-2.57258
354,-4,-11,-7,-1,0,-2,-2,-2,0.106934,0.568359,0.706055,3.9375,2.125,-0.0625,0.661641,-0.124336,-2.57258
355,5,6,34,0,-1,-1,-2,0,0.117676,0.562988,0.706543,2,1.5625,-0.9375,0.662593,-0.12385,-2.57253
355,-2,4,-11,-1,-2,0,-3,-1,0.117676,0.562988,0.706543,2,1.5625,-0.9375,0.662593,-0.12385,-2.57253
376,-1,-1,-8,1,2,0,0,-1,0.117676,0.562988,0.706543,2,1.5625,-0.9375,0.662593,-0.12385,-2.57253
376,2,0,13,3,0,-1,-2,0,0.117676,0.562988,0.706543,2,1.5625,-0.9375,0.662593,-0.12385,-2.57253
378,-2,-14,-7,-3,-1,-2,-2,-1,0.119141,0.554199,0.699219,-0.5,1.3125,-0.9375,0.662551,-0.123442,-2.57248
378,-2,-8,-42,-10,-3,-1,-1,-1,0.119141,0.554199,0.699219,-0.5,1.3125,-0.9375,0.662551,-0.123442,-2.57248
400,-1,2,17,-1,-4,-1,-3,-2,0.119141,0.554199,0.699219,-0.5,1.3125,-0.9375,0.662551,-0.123442,-2.57248
400,0,1,6,-1,-5,-2,0,-1,0.119141,0.554199,0.699219,-0.5,1.3125,-0.9375,0.662551,-0.123442,-2.57248
401,0,6,13,8,3,2,0,1,0.111816,0.556152,0.70752,2.125,2.3125,-1.1875,0.66336,-0.122549,-2.57233
401,-1,-5,1,-4,0,-2,-1,-2,0.111816,0.556152,0.70752,2.125,2.3125,-1.1875,0.66336,-0.122549,-2.57233
413,1,3,36,4,3,-1,1,0,0.111816,0.556152,0.70752,2.125,2.3125,-1.1875,0.66336,-0.122549,-2.57233
413,-4,-7,-78,-13,-3,-4,-5,-3,0.111816,0.556152,0.70752,2.125,2.3125,-1.1875,0.66336,-0.122549,-2.57233
420,-2,-5,29,4,-1,-2,-2,-1,0.101562,0.552246,0.714844,3.6875,2.125,-1.875,0.66447,-0.121429,-2.5723
420,-3,4,13,-3,-2,1,0,-1,0.101562,0.552246,0.714844,3.6875,2.125,-1.875,0.66447,-0.121429,-2.5723
437,-1,-14,7,-4,-3,0,0,-2,0.101562,0.552246,0.714844,3.6875,2.125,-1.875,0.66447,-0.121429,-2.5723
437,0,11,26,-6,0,0,-2,-2,0.101562,0.552246,0.714844,3.6875,2.125,-1.875,0.66447,-0.121429,-2.5723
439,-1,-2,-14,-2,-2,0,-2,-1,0.114258,0.548828,0.711914,2.25,0.625,-3.375,0.66522,-0.120577,-2.57309
439,1,-1,20,5,1,1,0,-1,0.114258,0.548828,0.711914,2.25,0.625,-3.375,0.66522,-0.120577,-2.57309
459,-3,-7,-2,3,2,-1,-1,2,0.114258,0.548828,0.711914,2.25,0.625,-3.375,0.66522,-0.120577,-2.57309
459,0,15,-1,4,-1,-3,-1,-2,0.114258,0.548828,0.711914,2.25,0.625,-3.375,0.66522,-0.120577,-2.57309
461,-5,-8,-26,-8,-2,-3,0,-4,0.125,0.546387,0.710938,2.3125,0.3125,-3.8125,0.665837,-0.120166,-2.57402
461,1,5,4,0,-2,-1,-1,0,0.125,0.546387,0.710938,2.3125,0.3125,-3.8125,0.665837,-0.120166,-2.57402
473,0,3,1,-1,-4,-2,0,-1,0.125,0.546387,0.710938,2.3125,0.3125,-3.8125,0.665837,-0.120166,-2.57402
473,0,9,11,1,-2,0,1,-1,0.125,0.546387,0.710938,2.3125,0.3125,-3.8125,0.665837,-0.120166,-2.57402
481,-3,-24,15,1,-2,-2,-1,-1,0.118652,0.549316,0.711426,4.3125,0.6875,-3.75,0.667237,-0.119345,-2.57488
481,2,3,-27,-6,1,1,-1,0,0.118652,0.549316,0.711426,4.3125,0.6875,-3.75,0.667237,-0.119345,-2.57488
504,-5,-26,-18,-1,-3,-2,-3,-3,0.118652,0.549316,0.711426,4.3125,0.6875,-3.75,0.667237,-0.119345,-2.57488
504,1,11,10,2,2,-1,0,1,0.118652,0.549316,0.711426,4.3125,0.6875,-3.75,0.667237,-0.119345,-2.57488
505,1,10,0,4,0,-2,-2,0,0.119629,0.547852,0.708984,5.3125,1.8125,-4.3125,0.668979,-0.118264,-2.57564
505,-1,-1,7,0,1,-2,-1,-1,0.119629,0.547852,0.708984,5.3125,1.8125,-4.3125,0.668979,-0.118264,-2.57564
526,-1,-1,-8,-5,-2,-1,2,0,0.119629,0.547852,0.708984,5.3125,1.8125,-4.3125,0.668979,-0.118264,-2.57564
526,2,0,12,3,0,3,-1,2,0.119629,0.547852,0.708984,5.3125,1.8125,-4.3125,0.668979,-0.118264,-2.57564
528,1,1,4,0,-1,-1,0,-1,0.119141,0.541016,0.70752,5,1.6875,-4.6875,0.67051,-0.117104,-2.57649
528,-2,2,-5,0,-2,-3,-3,-2,0.119141,0.541016,0.70752,5,1.6875,-4.6875,0.67051,-0.117104,-2.57649
534,0,6,-11,0,0,0,-2,-2,0.119141,0.541016,0.70752,5,1.6875,-4.6875,0.67051,-0.117104,-2.57649
534,-2,-14,45,-1,0,0,0,1,0.119141,0.541016,0.70752,5,1.6875,-4.6875,0.67051,-0.117104,-2.57649
548,1,-6,-33,-6,0,-2,1,0,0.113281,0.552734,0.70459,7,2.875,-4.4375,0.672765,-0.115581,-2.57701
548,-1,1,0,2,-1,0,-1,0,0.113281,0.552734,0.70459,7,2.875,-4.4375,0.672765,-0.115581,-2.57701
557,0,9,-8,-6,-1,-1,-1,-1,0.113281,0.552734,0.70459,7,2.875,-4.4375,0.672765,-0.115581,-2.57701
557,0,-8,0,0,0,-1,0,1,0.113281,0.552734,0.70459,7,2.875,-4.4375,0.672765,-0.115581,-2.57701
558,-1,6,16,-2,-1,-2,-1,-2,0.0947266,0.557617,0.710449,7.5625,3.4375,-4.1875,0.675222,-0.113541,-2.57736
558,0,7,4,2,-2,-1,0,-1,0.0947266,0.557617,0.710449,7.5625,3.4375,-4.1875,0.675222,-0.113541,-2.57736
579,1,-15,-12,3,-2,-2,0,-1,0.0947266,0.557617,0.710449,7.5625,3.4375,-4.1875,0.675222,-0.113541,-2.57736
579,-2,4,-32,-7,-2,-1,0,-1,0.0947266,0.557617,0.710449,7.5625,3.4375,-4.1875,0.675222,-0.113541,-2.57736
580,1,12,21,3,-1,0,-1,-1,0.0913086,0.561035,0.700195,6.6875,3.625,-3.875,0.677513,-0.111471,-2.57757
580,-6,-8,11,-5,1,-1,-2,-1,0.0913086,0.561035,0.700195,6.6875,3.625,-3.875,0.677513,-0.111471,-2.57757
594,2,1,13,5,1,0,0,0,0.0913086,0.561035,0.700195,6.6875,3.625,-3.875,0.677513,-0.111471,-2.57757
594,-2,-10,-13,1,1,-2,0,-2,0.0913086,0.561035,0.700195,6.6875,3.625,-3.875,0.677513,-0.111471,-2.57757
608,-4,4,11,2,-2,0,-1,-2,0.0864258,0.557617,0.700195,7.875,4.3125,-2.75,0.680131,-0.109419,-2.57733
608,-1,-4,-26,-15,-5,-1,-1,-2,0.0864258,0.557617,0.700195,7.875,4.3125,-2.75,0.680131,-0.109419,-2.57733
617,-6,-27,-44,-8,-5,-3,-3,-1,0.0864258,0.557617,0.700195,7.875,4.3125,-2.75,0.680131,-0.109419,-2.57733
617,2,10,9,-1,-3,-1,-2,-1,0.0864258,0.557617,0.700195,7.875,4.3125,-2.75,0.680131,-0.109419,-2.57733
618,0,-1,-3,6,0,2,-2,-2,0.081543,0.568848,0.689453,9.5,4.75,-1.5,0.683558,-0.107452,-2.5768
618,-2,-4,12,3,2,-1,-1,0,0.081543,0.568848,0.689453,9.5,4.75,-1.5,0.683558,-0.107452,-2.5768
640,-1,10,-16,-5,-2,-2,-2,0,0.081543,0.568848,0.689453,9.5,4.75,-1.5,0.683558,-0.107452,-2.5768
640,-2,8,-2,3,-1,-1,-2,-2,0.081543,0.568848,0.689453,9.5,4.75,-1.5,0.683558,-0.107452,-2.5768
642,-3,-15,5,-3,1,0,0,0,0.078125,0.566895,0.685059,7.8125,3.8125,-0.625,0.686314,-0.105874,-2.57606
642,0,-8,0,2,-2,0,-1,-3,0.078125,0.566895,0.685059,7.8125,3.8125,-0.625,0.686314,-0.105874,-2.57606
654,-1,4,28,0,1,2,-1,0,0.078125,0.566895,0.685059,7.8125,3.8125,-0.625,0.686314,-0.105874,-2.57606
654,1,1,-34,-2,-1,0,-1,-2,0.078125,0.566895,0.685059,7.8125,3.8125,-0.625,0.686314,-0.105874,-2.57606
661,1,0,18,-3,0,1,-1,0,0.090332,0.576172,0.695801,8.1875,4.125,-0.625,0.689182,-0.104485,-2.5753
661,-2,-9,-12,-2,-1,-1,-2,-1,0.090332,0.576172,0.695801,8.1875,4.125,-0.625,0.689182,-0.104485,-2.5753
677,-1,4,4,2,-1,0,0,-2,0.090332,0.576172,0.695801,8.1875,4.125,-0.625,0.689182,-0.104485,-2.5753
677,1,-3,19,3,-1,0,1,1,0.090332,0.576172,0.695801,8.1875,4.125,-0.625,0.689182,-0.104485,-2.5753
678,-1,8,0,-10,-6,-4,-1,-3,0.0810547,0.58252,0.681152,7.75,3.625,0.5,0.692136,-0.103332,-2.57434
678,-2,-40,-19,-2,-1,-2,1,-1,0.0810547,0.58252,0.681152,7.75,3.625,0.5,0.692136,-0.103332,-2.57434
699,0,18,8,3,1,-1,-1,-1,0.0810547,0.58252,0.681152,7.75,3.625,0.5,0.692136,-0.103332,-2.57434
699,-3,-1,9,-2,-4,-4,-3,-1,0.0810547,0.58252,0.681152,7.75,3.625,0.5,0.692136,-0.103332,-2.57434
701,2,7,-13,-1,-1,0,-1,1,0.0869141,0.585938,0.67334,5.375,2.375,1.75,0.69431,-0.103002,-2.57341
701,-2,9,15,4,-1,0,0,0,0.0869141,0.585938,0.67334,5.375,2.375,1.75,0.69431,-0.103002,-2.57341
714,1,12,44,2,1,1,-1,0,0.0869141,0.585938,0.67334,5.375,2.375,1.75,0.69431,-0.103002,-2.57341
714,-5,-26,-52,-7,1,1,0,-3,0.0869141,0.585938,0.67334,5.375,2.375,1.75,0.69431,-0.103002,-2.57341
720,0,-3,-8,2,2,2,0,1,0.0742188,0.582031,0.679199,2.875,1.5625,2.3125,0.695554,-0.102678,-2.57244
720,2,-2,-6,0,2,1,-1,1,0.0742188,0.582031,0.679199,2.875,1.5625,2.3125,0.695554,-0.102678,-2.57244
737,-1,10,19,-3,-4,-4,-1,-2,0.0742188,0.582031,0.679199,2.875,1.5625,2.3125,0.695554,-0.102678,-2.57244
737,2,5,3,2,2,-2,2,-1,0.0742188,0.582031,0.679199,2.875,1.5625,2.3125,0.695554,-0.102678,-2.57244
738,-3,3,5,-3,-2,-3,-1,-1,0.0761719,0.586914,0.669434,2.875,0.625,1.875,0.696997,-0.10256,-2.57181
738,-4,5,-6,2,0,-2,-2,-2,0.0761719,0.586914,0.669434,2.875,0.625,1.875,0.696997,-0.10256,-2.57181
759,0,0,-23,0,0,1,1,-1,0.0761719,0.586914,0.669434,2.875,0.625,1.875,0.696997,-0.10256,-2.57181
759,-1,-10,17,-3,-1,0,-1,0,0.0761719,0.586914,0.669434,2.875,0.625,1.875,0.696997,-0.10256,-2.57181
761,-2,-13,-18,0,0,0,0,-1,0.0805664,0.585938,0.679688,2.3125,-0.375,2.6875,0.697999,-0.102965,-2.57118
761,2,16,2,-4,-2,-3,0,0,0.0805664,0.585938,0.679688,2.3125,-0.375,2.6875,0.697999,-0.102965,-2.57118
773,-3,-12,4,-4,-2,-1,-4,-1,0.0805664,0.585938,0.679688,2.3125,-0.375,2.6875,0.697999,-0.102965,-2.57118
773,-4,0,11,-2,-3,-1,0,-3,0.0805664,0.585938,0.679688,2.3125,-0.375,2.6875,0.697999,-0.102965,-2.57118
789,5,23,12,4,0,-2,0,-1,0.0830078,0.59082,0.679688,0.375,-1.875,3.625,0.698555,-0.103997,-2.57069
789,1,9,-16,-1,1,0,0,0,0.0830078,0.59082,0.679688,0.375,-1.875,3.625,0.698555,-0.103997,-2.57069
795,-3,-18,7,-2,-4,-2,-1,-2,0.0830078,0.59082,0.679688,0.375,-1.875,3.625,0.698555,-0.103997,-2.57069
795,-2,-4,-3,0,-2,0,1,1,0.0830078,0.59082,0.679688,0.375,-1.875,3.625,0.698555,-0.103997,-2.57069
804,-1,-1,12,-2,-1,-2,-2,0,0.0917969,0.586914,0.66748,-2.4375,-3.4375,3.1875,0.698136,-0.105532,-2.57056
804,0,6,18,0,-1,1,-2,-1,0.0917969,0.586914,0.66748,-2.4375,-3.4375,3.1875,0.698136,-0.105532,-2.57056
826,0,7,-45,-5,0,1,0,-2,0.0917969,0.586914,0.66748,-2.4375,-3.4375,3.1875,0.698136,-0.105532,-2.57056
826,-3,-21,-5,1,-2,2,-3,-1,0.0917969,0.586914,0.66748,-2.4375,-3.4375,3.1875,0.698136,-0.105532,-2.57056
828,-4,-20,-1,1,-2,-1,-2,-3,0.0961914,0.577637,0.682617,-1.875,-3.25,2.875,0.697607,-0.106984,-2.57057
828,2,19,6,-3,-3,-2,0,0,0.0961914,0.577637,0.682617,-1.875,-3.25,2.875,0.697607,-0.106984,-2.57057
832,-2,-14,-4,-1,1,0,-1,-1,0.0961914,0.577637,0.682617,-1.875,-3.25,2.875,0.697607,-0.106984,-2.57057
832,1,-5,-7,-2,0,-1,1,-2,0.0961914,0.577637,0.682617,-1.875,-3.25,2.875,0.697607,-0.106984,-2.57057
841,-8,-16,-19,-5,-1,-2,-2,-5,0.0927734,0.57959,0.688965,-1.4375,-3.8125,2.4375,0.697178,-0.108539,-2.57075
841,1,-3,36,4,1,0,0,-1,0.0927734,0.57959,0.688965,-1.4375,-3.8125,2.4375,0.697178,-0.108539,-2.57075
857,-1,3,-21,1,-2,-3,-1,-1,0.0927734,0.57959,0.688965,-1.4375,-3.8125,2.4375,0.697178,-0.108539,-2.57075
857,1,12,-28,-3,-2,0,-2,0,0.0927734,0.57959,0.688965,-1.4375,-3.8125,2.4375,0.697178,-0.108539,-2.57075
858,1,-8,3,-1,-2,-1,-1,-1,0.103516,0.579102,0.692383,-2.25,-4.1875,1.5625,0.696425,-0.110113,-2.57129
858,-2,2,30,0,-1,-2,0,-1,0.103516,0.579102,0.692383,-2.25,-4.1875,1.5625,0.696425,-0.110113,-2.57129
879,-3,-6,-9,-1,0,-2,-1,-1,0.103516,0.579102,0.692383,-2.25,-4.1875,1.5625,0.696425,-0.110113,-2.57129
879,-1,4,41,1,-1,-2,-1,-1,0.103516,0.579102,0.692383,-2.25,-4.1875,1.5625,0.696425,-0.110113,-2.57129
880,2,2,-25,-3,0,-1,-1,0,0.108887,0.58252,0.697754,-2.875,-3.875,1.4375,0.695606,-0.11158,-2.57175
880,-2,-8,-8,3,2,1,-2,-2,0.108887,0.58252,0.697754,-2.875,-3.875,1.4375,0.695606,-0.11158,-2.57175
893,0,4,37,-1,0,0,1,-1,0.108887,0.58252,0.697754,-2.875,-3.875,1.4375,0.695606,-0.11158,-2.57175
893,-2,11,-24,1,-1,-1,-4,-2,0.108887,0.58252,0.697754,-2.875,-3.875,1.4375,0.695606,-0.11158,-2.57175
902,-2,-14,20,-1,-2,-1,0,0,0.110352,0.57666,0.684082,-2.875,-3.75,0.875,0.69478,-0.112963,-2.57239
902,0,6,17,0,-1,0,-1,-1,0.110352,0.57666,0.684082,-2.875,-3.75,0.875,0.69478,-0.112963,-2.57239
917,-1,-2,-33,-2,-2,-1,-1,-1,0.110352,0.57666,0.684082,-2.875,-3.75,0.875,0.69478,-0.112963,-2.57239
917,-3,-3,5,-3,-1,-2,1,-2,0.110352,0.57666,0.684082,-2.875,-3.75,0.875,0.69478,-0.112963,-2.57239
918,0,5,-10,-1,2,1,1,1,0.105469,0.571289,0.69043,-3.5,-3.5625,0.1875,0.693497,-0.114046,-2.57311
918,-2,-9,-32,1,-1,-1,0,-1,0.105469,0.571289,0.69043,-3.5,-3.5625,0.1875,0.693497,-0.114046,-2.57311
939,2,20,28,1,-2,-1,-1,-2,0.105469,0.571289,0.69043,-3.5,-3.5625,0.1875,0.693497,-0.114046,-2.57311
939,-2,-5,6,-3,-2,-2,-1,-2,0.105469,0.571289,0.69043,-3.5,-3.5625,0.1875,0.693497,-0.114046,-2.57311
940,-2,-15,-25,-1,-1,-1,-1,-1,0.117188,0.580078,0.6875,-2,-2.4375,-0.875,0.69311,-0.114866,-2.57385
940,-1,-5,4,-3,-1,-3,-1,0,0.117188,0.580078,0.6875,-2,-2.4375,-0.875,0.69311,-0.114866,-2.57385
953,-1,-15,4,2,0,0,-2,-1,0.117188,0.580078,0.6875,-2,-2.4375,-0.875,0.69311,-0.114866,-2.57385
953,-3,0,38,-1,-1,-1,0,-1,0.117188,0.580078,0.6875,-2,-2.4375,-0.875,0.69311,-0.114866,-2.57385
961,-2,0,-11,-4,-3,-2,-1,-1,0.106934,0.576172,0.694824,-0.25,-1.125,-1.3125,0.693055,-0.114871,-2.57447
961,0,3,1,-1,-5,-1,-1,-1,0.106934,0.576172,0.694824,-0.25,-1.125,-1.3125,0.693055,-0.114871,-2.57447
977,1,0,-7,-3,-2,-1,0,-2,0.106934,0.576172,0.694824,-0.25,-1.125,-1.3125,0.693055,-0.114871,-2.57447
977,1,-1,-11,3,2,1,-1,0,0.106934,0.576172,0.694824,-0.25,-1.125,-1.3125,0.693055,-0.114871,-2.57447
978,-1,-1,23,0,-3,0,-2,-2,0.0957031,0.584961,0.694824,-1,-0.125,-1.6875,0.692893,-0.114404,-2.57487
978,2,16,18,2,-1,0,1,-2,0.0957031,0.584961,0.694824,-1,-0.125,-1.6875,0.692893,-0.114404,-2.57487
999,-6,-26,-76,-12,-2,-3,-3,-5,0.0957031,0.584961,0.694824,-1,-0.125,-1.6875,0.692893,-0.114404,-2.57487
999,3,7,19,4,1,-2,-1,1,0.0957031,0.584961,0.694824,-1,-0.125,-1.6875,0.692893,-0.114404,-2.57487
1001,0,5,2,-3,0,0,1,1,0.0883789,0.574707,0.696289,-1.75,0.1875,-1.5,0.692273,-0.113636,-2.57534
1001,0,-13,-10,-1,-1,0,-2,-2,0.0883789,0.574707,0.696289,-1.75,0.1875,-1.5,0.692273,-0.113636,-2.57534
1013,1,15,30,4,3,0,1,1,0.0883789,0.574707,0.696289,-1.75,0.1875,-1.5,0.692273,-0.113636,-2.57534
1013,-1,-12,-24,-3,-1,-3,-2,0,0.0883789,0.574707,0.696289,-1.75,0.1875,-1.5,0.692273,-0.113636,-2.57534
1037,-1,5,8,-2,-2,-2,-3,0,0.0966797,0.562012,0.694824,-3,-0.375,-1.1875,0.691113,-0.113289,-2.57565
1037,1,13,-3,2,-2,-2,-1,-2,0.0966797,0.562012,0.694824,-3,-0.375,-1.1875,0.691113,-0.113289,-2.57565
1038,-1,-3,3,2,-2,3,0,1,0.0966797,0.562012,0.694824,-3,-0.375,-1.1875,0.691113,-0.113289,-2.57565
1038,1,7,-3,-3,-2,1,-1,-1,0.0966797,0.562012,0.694824,-3,-0.375,-1.1875,0.691113,-0.113289,-2.57565
1040,-1,1,3,2,-1,0,-1,-1,0.108398,0.565918,0.693848,-0.625,0.6875,-1.375,0.690788,-0.112982,-2.57586
1040,1,2,-4,-4,0,0,1,2,0.108398,0.565918,0.693848,-0.625,0.6875,-1.375,0.690788,-0.112982,-2.57586
1059,-1,1,-31,-1,-2,-2,-2,-2,0.108398,0.565918,0.693848,-0.625,0.6875,-1.375,0.690788,-0.112982,-2.57586
1059,-1,2,7,-1,-1,-1,-3,-1,0.108398,0.565918,0.693848,-0.625,0.6875,-1.375,0.690788,-0.112982,-2.57586
1060,-2,1,8,1,-1,0,0,-2,0.104004,0.578613,0.689453,0.4375,1.6875,-1.75,0.691114,-0.11223,-2.57596
1060,-1,-13,-13,-2,1,-2,-3,0,0.104004,0.578613,0.689453,0.4375,1.6875,-1.75,0.691114,-0.11223,-2.57596
1089,2,3,20,4,0,1,1,3,0.104004,0.578613,0.689453,0.4375,1.6875,-1.75,0.691114,-0.11223,-2.57596
1089,2,11,18,-1,-1,0,-1,-1,0.104004,0.578613,0.689453,0.4375,1.6875,-1.75,0.691114,-0.11223,-2.57596
1091,-2,6,21,6,2,0,0,-1,0.105957,0.579102,0.688965,-0.0625,1.4375,-1.5625,0.691305,-0.11159,-2.57606
1091,-4,-17,-43,-8,-1,0,0,-1,0.105957,0.579102,0.688965,-0.0625,1.4375,-1.5625,0.691305,-0.11159,-2.57606
1104,-1,0,27,2,-2,-1,0,0,0.105957,0.579102,0.688965,-0.0625,1.4375,-1.5625,0.691305,-0.11159,-2.57606
1104,-1,2,-6,-2,0,-1,0,-1,0.105957,0.579102,0.688965,-0.0625,1.4375,-1.5625,0.691305,-0.11159,-2.57606
1105,2,-5,9,1,1,-2,0,-1,0.104004,0.573242,0.693848,-0.5,1.125,-2,0.691072,-0.110869,-2.57635
1105,-1,7,14,2,-1,0,-1,0,0.104004,0.573242,0.693848,-0.5,1.125,-2,0.691072,-0.110869,-2.57635
1119,-3,-6,5,-1,1,0,-2,-1,0.104004,0.573242,0.693848,-0.5,1.125,-2,0.691072,-0.110869,-2.57635
1119,0,-3,-22,-2,-2,-3,-2,-1,0.104004,0.573242,0.693848,-0.5,1.125,-2,0.691072,-0.110869,-2.57635
1125,-1,4,3,-1,-1,-1,-2,-1,0.106934,0.564453,0.693848,-1,1.0625,-2.375,0.690666,-0.110328,-2.57676
1125,-2,-4,-1,0,0,0,0,-1,0.106934,0.564453,0.693848,-1,1.0625,-2.375,0.690666,-0.110328,-2.57676
1142,2,13,2,-3,-2,-3,1,1,0.106934,0.564453,0.693848,-1,1.0625,-2.375,0.690666,-0.110328,-2.57676
1142,-3,-27,-42,-3,-2,-1,-2,0,0.106934,0.564453,0.693848,-1,1.0625,-2.375,0.690666,-0.110328,-2.57676
1143,-1,-2,-1,-1,-2,-1,-1,1,0.100586,0.568848,0.698242,0.875,1.75,-2.8125,0.690773,-0.109309,-2.57703
1143,-1,-4,-43,0,0,-1,-1,0,0.100586,0.568848,0.698242,0.875,1.75,-2.8125,0.690773,-0.109309,-2.57703
1164,1,4,3,-2,1,-3,-1,-1,0.100586,0.568848,0.698242,0.875,1.75,-2.8125,0.690773,-0.109309,-2.57703
1164,-2,-5,24,0,-2,0,0,-2,0.100586,0.568848,0.698242,0.875,1.75,-2.8125,0.690773,-0.109309,-2.57703
1165,-2,2,-5,-4,-1,-1,-1,-2,0.101562,0.591797,0.691895,2.1875,2.8125,-3.6875,0.692007,-0.107791,-2.57746
1165,0,0,-4,4,-2,0,1,-1,0.101562,0.591797,0.691895,2.1875,2.8125,-3.6875,0.692007,-0.107791,-2.57746
1178,2,-3,13,-3,-3,-2,-1,-1,0.101562,0.591797,0.691895,2.1875,2.8125,-3.6875,0.692007,-0.107791,-2.57746
1178,-4,1,7,-6,-2,0,-2,-2,0.101562,0.591797,0.691895,2.1875,2.8125,-3.6875,0.692007,-0.107791,-2.57746
1185,-1,-13,-21,-1,-1,-2,0,-1,0.090332,0.598633,0.694336,-0.875,4,-3.5,0.692134,-0.105774,-2.57755
1185,-3,5,13,-4,-4,-4,-3,-3,0.090332,0.598633,0.694336,-0.875,4,-3.5,0.692134,-0.105774,-2.57755
1201,0,-2,-1,2,0,0,-2,-1,0.090332,0.598633,0.694336,-0.875,4,-3.5,0.692134,-0.105774,-2.57755
1201,1,3,20,4,-1,-2,-1,0,0.090332,0.598633,0.694336,-0.875,4,-3.5,0.692134,-0.105774,-2.57755
1203,0,8,-11,-5,-3,-3,0,-1,0.0883789,0.575195,0.690918,-3.375,3.9375,-3.75,0.691017,-0.103764,-2.57766
1203,0,-15,4,0,-2,-2,-1,-2,0.0883789,0.575195,0.690918,-3.375,3.9375,-3.75,0.691017,-0.103764,-2.57766
1224,1,4,-2,0,0,0,-1,1,0.0883789,0.575195,0.690918,-3.375,3.9375,-3.75,0.691017,-0.103764,-2.57766
1224,1,-4,-16,-2,-1,0,0,-1,0.0883789,0.575195,0.690918,-3.375,3.9375,-3.75,0.691017,-0.103764,-2.57766
1225,0,7,8,4,0,-1,-1,-2,0.0961914,0.575684,0.701172,-1.6875,5.1875,-5.3125,0.690374,-0.101224,-2.57785
1225,-1,-12,-8,2,0,2,1,0,0.0961914,0.575684,0.701172,-1.6875,5.1875,-5.3125,0.690374,-0.101224,-2.57785
1238,-1,-2,-27,-7,-5,-4,-2,-1,0.0961914,0.575684,0.701172,-1.6875,5.1875,-5.3125,0.690374,-0.101224,-2.57785
1238,1,3,11,4,1,0,0,0,0.0961914,0.575684,0.701172,-1.6875,5.1875,-5.3125,0.690374,-0.101224,-2.57785
1245,-1,-7,-13,-4,-2,-1,0,-1,0.0913086,0.589844,0.70166,2.125,6.625,-6.375,0.69134,-0.0980419,-2.57813
1245,-2,7,26,2,1,0,-4,0,0.0913086,0.589844,0.70166,2.125,6.625,-6.375,0.69134,-0.0980419,-2.57813
1262,-2,2,18,4,-1,0,-1,-1,0.0913086,0.589844,0.70166,2.125,6.625,-6.375,0.69134,-0.0980419,-2.57813
1262,-1,-4,-47,-8,-2,-2,0,-1,0.0913086,0.589844,0.70166,2.125,6.625,-6.375,0.69134,-0.0980419,-2.57813
1263,-3,-11,-16,0,0,0,1,-4,0.0869141,0.589844,0.699219,0.375,6.8125,-7.125,0.691711,-0.0946303,-2.57857
1263,-2,10,35,-4,-2,-2,-2,-3,0.0869141,0.589844,0.699219,0.375,6.8125,-7.125,0.691711,-0.0946303,-2.57857
1284,-1,-5,6,0,-1,0,0,0,0.0869141,0.589844,0.699219,0.375,6.8125,-7.125,0.691711,-0.0946303,-2.57857
1284,-2,2,6,4,0,-1,-3,-3,0.0869141,0.589844,0.699219,0.375,6.8125,-7.125,0.691711,-0.0946303,-2.57857
1286,0,-1,-37,-9,-3,-1,0,1,0.0791016,0.578125,0.698242,-2.25,7.125,-7.8125,0.691075,-0.090888,-2.57907
1286,-1,-3,0,-2,-1,-1,0,0,0.0791016,0.578125,0.698242,-2.25,7.125,-7.8125,0.691075,-0.090888,-2.57907
1298,-1,-7,-3,0,1,-1,1,-1,0.0791016,0.578125,0.698242,-2.25,7.125,-7.8125,0.691075,-0.090888,-2.57907
1298,-1,2,34,-1,1,0,1,2,0.0791016,0.578125,0.698242,-2.25,7.125,-7.8125,0.691075,-0.090888,-2.57907
1307,-1,-3,-49,-1,-1,1,-2,0,0.0795898,0.567383,0.695312,-2.5,7.125,-7.9375,0.690129,-0.0872929,-2.57965
1307,-1,-7,-4,-3,-3,-2,-2,-2,0.0795898,0.567383,0.695312,-2.5,7.125,-7.9375,0.690129,-0.0872929,-2.57965
1337,-1,9,7,2,0,-2,-2,-1,0.0795898,0.567383,0.695312,-2.5,7.125,-7.9375,0.690129,-0.0872929,-2.57965
1337,-2,1,55,0,0,0,3,-1,0.0795898,0.567383,0.695312,-2.5,7.125,-7.9375,0.690129,-0.0872929,-2.57965
1338,-2,-1,-17,-6,-2,-3,-2,-4,0.0756836,0.578125,0.702148,-1.9375,7.5625,-8.3125,0.689396,-0.0834088,-2.58008
1338,-1,-2,-3,3,-1,-2,0,2,0.0756836,0.578125,0.702148,-1.9375,7.5625,-8.3125,0.689396,-0.0834088,-2.58008
1344,-2,-3,9,-2,0,-1,-2,0,0.0756836,0.578125,0.702148,-1.9375,7.5625,-8.3125,0.689396,-0.0834088,-2.58008
1344,-3,9,-3,1,-2,-1,-5,-1,0.0756836,0.578125,0.702148,-1.9375,7.5625,-8.3125,0.689396,-0.0834088,-2.58008
1346,-1,10,7,-3,-2,-1,-2,-2,0.0703125,0.578613,0.699219,-2.1875,8.0625,-8.75,0.688756,-0.0792163,-2.58073
1346,-2,-9,3,1,-1,-2,-2,-1,0.0703125,0.578613,0.699219,-2.1875,8.0625,-8.75,0.688756,-0.0792163,-2.58073
1358,2,-8,-4,1,-1,0,-1,0,0.0703125,0.578613,0.699219,-2.1875,8.0625,-8.75,0.688756,-0.0792163,-2.58073
1358,0,3,-5,-3,0,-2,-2,-1,0.0703125,0.578613,0.699219,-2.1875,8.0625,-8.75,0.688756,-0.0792163,-2.58073
1367,2,6,20,1,1,1,0,1,0.0644531,0.57373,0.688477,-2.6875,7.875,-8.3125,0.688065,-0.075224,-2.58114
1367,-2,-2,-13,-1,-2,0,-2,-2,0.0644531,0.57373,0.688477,-2.6875,7.875,-8.3125,0.688065,-0.075224,-2.58114
1382,0,6,23,-1,-2,-3,-1,-1,0.0644531,0.57373,0.688477,-2.6875,7.875,-8.3125,0.688065,-0.075224,-2.58114
1382,-2,-8,-35,-6,-3,-3,-2,-2,0.0644531,0.57373,0.688477,-2.6875,7.875,-8.3125,0.688065,-0.075224,-2.58114
1384,0,2,24,3,-1,-3,-1,-1,0.065918,0.563477,0.698242,-4.25,7.5,-8.1875,0.686342,-0.0714261,-2.58162
1384,-1,-9,-6,-2,0,0,-2,-2,0.065918,0.563477,0.698242,-4.25,7.5,-8.1875,0.686342,-0.0714261,-2.58162
1405,-4,-3,8,1,-1,-1,0,0,0.065918,0.563477,0.698242,-4.25,7.5,-8.1875,0.686342,-0.0714261,-2.58162
1405,2,3,-5,-2,-2,1,2,0,0.065918,0.563477,0.698242,-4.25,7.5,-8.1875,0.686342,-0.0714261,-2.58162
1406,-3,4,12,3,-2,-1,1,-1,0.0527344,0.552246,0.697266,-2.4375,7.625,-8.125,0.685311,-0.0673213,-2.58212
1406,0,0,5,-2,-3,-1,0,-1,0.0527344,0.552246,0.697266,-2.4375,7.625,-8.125,0.685311,-0.0673213,-2.58212
1417,-2,5,-15,0,2,-1,-2,-3,0.0527344,0.552246,0.697266,-2.4375,7.625,-8.125,0.685311,-0.0673213,-2.58212
1417,-3,-10,-1,0,-2,-1,-1,-2,0.0527344,0.552246,0.697266,-2.4375,7.625,-8.125,0.685311,-0.0673213,-2.58212
1427,0,-8,3,1,0,0,-1,0,0.046875,0.561523,0.696289,-0.5625,7.9375,-8.25,0.685074,-0.0631776,-2.5826
1427,-6,-11,-21,-10,0,0,1,-1,0.046875,0.561523,0.696289,-0.5625,7.9375,-8.25,0.685074,-0.0631776,-2.5826
1442,2,5,-5,3,-2,-1,-1,-1,0.046875,0.561523,0.696289,-0.5625,7.9375,-8.25,0.685074,-0.0631776,-2.5826
1442,0,-2,5,0,-1,-1,-3,0,0.046875,0.561523,0.696289,-0.5625,7.9375,-8.25,0.685074,-0.0631776,-2.5826
1443,-3,-4,10,-4,-3,-2,-5,-2,0.0415039,0.560547,0.704102,-0.1875,7,-7.625,0.684739,-0.0592632,-2.58307
1443,-2,5,0,0,-1,0,-3,-2,0.0415039,0.560547,0.704102,-0.1875,7,-7.625,0.684739,-0.0592632,-2.58307
1465,2,-7,-2,-3,0,-2,0,-1,0.0415039,0.560547,0.704102,-0.1875,7,-7.625,0.684739,-0.0592632,-2.58307
1465,-4,-10,-13,-3,-1,0,3,-4,0.0415039,0.560547,0.704102,-0.1875,7,-7.625,0.684739,-0.0592632,-2.58307
1466,0,7,12,0,-1,-1,0,-1,0.050293,0.555664,0.691406,-1.875,5.875,-7.4375,0.683952,-0.0560806,-2.5838
1466,3,2,2,2,0,-1,0,-1,0.050293,0.555664,0.691406,-1.875,5.875,-7.4375,0.683952,-0.0560806,-2.5838
1478,-5,-2,9,1,-2,-1,0,-2,0.050293,0.555664,0.691406,-1.875,5.875,-7.4375,0.683952,-0.0560806,-2.5838
1478,1,-6,7,-3,-4,-1,-1,-1,0.050293,0.555664,0.691406,-1.875,5.875,-7.4375,0.683952,-0.0560806,-2.5838
1492,0,4,-9,2,2,-2,1,1,0.0439453,0.562988,0.694824,-0.6875,5.125,-7.0625,0.68365,-0.0530463,-2.58449
1492,0,-2,13,-3,-3,-2,1,-1,0.0439453,0.562988,0.694824,-0.6875,5.125,-7.0625,0.68365,-0.0530463,-2.58449
1502,0,-1,-7,1,1,1,0,0,0.0439453,0.562988,0.694824,-0.6875,5.125,-7.0625,0.68365,-0.0530463,-2.58449
1502,-1,-6,5,2,-1,-2,-1,-1,0.0439453,0.562988,0.694824,-0.6875,5.125,-7.0625,0.68365,-0.0530463,-2.58449
1504,-2,-9,-6,-2,-1,-1,0,0,0.0385742,0.5625,0.691895,0.625,4.125,-6.25,0.683927,-0.0504049,-2.58535
1504,1,14,6,1,0,-1,-1,0,0.0385742,0.5625,0.691895,0.625,4.125,-6.25,0.683927,-0.0504049,-2.58535
1532,-1,-1,-6,1,-2,-2,-1,-2,0.0385742,0.5625,0.691895,0.625,4.125,-6.25,0.683927,-0.0504049,-2.58535
1532,-1,3,2,-1,2,0,0,0,0.0385742,0.5625,0.691895,0.625,4.125,-6.25,0.683927,-0.0504049,-2.58535
1533,4,8,7,-5,-2,-1,0,1,0.0390625,0.563477,0.690918,1.25,3.4375,-7.0625,0.684397,-0.0478669,-2.5864
1533,-2,-15,-10,3,-1,-1,-4,-3,0.0390625,0.563477,0.690918,1.25,3.4375,-7.0625,0.684397,-0.0478669,-2.5864
1538,1,28,-3,-4,-3,-2,-2,-2,0.0390625,0.563477,0.690918,1.25,3.4375,-7.0625,0.684397,-0.0478669,-2.5864
1538,-1,4,-1,3,-1,1,0,1,0.0390625,0.563477,0.690918,1.25,3.4375,-7.0625,0.684397,-0.0478669,-2.5864
1547,0,-12,19,-1,-2,-1,-2,-2,0.0297852,0.566406,0.693359,3.1875,3.1875,-6.625,0.68559,-0.0452784,-2.58748
1547,-2,10,7,1,-1,1,-2,-1,0.0297852,0.566406,0.693359,3.1875,3.1875,-6.625,0.68559,-0.0452784,-2.58748
1568,-1,-9,-22,-5,0,-1,-1,-2,0.0297852,0.566406,0.693359,3.1875,3.1875,-6.625,0.68559,-0.0452784,-2.58748
1568,1,3,0,-3,-2,-2,-1,-1,0.0297852,0.566406,0.693359,3.1875,3.1875,-6.625,0.68559,-0.0452784,-2.58748
1577,0,6,7,3,0,0,-1,0,0.0214844,0.563477,0.691406,4.0625,2.5,-6.3125,0.687017,-0.0427219,-2.58863
1577,-1,-7,-25,-6,-3,-2,0,-2,0.0214844,0.563477,0.691406,4.0625,2.5,-6.3125,0.687017,-0.0427219,-2.58863
1591,-2,-7,1,1,1,-1,0,-1,0.0214844,0.563477,0.691406,4.0625,2.5,-6.3125,0.687017,-0.0427219,-2.58863
1591,1,11,9,0,-1,-3,0,-1,0.0214844,0.563477,0.691406,4.0625,2.5,-6.3125,0.687017,-0.0427219,-2.58863
1593,-2,-19,-20,-3,0,0,-3,-1,0.0175781,0.569336,0.685059,2.5625,1.4375,-5.5625,0.687997,-0.0406921,-2.58979
1593,2,13,3,1,0,-1,-1,0,0.0175781,0.569336,0.685059,2.5625,1.4375,-5.5625,0.687997,-0.0406921,-2.58979
1598,-2,-11,10,-3,-2,1,-3,-2,0.0175781,0.569336,0.685059,2.5625,1.4375,-5.5625,0.687997,-0.0406921,-2.58979
1598,-3,-8,-31,-6,-4,1,-1,-1,0.0175781,0.569336,0.685059,2.5625,1.4375,-5.5625,0.687997,-0.0406921,-2.58979
1613,-2,3,6,0,0,0,1,-2,0.0166016,0.57959,0.683594,1.3125,0.625,-4.8125,0.688813,-0.0389216,-2.59088
1613,0,-3,-8,-1,0,1,0,-1,0.0166016,0.57959,0.683594,1.3125,0.625,-4.8125,0.688813,-0.0389216,-2.59088
1622,1,7,14,2,-2,0,0,2,0.0166016,0.57959,0.683594,1.3125,0.625,-4.8125,0.688813,-0.0389216,-2.59088
1622,-2,0,3,-1,-3,-1,-3,-2,0.0166016,0.57959,0.683594,1.3125,0.625,-4.8125,0.688813,-0.0389216,-2.59088
1628,-1,-18,-10,-3,-3,-3,-2,-1,0.015625,0.574707,0.690918,0,-0.375,-3.9375,0.68904,-0.0377483,-2.59207
1628,-2,-3,-33,1,0,-3,1,0,0.015625,0.574707,0.690918,0,-0.375,-3.9375,0.68904,-0.0377483,-2.59207
1644,-2,-15,-9,-3,-1,-3,-1,-1,0.015625,0.574707,0.690918,0,-0.375,-3.9375,0.68904,-0.0377483,-2.59207
1644,-1,-2,7,-1,-2,-1,-3,-1,0.015625,0.574707,0.690918,0,-0.375,-3.9375,0.68904,-0.0377483,-2.59207
1646,-2,7,16,2,2,1,-1,-1,0.0229492,0.572266,0.688965,-0.6875,-1.5,-4,0.688843,-0.0370542,-2.59345
1646,0,0,-8,-1,0,-2,-2,0,0.0229492,0.572266,0.688965,-0.6875,-1.5,-4,0.688843,-0.0370542,-2.59345
1659,-3,-2,6,0,-1,0,-3,-2,0.0229492,0.572266,0.688965,-0.6875,-1.5,-4,0.688843,-0.0370542,-2.59345
1659,-3,5,-5,1,2,0,-1,1,0.0229492,0.572266,0.688965,-0.6875,-1.5,-4,0.688843,-0.0370542,-2.59345
1683,-2,-7,-2,-3,-2,0,0,-2,0.0283203,0.57373,0.685547,0.25,-1.8125,-3.75,0.689297,-0.0365284,-2.59491
1683,-1,-6,8,1,0,1,1,0,0.0283203,0.57373,0.685547,0.25,-1.8125,-3.75,0.689297,-0.0365284,-2.59491
1685,1,8,18,-4,-1,-1,-1,-1,0.0283203,0.57373,0.685547,0.25,-1.8125,-3.75,0.689297,-0.0365284,-2.59491
1685,1,6,17,2,1,-1,-1,-2,0.0283203,0.57373,0.685547,0.25,-1.8125,-3.75,0.689297,-0.0365284,-2.59491
1688,-1,3,24,2,-3,-1,-2,-2,0.019043,0.577148,0.693359,0.125,-2.1875,-2.9375,0.689383,-0.036209,-2.59619
1688,-2,-12,-15,-5,-3,-1,-4,-1,0.019043,0.577148,0.693359,0.125,-2.1875,-2.9375,0.689383,-0.036209,-2.59619
1705,-4,-14,6,3,-1,0,0,-1,0.019043,0.577148,0.693359,0.125,-2.1875,-2.9375,0.689383,-0.036209,-2.59619
1705,2,21,-11,-1,-1,-1,0,1,0.019043,0.577148,0.693359,0.125,-2.1875,-2.9375,0.689383,-0.036209,-2.59619
1706,0,2,-13,1,2,1,0,1,0.0175781,0.564453,0.692871,-0.375,-3.1875,-3.1875,0.689185,-0.0360292,-2.59765
1706,3,9,57,0,-3,-1,-1,-1,0.0175781,0.564453,0.692871,-0.375,-3.1875,-3.1875,0.689185,-0.0360292,-2.59765
1727,-1,-8,-18,-1,-2,-3,-1,-2,0.0175781,0.564453,0.692871,-0.375,-3.1875,-3.1875,0.689185,-0.0360292,-2.59765
1727,2,0,17,-1,0,1,0,-1,0.0175781,0.564453,0.692871,-0.375,-3.1875,-3.1875,0.689185,-0.0360292,-2.59765
1728,-2,-2,-38,-7,-2,-1,-2,-2,0.0244141,0.564941,0.688477,-1.3125,-4.125,-3.0625,0.688869,-0.0362427,-2.59943
1728,0,8,-13,3,-3,-1,-1,-1,0.0244141,0.564941,0.688477,-1.3125,-4.125,-3.0625,0.688869,-0.0362427,-2.59943
1741,0,-2,-14,-2,-2,-1,-1,1,0.0244141,0.564941,0.688477,-1.3125,-4.125,-3.0625,0.688869,-0.0362427,-2.59943
1741,-2,-10,-4,0,-3,-1,-2,-1,0.0244141,0.564941,0.688477,-1.3125,-4.125,-3.0625,0.688869,-0.0362427,-2.59943
1742,3,10,20,1,0,0,0,0,0.03125,0.570801,0.696289,0.1875,-4.125,-1.8125,0.688957,-0.0369515,-2.60087
1742,1,-10,-11,-1,-1,0,1,1,0.03125,0.570801,0.696289,0.1875,-4.125,-1.8125,0.688957,-0.0369515,-2.60087
1764,0,11,39,-2,-2,0,0,-2,0.03125,0.570801,0.696289,0.1875,-4.125,-1.8125,0.688957,-0.0369515,-2.60087
1764,-2,-4,-26,1,-2,-3,-3,-3,0.03125,0.570801,0.696289,0.1875,-4.125,-1.8125,0.688957,-0.0369515,-2.60087
1765,-5,-7,6,-1,-1,-2,-1,-2,0.0258789,0.571777,0.699707,-0.875,-4.25,-1.5625,0.688574,-0.0374556,-2.60213
1765,-1,11,5,1,1,0,-1,-2,0.0258789,0.571777,0.699707,-0.875,-4.25,-1.5625,0.688574,-0.0374556,-2.60213
1787,1,1,-7,3,1,0,-1,2,0.0258789,0.571777,0.699707,-0.875,-4.25,-1.5625,0.688574,-0.0374556,-2.60213
1787,2,12,32,-1,-1,0,0,-1,0.0258789,0.571777,0.699707,-0.875,-4.25,-1.5625,0.688574,-0.0374556,-2.60213
1789,-2,1,-27,-6,-3,-2,-3,-4,0.0317383,0.567871,0.704102,-1,-4,-2.5,0.688037,-0.03795,-2.60367
1789,-3,-7,-31,-3,-1,-1,0,-2,0.0317383,0.567871,0.704102,-1,-4,-2.5,0.688037,-0.03795,-2.60367
1802,-1,0,-13,2,0,1,-2,-1,0.0317383,0.567871,0.704102,-1,-4,-2.5,0.688037,-0.03795,-2.60367
1802,1,-2,11,1,-1,-1,0,1,0.0317383,0.567871,0.704102,-1,-4,-2.5,0.688037,-0.03795,-2.60367
1804,2,-5,-62,-1,-1,-1,0,0,0.0302734,0.578125,0.703125,1.25,-3.1875,-2.125,0.68858,-0.0381685,-2.60501
1804,-4,-14,28,-5,-3,-2,-2,-3,0.0302734,0.578125,0.703125,1.25,-3.1875,-2.125,0.68858,-0.0381685,-2.60501
1824,-2,4,12,-4,-3,-3,-2,-2,0.0302734,0.578125,0.703125,1.25,-3.1875,-2.125,0.68858,-0.0381685,-2.60501
1824,-1,-14,-14,3,-1,-1,-2,-2,0.0302734,0.578125,0.703125,1.25,-3.1875,-2.125,0.68858,-0.0381685,-2.60501
1826,1,14,79,5,1,-1,0,0,0.0273438,0.575195,0.701172,-0.125,-3,-0.9375,0.688495,-0.0386129,-2.6059
1826,1,10,-47,-4,0,1,0,-1,0.0273438,0.575195,0.701172,-0.125,-3,-0.9375,0.688495,-0.0386129,-2.6059
1845,-5,-22,-54,-3,0,-2,0,-1,0.0273438,0.575195,0.701172,-0.125,-3,-0.9375,0.688495,-0.0386129,-2.6059
1845,-1,-11,1,-1,-2,0,1,1,0.0273438,0.575195,0.701172,-0.125,-3,-0.9375,0.688495,-0.0386129,-2.6059
1854,-3,19,18,1,0,-1,0,-2,0.0292969,0.566895,0.701172,-0.625,-2.5625,-1.125,0.688242,-0.0389072,-2.60678
1854,1,-9,12,1,0,-1,0,-3,0.0292969,0.566895,0.701172,-0.625,-2.5625,-1.125,0.688242,-0.0389072,-2.60678
1860,0,-1,7,0,-2,0,-2,-1,0.0292969,0.566895,0.701172,-0.625,-2.5625,-1.125,0.688242,-0.0389072,-2.60678
1860,-3,-3,-16,-3,-2,-2,0,0,0.0292969,0.566895,0.701172,-0.625,-2.5625,-1.125,0.688242,-0.0389072,-2.60678
1869,2,7,-13,0,-2,-1,-1,1,0.0297852,0.571777,0.708008,0.25,-1.75,-1.0625,0.688141,-0.0390692,-2.60735
1869,-4,-1,-5,0,1,-1,-2,-1,0.0297852,0.571777,0.708008,0.25,-1.75,-1.0625,0.688141,-0.0390692,-2.60735
1885,1,7,-6,2,-1,-2,0,-2,0.0297852,0.571777,0.708008,0.25,-1.75,-1.0625,0.688141,-0.0390692,-2.60735
1885,-4,-28,-4,-5,0,-1,-2,-1,0.0297852,0.571777,0.708008,0.25,-1.75,-1.0625,0.688141,-0.0390692,-2.60735
1886,0,7,2,-1,-2,-1,-2,-3,0.0327148,0.571777,0.702148,1.5625,-0.6875,-1.125,0.688559,-0.0388905,-2.6078
1886,0,0,32,0,1,-1,-2,0,0.0327148,0.571777,0.702148,1.5625,-0.6875,-1.125,0.688559,-0.0388905,-2.6078
1915,1,-12,11,4,0,-1,-1,-1,0.0327148,0.571777,0.702148,1.5625,-0.6875,-1.125,0.688559,-0.0388905,-2.6078
1915,1,13,-8,-5,2,-2,1,-1,0.0327148,0.571777,0.702148,1.5625,-0.6875,-1.125,0.688559,-0.0388905,-2.6078
1916,-2,-13,-17,-5,0,0,0,0,0.0283203,0.574219,0.695312,0.8125,0.3125,-0.8125,0.688559,-0.0388905,-2.6078
1916,-1,4,13,3,0,-1,2,-1,0.0283203,0.574219,0.695312,0.8125,0.3125,-0.8125,0.688559,-0.0388905,-2.6078
1921,0,8,-5,-2,-3,-1,-2,-2,0.0283203,0.574219,0.695312,0.8125,0.3125,-0.8125,0.688559,-0.0388905,-2.6078
1921,-3,-14,-12,0,-2,-1,-1,-3,0.0283203,0.574219,0.695312,0.8125,0.3125,-0.8125,0.688559,-0.0388905,-2.6078
1935,2,-3,29,1,1,1,0,1,0.0268555,0.574219,0.693848,-1,-0.0625,-0.1875,0.688559,-0.0388905,-2.6078
1935,0,20,-17,1,0,-2,-1,-1,0.0268555,0.574219,0.693848,-1,-0.0625,-0.1875,0.688559,-0.0388905,-2.6078
1944,-6,-25,30,-7,1,0,-2,0,0.0268555,0.574219,0.693848,-1,-0.0625,-0.1875,0.688559,-0.0388905,-2.6078
1944,1,15,13,2,0,-4,-2,-2,0.0268555,0.574219,0.693848,-1,-0.0625,-0.1875,0.688559,-0.0388905,-2.6078
1946,2,-15,-13,0,-3,-2,-2,2,0.0268555,0.574219,0.694824,0.75,0,0,0.688588,-0.0387394,-2.60786
1946,-3,10,0,-3,-1,-1,-2,-1,0.0268555,0.574219,0.694824,0.75,0,0,0.688588,-0.0387394,-2.60786
1967,1,9,-2,1,-1,1,1,1,0.0268555,0.574219,0.694824,0.75,0,0,0.688588,-0.0387394,-2.60786
1967,-1,-11,-15,-1,0,0,-1,0,0.0268555,0.574219,0.694824,0.75,0,0,0.688588,-0.0387394,-2.60786
1969,-1,0,6,1,-3,-2,-2,-3,0.0317383,0.565918,0.698242,0.4375,0.125,-0.25,0.688588,-0.0387394,-2.60786
1969,2,-1,5,0,-1,-1,-1,1,0.0317383,0.565918,0.698242,0.4375,0.125,-0.25,0.688588,-0.0387394,-2.60786
1981,0,6,-9,-3,-1,-1,-1,-1,0.0317383,0.565918,0.698242,0.4375,0.125,-0.25,0.688588,-0.0387394,-2.60786
1981,1,-4,2,-2,1,0,1,0,0.0317383,0.565918,0.698242,0.4375,0.125,-0.25,0.688588,-0.0387394,-2.60786
1988,-3,-7,-4,1,-3,-2,-3,-1,0.0239258,0.572754,0.696777,1.3125,0.375,0.0625,0.688971,-0.0383676,-2.6077
1988,-1,4,44,2,-3,-1,-2,-2,0.0239258,0.572754,0.696777,1.3125,0.375,0.0625,0.688971,-0.0383676,-2.6077
2004,1,-4,-38,-3,-3,-1,-2,-2,0.0239258,0.572754,0.696777,1.3125,0.375,0.0625,0.688971,-0.0383676,-2.6077
2004,0,7,8,2,-1,0,-1,1,0.0239258,0.572754,0.696777,1.3125,0.375,0.0625,0.688971,-0.0383676,-2.6077
2006,-3,-7,-2,-3,-2,0,1,-1,0.0239258,0.576172,0.701172,2.125,0.25,0.0625,0.689733,-0.0380979,-2.60756
2006,3,13,-4,0,1,-1,0,0,0.0239258,0.576172,0.701172,2.125,0.25,0.0625,0.689733,-0.0380979,-2.60756
2027,0,-9,12,3,3,0,-1,0,0.0239258,0.576172,0.701172,2.125,0.25,0.0625,0.689733,-0.0380979,-2.60756
2027,-3,-5,-9,-1,0,0,0,-2,0.0239258,0.576172,0.701172,2.125,0.25,0.0625,0.689733,-0.0380979,-2.60756
2028,-1,11,-12,-4,-1,0,0,0,0.0219727,0.579102,0.692383,0.4375,-0.4375,0.375,0.689726,-0.0380575,-2.60765
2028,-2,6,24,3,0,-2,-3,-2,0.0219727,0.579102,0.692383,0.4375,-0.4375,0.375,0.689726,-0.0380575,-2.60765
2049,-5,-17,-51,-7,-4,-2,-1,-3,0.0219727,0.579102,0.692383,0.4375,-0.4375,0.375,0.689726,-0.0380575,-2.60765
2049,-4,-12,-11,-3,-4,-2,-2,-2,0.0219727,0.579102,0.692383,0.4375,-0.4375,0.375,0.689726,-0.0380575,-2.60765
2051,-1,-11,-14,0,0,-1,1,-1,0.0229492,0.579102,0.688477,-0.8125,-1.125,1.5,0.689676,-0.0384,-2.60744
2051,0,-3,25,4,-1,-2,0,-1,0.0229492,0.579102,0.688477,-0.8125,-1.125,1.5,0.689676,-0.0384,-2.60744
2064,-1,11,5,-1,2,-1,0,0,0.0229492,0.579102,0.688477,-0.8125,-1.125,1.5,0.689676,-0.0384,-2.60744
2064,-2,0,20,1,-2,-1,-1,0,0.0229492,0.579102,0.688477,-0.8125,-1.125,1.5,0.689676,-0.0384,-2.60744
2066,-2,4,2,-5,-3,0,-3,-2,0.0283203,0.572754,0.695801,-0.125,-1,1.125,0.689546,-0.0387812,-2.60736
2066,-2,-22,-24,0,-2,0,-1,-1,0.0283203,0.572754,0.695801,-0.125,-1,1.125,0.689546,-0.0387812,-2.60736
2087,0,0,8,0,-1,0,-1,-1,0.0283203,0.572754,0.695801,-0.125,-1,1.125,0.689546,-0.0387812,-2.60736
2087,0,8,-3,-1,-2,1,-1,-2,0.0283203,0.572754,0.695801,-0.125,-1,1.125,0.689546,-0.0387812,-2.60736
2094,-1,7,38,2,-1,0,-1,-1,0.0322266,0.575684,0.696289,0.25,-0.875,1,0.689732,-0.0391543,-2.60722
2094,-2,-29,-34,-1,-3,0,2,-1,0.0322266,0.575684,0.696289,0.25,-0.875,1,0.689732,-0.0391543,-2.60722
2100,1,-5,2,-1,-1,-1,0,0,0.0322266,0.575684,0.696289,0.25,-0.875,1,0.689732,-0.0391543,-2.60722
2100,1,1,3,-1,-2,-2,0,-1,0.0322266,0.575684,0.696289,0.25,-0.875,1,0.689732,-0.0391543,-2.60722
2108,2,7,12,4,1,-1,-1,-1,0.0297852,0.580566,0.70166,0.75,-0.8125,0.8125,0.689767,-0.0390437,-2.60718
2108,2,0,-6,-6,-3,-2,0,-1,0.0297852,0.580566,0.70166,0.75,-0.8125,0.8125,0.689767,-0.0390437,-2.60718
2124,3,13,10,3,-1,-2,-1,0,0.0297852,0.580566,0.70166,0.75,-0.8125,0.8125,0.689767,-0.0390437,-2.60718
2124,1,3,-9,-2,-2,-2,0,0,0.0297852,0.580566,0.70166,0.75,-0.8125,0.8125,0.689767,-0.0390437,-2.60718
2126,-1,-9,-18,-2,-1,-2,-1,-1,0.0341797,0.570801,0.697754,0.125,-0.9375,0.8125,0.68963,-0.0390126,-2.60715
2126,-2,4,9,-1,0,-2,-1,-1,0.0341797,0.570801,0.697754,0.125,-0.9375,0.8125,0.68963,-0.0390126,-2.60715
2146,-1,-12,-50,-9,-3,-1,-1,-1,0.0341797,0.570801,0.697754,0.125,-0.9375,0.8125,0.68963,-0.0390126,-2.60715
2146,-6,-6,15,2,-1,-2,-1,-1,0.0341797,0.570801,0.697754,0.125,-0.9375,0.8125,0.68963,-0.0390126,-2.60715
2148,-6,-4,-9,-1,-3,-2,-2,-3,0.0302734,0.569336,0.694824,-0.125,-0.75,0.9375,0.689661,-0.0390038,-2.60724
2148,-1,-3,2,-2,-3,-1,-2,0,0.0302734,0.569336,0.694824,-0.125,-0.75,0.9375,0.689661,-0.0390038,-2.60724
2169,1,21,21,-1,0,-1,-2,-2,0.0302734,0.569336,0.694824,-0.125,-0.75,0.9375,0.689661,-0.0390038,-2.60724
2169,-1,-10,-6,-2,-2,0,0,-2,0.0302734,0.569336,0.694824,-0.125,-0.75,0.9375,0.689661,-0.0390038,-2.60724
2170,-1,-15,-18,-2,0,0,0,-1,0.0351562,0.570312,0.700195,0.75,-0.8125,0.1875,0.689661,-0.0390038,-2.60724
2170,1,7,8,-4,0,1,-2,-1,0.0351562,0.570312,0.700195,0.75,-0.8125,0.1875,0.689661,-0.0390038,-2.60724
2192,-3,-2,11,0,-3,-1,2,-1,0.0351562,0.570312,0.700195,0.75,-0.8125,0.1875,0.689661,-0.0390038,-2.60724
2192,2,10,-13,3,3,-1,0,-1,0.0351562,0.570312,0.700195,0.75,-0.8125,0.1875,0.689661,-0.0390038,-2.60724
2194,1,4,-5,-5,-1,-1,1,-1,0.0351562,0.572754,0.695312,0.3125,-0.1875,0.125,0.689661,-0.0390038,-2.60724
2194,-1,-16,-13,-2,-1,-2,-1,-2,0.0351562,0.572754,0.695312,0.3125,-0.1875,0.125,0.689661,-0.0390038,-2.60724
2214,-1,34,29,2,0,-2,0,0,0.0351562,0.572754,0.695312,0.3125,-0.1875,0.125,0.689661,-0.0390038,-2.60724
2214,-3,-21,-46,-5,-1,-1,-3,-3,0.0351562,0.572754,0.695312,0.3125,-0.1875,0.125,0.689661,-0.0390038,-2.60724
2216,2,10,17,0,2,-1,-1,0,0.027832,0.582031,0.703613,0.875,0.5625,0.0625,0.689661,-0.0390038,-2.60724
2216,0,-3,-11,-3,-1,-1,-1,-1,0.027832,0.582031,0.703613,0.875,0.5625,0.0625,0.689661,-0.0390038,-2.60724
2220,-1,-3,35,5,-2,-1,-2,0,0.027832,0.582031,0.703613,0.875,0.5625,0.0625,0.689661,-0.0390038,-2.60724
2220,-6,8,-57,-5,-2,-4,-3,-2,0.027832,0.582031,0.703613,0.875,0.5625,0.0625,0.689661,-0.0390038,-2.60724
2229,-2,3,24,-2,-3,-2,-3,-3,0.0214844,0.585938,0.688965,-0.375,0.4375,-0.0625,0.68969,-0.0388527,-2.6073
2229,-1,-4,-2,0,1,-1,1,0,0.0214844,0.585938,0.688965,-0.375,0.4375,-0.0625,0.68969,-0.0388527,-2.6073
2244,-2,-9,-33,-2,-2,-2,0,0,0.0214844,0.585938,0.688965,-0.375,0.4375,-0.0625,0.68969,-0.0388527,-2.6073
2244,2,12,28,2,0,2,2,-1,0.0214844,0.585938,0.688965,-0.375,0.4375,-0.0625,0.68969,-0.0388527,-2.6073
2246,1,-12,-20,-2,-3,0,1,0,0.0273438,0.575195,0.694336,-0.5625,0.5625,-0.0625,0.68969,-0.0388527,-2.6073
2246,-6,-3,22,2,-2,0,-2,-2,0.0273438,0.575195,0.694336,-0.5625,0.5625,-0.0625,0.68969,-0.0388527,-2.6073
2267,1,3,-28,-1,0,-2,0,0,0.0273438,0.575195,0.694336,-0.5625,0.5625,-0.0625,0.68969,-0.0388527,-2.6073
2267,-1,-9,18,-2,-2,-1,-1,-1,0.0273438,0.575195,0.694336,-0.5625,0.5625,-0.0625,0.68969,-0.0388527,-2.6073
2268,2,25,-17,1,1,-1,1,1,0.0229492,0.584473,0.688965,-0.375,0.5,0.625,0.68983,-0.0387819,-2.60721
2268,-3,-18,1,-2,-2,0,0,-1,0.0229492,0.584473,0.688965,-0.375,0.5,0.625,0.68983,-0.0387819,-2.60721
2280,-2,-2,18,1,2,-1,0,-1,0.0229492,0.584473,0.688965,-0.375,0.5,0.625,0.68983,-0.0387819,-2.60721
2280,-2,6,-4,-3,-3,0,-1,-2,0.0229492,0.584473,0.688965,-0.375,0.5,0.625,0.68983,-0.0387819,-2.60721
2296,-1,-5,36,2,-2,-1,-1,-1,0.0239258,0.57666,0.70459,-1.3125,0.1875,0.5,0.689251,-0.0385385,-2.60708
2296,2,-2,-80,-5,-1,-1,-2,-1,0.0239258,0.57666,0.70459,-1.3125,0.1875,0.5,0.689251,-0.0385385,-2.60708
2304,-3,-20,7,-5,-2,-2,-2,-3,0.0239258,0.57666,0.70459,-1.3125,0.1875,0.5,0.689251,-0.0385385,-2.60708
2304,4,9,18,0,0,-1,0,0,0.0239258,0.57666,0.70459,-1.3125,0.1875,0.5,0.689251,-0.0385385,-2.60708
2306,-2,-3,5,-2,-2,-4,-2,-3,0.03125,0.565918,0.691895,-1.5,-0.0625,-0.0625,0.6887,-0.0385159,-2.60707
2306,-4,-1,8,0,0,-1,-1,1,0.03125,0.565918,0.691895,-1.5,-0.0625,-0.0625,0.6887,-0.0385159,-2.60707
2326,2,4,1,0,0,-2,-2,-2,0.03125,0.565918,0.691895,-1.5,-0.0625,-0.0625,0.6887,-0.0385159,-2.60707
2326,1,-3,5,2,-1,-2,-2,-1,0.03125,0.565918,0.691895,-1.5,-0.0625,-0.0625,0.6887,-0.0385159,-2.60707
2328,-4,-3,-12,-3,0,0,0,0,0.027832,0.569824,0.689453,-0.6875,-0.5,0.5,0.6887,-0.0385159,-2.60707
2328,3,2,-2,1,1,2,-2,1,0.027832,0.569824,0.689453,-0.6875,-0.5,0.5,0.6887,-0.0385159,-2.60707
2340,1,12,-5,0,1,2,0,-2,0.027832,0.569824,0.689453,-0.6875,-0.5,0.5,0.6887,-0.0385159,-2.60707
2340,2,-3,18,-1,-1,-2,-2,1,0.027832,0.569824,0.689453,-0.6875,-0.5,0.5,0.6887,-0.0385159,-2.60707
2349,-3,-6,-8,3,-2,-1,1,-2,0.03125,0.574707,0.698242,-0.4375,-0.6875,0.125,0.688735,-0.0384053,-2.60704
2349,-5,-16,-12,-9,1,0,1,-1,0.03125,0.574707,0.698242,-0.4375,-0.6875,0.125,0.688735,-0.0384053,-2.60704
2364,1,14,26,4,-2,0,0,1,0.03125,0.574707,0.698242,-0.4375,-0.6875,0.125,0.688735,-0.0384053,-2.60704
2364,-3,10,17,-1,-2,-1,0,-2,0.03125,0.574707,0.698242,-0.4375,-0.6875,0.125,0.688735,-0.0384053,-2.60704
2365,4,-16,-34,1,0,0,-1,0,0.0332031,0.571289,0.700195,-1,-1.125,0.25,0.688246,-0.0387371,-2.60725
2365,1,16,30,2,0,1,1,0,0.0332031,0.571289,0.700195,-1,-1.125,0.25,0.688246,-0.0387371,-2.60725
2386,-2,-17,-15,-1,2,-2,-2,-1,0.0332031,0.571289,0.700195,-1,-1.125,0.25,0.688246,-0.0387371,-2.60725
2386,0,1,-3,-3,2,0,-1,0,0.0332031,0.571289,0.700195,-1,-1.125,0.25,0.688246,-0.0387371,-2.60725
2388,-1,-7,5,-6,-1,0,-2,-3,0.0283203,0.569336,0.691406,-1.375,-1.6875,0.3125,0.687857,-0.0390686,-2.6075
2388,1,0,1,-2,-2,-2,-1,0,0.0283203,0.569336,0.691406,-1.375,-1.6875,0.3125,0.687857,-0.0390686,-2.6075
2409,0,-10,-9,4,1,-1,-3,-1,0.0302734,0.574219,0.700684,0.0625,-1.4375,0.625,0.687853,-0.0395426,-2.60767
2409,-2,-6,-24,-8,-4,-1,0,-2,0.0302734,0.574219,0.700684,0.0625,-1.4375,0.625,0.687853,-0.0395426,-2.60767
2411,0,3,23,0,-3,-1,-1,0,0.0302734,0.574219,0.700684,0.0625,-1.4375,0.625,0.687853,-0.0395426,-2.60767
2411,1,0,-36,-1,-4,0,0,-4,0.0302734,0.574219,0.700684,0.0625,-1.4375,0.625,0.687853,-0.0395426,-2.60767
2425,-3,-10,-7,-1,-1,-2,0,-2,0.0253906,0.57373,0.695312,0.4375,-1.25,0.375,0.688085,-0.0396752,-2.60787
2425,0,11,-5,1,0,0,0,-1,0.0253906,0.57373,0.695312,0.4375,-1.25,0.375,0.688085,-0.0396752,-2.60787
2426,-2,-11,-2,-2,1,-2,-2,0,0.0253906,0.57373,0.695312,0.4375,-1.25,0.375,0.688085,-0.0396752,-2.60787
2426,0,23,10,-1,0,-3,-2,0,0.0253906,0.57373,0.695312,0.4375,-1.25,0.375,0.688085,-0.0396752,-2.60787
2446,-1,16,43,-2,1,1,-1,0,0.0229492,0.581055,0.694824,-1.1875,-1.3125,1.5,0.687856,-0.0400569,-2.60775
2446,-3,-5,-5,2,-2,-2,-2,-3,0.0229492,0.581055,0.694824,-1.1875,-1.3125,1.5,0.687856,-0.0400569,-2.60775
2447,-1,2,-19,-6,0,0,0,-1,0.0229492,0.581055,0.694824,-1.1875,-1.3125,1.5,0.687856,-0.0400569,-2.60775
2447,-1,3,1,2,-2,0,-1,0,0.0229492,0.581055,0.694824,-1.1875,-1.3125,1.5,0.687856,-0.0400569,-2.60775
2469,-1,-8,-6,0,-1,0,1,1,0.03125,0.573242,0.695312,-2.375,-1.6875,2.5,0.687098,-0.0409088,-2.60738
2469,2,1,6,0,-2,-2,0,0,0.03125,0.573242,0.695312,-2.375,-1.6875,2.5,0.687098,-0.0409088,-2.60738
2469,-3,-28,-24,0,1,0,0,0,0.03125,0.573242,0.695312,-2.375,-1.6875,2.5,0.687098,-0.0409088,-2.60738
2469,0,-6,37,1,-3,-1,-2,-1,0.03125,0.573242,0.695312,-2.375,-1.6875,2.5,0.687098,-0.0409088,-2.60738
2492,-3,-7,-24,-2,-4,-2,0,-2,0.0336914,0.568359,0.694824,-1.25,-1.125,1.875,0.686539,-0.04153,-2.60707
2492,1,-1,7,0,-3,1,-1,0,0.0336914,0.568359,0.694824,-1.25,-1.125,1.875,0.686539,-0.04153,-2.60707
2492,-2,4,-1,0,-3,-1,-2,-1,0.0336914,0.568359,0.694824,-1.25,-1.125,1.875,0.686539,-0.04153,-2.60707
2492,-3,-5,-3,0,2,-2,-1,-1,0.0336914,0.568359,0.694824,-1.25,-1.125,1.875,0.686539,-0.04153,-2.60707
2506,1,-6,11,-1,-1,-1,0,-2,0.0380859,0.577637,0.694824,-0.3125,-0.875,1,0.686721,-0.0420051,-2.60705
2506,2,17,-15,-7,-1,-1,-2,0,0.0380859,0.577637,0.694824,-0.3125,-0.875,1,0.686721,-0.0420051,-2.60705
2506,-5,-32,-14,2,-1,-1,0,-1,0.0380859,0.577637,0.694824,-0.3125,-0.875,1,0.686721,-0.0420051,-2.60705
2506,0,9,10,1,-3,-1,-2,-2,0.0380859,0.577637,0.694824,-0.3125,-0.875,1,0.686721,-0.0420051,-2.60705
2529,-3,0,-16,-2,-2,0,-2,-1,0.046875,0.585449,0.708496,-0.125,-0.9375,0.9375,0.686721,-0.0420051,-2.60705
2529,0,1,17,2,3,-1,0,0,0.046875,0.585449,0.708496,-0.125,-0.9375,0.9375,0.686721,-0.0420051,-2.60705
2529,1,4,0,-3,0,0,-1,0,0.046875,0.585449,0.708496,-0.125,-0.9375,0.9375,0.686721,-0.0420051,-2.60705
2529,-3,-12,-11,0,-3,-3,1,-2,0.046875,0.585449,0.708496,-0.125,-0.9375,0.9375,0.686721,-0.0420051,-2.60705
2543,1,-6,2,-2,-2,-1,2,0,0.0463867,0.57666,0.70459,-2.375,-1.1875,0.375,0.685831,-0.0426559,-2.60712
2543,0,-3,22,2,2,0,-3,0,0.0463867,0.57666,0.70459,-2.375,-1.1875,0.375,0.685831,-0.0426559,-2.60712
2544,-2,11,-3,-2,-3,-2,-2,-3,0.0463867,0.57666,0.70459,-2.375,-1.1875,0.375,0.685831,-0.0426559,-2.60712
2544,0,0,17,2,0,0,0,0,0.0463867,0.57666,0.70459,-2.375,-1.1875,0.375,0.685831,-0.0426559,-2.60712
2566,-2,-11,-59,-7,0,-1,-1,0,0.0424805,0.572266,0.705566,-2.1875,-0.6875,-1.0625,0.68498,-0.0426547,-2.60756
2566,-1,-2,-7,3,1,-2,2,0,0.0424805,0.572266,0.705566,-2.1875,-0.6875,-1.0625,0.68498,-0.0426547,-2.60756
2567,-1,4,6,-2,-1,-4,-2,-2,0.0424805,0.572266,0.705566,-2.1875,-0.6875,-1.0625,0.68498,-0.0426547,-2.60756
2567,-3,-7,13,-1,1,-1,-1,-2,0.0424805,0.572266,0.705566,-2.1875,-0.6875,-1.0625,0.68498,-0.0426547,-2.60756
2588,-1,3,-28,0,1,-1,-1,-2,0.0307617,0.574219,0.697754,-1.0625,-0.5,-1.5,0.684809,-0.0422953,-2.6081
2588,-4,-19,17,-6,-3,0,-3,-2,0.0307617,0.574219,0.697754,-1.0625,-0.5,-1.5,0.684809,-0.0422953,-2.6081
2589,2,4,15,3,-1,1,1,-1,0.0307617,0.574219,0.697754,-1.0625,-0.5,-1.5,0.684809,-0.0422953,-2.6081
2589,0,7,-2,-3,-2,0,0,-2,0.0307617,0.574219,0.697754,-1.0625,-0.5,-1.5,0.684809,-0.0422953,-2.6081
2603,0,-2,10,-1,-2,-2,-2,1,0.0292969,0.569336,0.702148,-2.0625,-0.9375,-1.8125,0.684008,-0.0419528,-2.60876
2603,-1,-6,1,2,-2,-1,-1,-1,0.0292969,0.569336,0.702148,-2.0625,-0.9375,-1.8125,0.684008,-0.0419528,-2.60876
2604,3,8,5,1,-1,-1,-1,-1,0.0292969,0.569336,0.702148,-2.0625,-0.9375,-1.8125,0.684008,-0.0419528,-2.60876
2604,2,3,-12,-2,1,2,0,-2,0.0292969,0.569336,0.702148,-2.0625,-0.9375,-1.8125,0.684008,-0.0419528,-2.60876
2626,1,11,57,2,0,-2,-2,0,0.0268555,0.570312,0.700195,-1.8125,-0.75,-2.0625,0.683445,-0.0414118,-2.60948
2626,-3,-18,-41,-11,-2,-2,-3,-4,0.0268555,0.570312,0.700195,-1.8125,-0.75,-2.0625,0.683445,-0.0414118,-2.60948
2627,4,29,13,1,1,1,1,0,0.0268555,0.570312,0.700195,-1.8125,-0.75,-2.0625,0.683445,-0.0414118,-2.60948
2627,2,7,24,0,2,-1,0,1,0.0268555,0.570312,0.700195,-1.8125,-0.75,-2.0625,0.683445,-0.0414118,-2.60948
2649,-1,-3,4,2,0,-1,0,-2,0.0234375,0.564453,0.702148,-1.875,-1.1875,-1.5,0.682651,-0.0411104,-2.61004
2649,-2,-11,7,3,0,0,-1,-1,0.0234375,0.564453,0.702148,-1.875,-1.1875,-1.5,0.682651,-0.0411104,-2.61004
2649,-2,-3,3,-3,-2,-1,-1,-2,0.0234375,0.564453,0.702148,-1.875,-1.1875,-1.5,0.682651,-0.0411104,-2.61004
2649,-3,-12,-9,-1,-1,-4,-3,-2,0.0234375,0.564453,0.702148,-1.875,-1.1875,-1.5,0.682651,-0.0411104,-2.61004
2663,0,7,13,1,-2,1,0,-1,0.03125,0.566895,0.69873,-1.9375,-1.5625,-1.125,0.682068,-0.0411332,-2.61065
2663,0,3,-4,0,0,0,1,1,0.03125,0.566895,0.69873,-1.9375,-1.5625,-1.125,0.682068,-0.0411332,-2.61065
2664,-2,-4,-14,1,1,0,1,1,0.03125,0.566895,0.69873,-1.9375,-1.5625,-1.125,0.682068,-0.0411332,-2.61065
2664,-2,29,5,0,-1,0,-2,0,0.03125,0.566895,0.69873,-1.9375,-1.5625,-1.125,0.682068,-0.0411332,-2.61065
2686,0,-14,-5,-3,-3,-1,-2,-2,0.0336914,0.564941,0.709473,-1.75,-1.4375,-0.4375,0.68132,-0.0412764,-2.61117
2686,0,9,-7,-2,-3,-1,-2,-1,0.0336914,0.564941,0.709473,-1.75,-1.4375,-0.4375,0.68132,-0.0412764,-2.61117
2687,-1,-8,-9,-3,-2,-2,-2,-2,0.0336914,0.564941,0.709473,-1.75,-1.4375,-0.4375,0.68132,-0.0412764,-2.61117
2687,-1,2,24,-1,-2,0,-1,0,0.0336914,0.564941,0.709473,-1.75,-1.4375,-0.4375,0.68132,-0.0412764,-2.61117
2708,-3,-10,-17,-2,-1,-1,-1,-3,0.0429688,0.551758,0.702637,-1.5625,-1.1875,-0.125,0.680386,-0.0417307,-2.61143
2708,1,0,4,6,1,2,-1,0,0.0429688,0.551758,0.702637,-1.5625,-1.1875,-0.125,0.680386,-0.0417307,-2.61143
2709,2,9,3,-3,-2,-2,-1,0,0.0429688,0.551758,0.702637,-1.5625,-1.1875,-0.125,0.680386,-0.0417307,-2.61143
2709,1,-14,10,2,-1,0,-1,0,0.0429688,0.551758,0.702637,-1.5625,-1.1875,-0.125,0.680386,-0.0417307,-2.61143
2724,-1,20,4,-1,0,0,-2,0,0.0424805,0.554199,0.700684,-0.875,-1.125,-0.125,0.679829,-0.042144,-2.61169
2724,0,-19,-10,-1,-3,-2,-1,-2,0.0424805,0.554199,0.700684,-0.875,-1.125,-0.125,0.679829,-0.042144,-2.61169
2724,-1,0,2,-2,-2,-2,-3,-2,0.0424805,0.554199,0.700684,-0.875,-1.125,-0.125,0.679829,-0.042144,-2.61169
2724,-2,-12,-30,1,-2,-2,-2,-1,0.0424805,0.554199,0.700684,-0.875,-1.125,-0.125,0.679829,-0.042144,-2.61169
2746,-1,-7,-44,-4,-1,-2,0,-1,0.0371094,0.55127,0.700195,1.0625,-0.4375,0.25,0.680073,-0.0423568,-2.61169
2746,1,16,7,0,0,-4,2,-1,0.0371094,0.55127,0.700195,1.0625,-0.4375,0.25,0.680073,-0.0423568,-2.61169
2747,-1,-11,-1,-2,-3,-2,-1,-1,0.0371094,0.55127,0.700195,1.0625,-0.4375,0.25,0.680073,-0.0423568,-2.61169
2747,-1,-2,-15,-2,-2,-2,0,-1,0.0371094,0.55127,0.700195,1.0625,-0.4375,0.25,0.680073,-0.0423568,-2.61169
2769,1,-2,15,-1,1,0,0,0,0.03125,0.559082,0.708008,1.375,-0.6875,1,0.680151,-0.042547,-2.61158
2769,-5,-15,7,1,-2,-2,-1,-2,0.03125,0.559082,0.708008,1.375,-0.6875,1,0.680151,-0.042547,-2.61158
2770,-1,8,0,-4,-3,0,-1,-3,0.03125,0.559082,0.708008,1.375,-0.6875,1,0.680151,-0.042547,-2.61158
2770,-3,-23,-13,-4,0,0,0,-1,0.03125,0.559082,0.708008,1.375,-0.6875,1,0.680151,-0.042547,-2.61158
2784,0,4,5,-1,-2,0,-2,0,0.0400391,0.564453,0.706543,2.125,-0.375,1.1875,0.680725,-0.0429578,-2.61124
2784,-2,-6,4,-2,0,1,-2,0,0.0400391,0.564453,0.706543,2.125,-0.375,1.1875,0.680725,-0.0429578,-2.61124
2784,0,2,-1,-2,0,0,-1,1,0.0400391,0.564453,0.706543,2.125,-0.375,1.1875,0.680725,-0.0429578,-2.61124
2784,-1,0,-12,2,-1,-2,-2,-1,0.0400391,0.564453,0.706543,2.125,-0.375,1.1875,0.680725,-0.0429578,-2.61124
2806,-2,-9,25,-5,-1,-1,-1,-2,0.0385742,0.572754,0.696777,1.1875,-0.6875,1.4375,0.68133,-0.0433606,-2.61098
2806,-3,-2,-6,0,-2,-2,-1,-2,0.0385742,0.572754,0.696777,1.1875,-0.6875,1.4375,0.68133,-0.0433606,-2.61098
2807,0,5,15,0,-1,-2,-3,-1,0.0385742,0.572754,0.696777,1.1875,-0.6875,1.4375,0.68133,-0.0433606,-2.61098
2807,1,11,-19,-5,1,-1,0,0,0.0385742,0.572754,0.696777,1.1875,-0.6875,1.4375,0.68133,-0.0433606,-2.61098
2829,-3,-16,8,1,-2,-3,-4,-2,0.0322266,0.572754,0.694824,0.8125,-0.4375,1.375,0.681827,-0.0435815,-2.61075
2829,0,4,-2,-3,-1,1,-3,0,0.0322266,0.572754,0.694824,0.8125,-0.4375,1.375,0.681827,-0.0435815,-2.61075
2829,0,-8,-10,0,0,-1,-1,-1,0.0322266,0.572754,0.694824,0.8125,-0.4375,1.375,0.681827,-0.0435815,-2.61075
2829,1,14,13,3,0,1,1,-1,0.0322266,0.572754,0.694824,0.8125,-0.4375,1.375,0.681827,-0.0435815,-2.61075
2843,-3,-22,17,-1,-3,-2,1,-1,0.027832,0.575195,0.696777,1.0625,-0.375,1.3125,0.682359,-0.0436916,-2.61049
2843,0,19,-23,-2,-2,-3,-1,-1,0.027832,0.575195,0.696777,1.0625,-0.375,1.3125,0.682359,-0.0436916,-2.61049
2844,-4,-27,-9,0,0,-3,-1,-2,0.027832,0.575195,0.696777,1.0625,-0.375,1.3125,0.682359,-0.0436916,-2.61049
2844,0,3,-1,-4,0,-1,-1,0,0.027832,0.575195,0.696777,1.0625,-0.375,1.3125,0.682359,-0.0436916,-2.61049
2874,1,6,-18,3,1,1,0,0,0.0292969,0.579102,0.696777,0.9375,-0.3125,1.375,0.682897,-0.0438421,-2.61013
2874,-2,1,12,-2,-4,-1,0,-2,0.0292969,0.579102,0.696777,0.9375,-0.3125,1.375,0.682897,-0.0438421,-2.61013
2875,0,5,1,1,0,0,-1,-1,0.0292969,0.579102,0.696777,0.9375,-0.3125,1.375,0.682897,-0.0438421,-2.61013
2875,-2,-14,1,-1,-2,-2,-2,-3,0.0292969,0.579102,0.696777,0.9375,-0.3125,1.375,0.682897,-0.0438421,-2.61013
2888,-1,3,-50,-3,-1,-2,-1,0,0.0356445,0.571777,0.697266,0.125,-1.1875,0.5625,0.683035,-0.0442451,-2.61022
2888,0,8,21,3,1,-1,0,-2,0.0356445,0.571777,0.697266,0.125,-1.1875,0.5625,0.683035,-0.0442451,-2.61022
2889,-2,2,-11,-4,-1,-1,1,0,0.0356445,0.571777,0.697266,0.125,-1.1875,0.5625,0.683035,-0.0442451,-2.61022
2889,-4,-13,2,-2,-2,-2,-2,-3,0.0356445,0.571777,0.697266,0.125,-1.1875,0.5625,0.683035,-0.0442451,-2.61022
2904,0,11,11,-1,-1,-2,0,-1,0.0395508,0.573242,0.703613,-1.125,-1.5625,-0.5625,0.682667,-0.0444893,-2.61074
2904,5,13,13,0,0,-1,-1,3,0.0395508,0.573242,0.703613,-1.125,-1.5625,-0.5625,0.682667,-0.0444893,-2.61074
2904,-4,-23,-50,-4,-2,-3,-3,-1,0.0395508,0.573242,0.703613,-1.125,-1.5625,-0.5625,0.682667,-0.0444893,-2.61074
2904,-3,-9,-2,-1,1,0,-1,-1,0.0395508,0.573242,0.703613,-1.125,-1.5625,-0.5625,0.682667,-0.0444893,-2.61074
2926,-1,0,6,0,0,0,-2,-2,0.0473633,0.577148,0.699219,-0.25,-1.5,-0.875,0.682783,-0.0448744,-2.61124
2926,0,0,-2,0,-1,-1,-2,-1,0.0473633,0.577148,0.699219,-0.25,-1.5,-0.875,0.682783,-0.0448744,-2.61124
2927,1,7,14,3,-2,-2,-1,0,0.0473633,0.577148,0.699219,-0.25,-1.5,-0.875,0.682783,-0.0448744,-2.61124
2927,0,6,0,-1,-2,1,0,0,0.0473633,0.577148,0.699219,-0.25,-1.5,-0.875,0.682783,-0.0448744,-2.61124
2948,1,12,6,-1,-1,-2,-3,-3,0.0400391,0.58252,0.700684,-1.1875,-1.5625,-2.3125,0.682756,-0.0447503,-2.61233
2948,0,-24,-13,1,-1,0,-3,-1,0.0400391,0.58252,0.700684,-1.1875,-1.5625,-2.3125,0.682756,-0.0447503,-2.61233
2949,0,14,-25,-7,1,-1,0,-2,0.0400391,0.58252,0.700684,-1.1875,-1.5625,-2.3125,0.682756,-0.0447503,-2.61233
2949,-3,-16,-13,-2,0,0,-1,-1,0.0400391,0.58252,0.700684,-1.1875,-1.5625,-2.3125,0.682756,-0.0447503,-2.61233
2963,-2,21,29,2,-1,-1,-1,0,0.0322266,0.572754,0.705078,-2.5625,-1.8125,-3.25,0.68196,-0.0443441,-2.61358
2963,-4,-27,-7,-1,1,-1,-1,-1,0.0322266,0.572754,0.705078,-2.5625,-1.8125,-3.25,0.68196,-0.0443441,-2.61358
2964,1,0,23,0,-2,-4,-1,1,0.0322266,0.572754,0.705078,-2.5625,-1.8125,-3.25,0.68196,-0.0443441,-2.61358
2964,2,7,-4,-1,-3,-2,-2,0,0.0322266,0.572754,0.705078,-2.5625,-1.8125,-3.25,0.68196,-0.0443441,-2.61358
2985,-1,-9,-8,-2,-1,-1,-2,-2,0.0327148,0.5625,0.708984,-2.5625,-1.75,-4.0625,0.680772,-0.0437581,-2.61501
2985,-2,3,2,-2,0,-1,0,-2,0.0327148,0.5625,0.708984,-2.5625,-1.75,-4.0625,0.680772,-0.0437581,-2.61501
2986,1,7,4,4,-1,1,-2,0,0.0327148,0.5625,0.708984,-2.5625,-1.75,-4.0625,0.680772,-0.0437581,-2.61501
2986,2,-1,-1,-1,-2,-2,-1,-1,0.0327148,0.5625,0.708984,-2.5625,-1.75,-4.0625,0.680772,-0.0437581,-2.61501
3009,-1,3,5,4,0,2,0,1,0.0410156,0.556152,0.703613,-1.5625,-1.8125,-2.4375,0.680169,-0.043766,-2.61603
3009,-3,6,3,-11,-2,-3,-1,-3,0.0410156,0.556152,0.703613,-1.5625,-1.8125,-2.4375,0.680169,-0.043766,-2.61603
3009,-2,-8,20,1,-1,0,1,1,0.0410156,0.556152,0.703613,-1.5625,-1.8125,-2.4375,0.680169,-0.043766,-2.61603
3009,-2,12,-3,0,-3,-2,-2,-6,0.0410156,0.556152,0.703613,-1.5625,-1.8125,-2.4375,0.680169,-0.043766,-2.61603
3025,0,-10,19,-2,-3,-2,-2,-2,0.0385742,0.561523,0.702148,-0.125,-0.875,-1.875,0.680028,-0.0436299,-2.61668
3025,1,0,-41,-1,-2,-1,1,-1,0.0385742,0.561523,0.702148,-0.125,-0.875,-1.875,0.680028,-0.0436299,-2.61668
3025,-2,2,2,-2,1,0,-2,-1,0.0385742,0.561523,0.702148,-0.125,-0.875,-1.875,0.680028,-0.0436299,-2.61668
3025,-3,-3,0,1,-1,-1,0,2,0.0385742,0.561523,0.702148,-0.125,-0.875,-1.875,0.680028,-0.0436299,-2.61668
3047,0,6,-12,-2,-3,-1,1,-1,0.027832,0.558105,0.70459,-2.875,-1.375,-0.1875,0.678774,-0.0436849,-2.61705
3047,-2,3,20,2,-1,0,-2,-1,0.027832,0.558105,0.70459,-2.875,-1.375,-0.1875,0.678774,-0.0436849,-2.61705
3047,-2,1,10,-3,-3,-3,2,-1,0.027832,0.558105,0.70459,-2.875,-1.375,-0.1875,0.678774,-0.0436849,-2.61705
3047,-4,-16,-10,0,1,-3,0,-2,0.027832,0.558105,0.70459,-2.875,-1.375,-0.1875,0.678774,-0.0436849,-2.61705
3068,1,-5,-9,1,0,1,-1,-2,0.0361328,0.552734,0.700195,-3.0625,-2.375,0.3125,0.677528,-0.0442552,-2.6175
3068,4,7,-1,0,2,2,0,2,0.0361328,0.552734,0.700195,-3.0625,-2.375,0.3125,0.677528,-0.0442552,-2.6175
3069,-5,-18,6,-7,0,-2,0,-2,0.0361328,0.552734,0.700195,-3.0625,-2.375,0.3125,0.677528,-0.0442552,-2.6175
3069,2,17,4,0,0,-2,-2,0,0.0361328,0.552734,0.700195,-3.0625,-2.375,0.3125,0.677528,-0.0442552,-2.6175
3084,-3,-12,1,-2,-2,-3,0,-2,0.0415039,0.554199,0.700195,-0.8125,-2.625,0.6875,0.677116,-0.045216,-2.61786
3084,0,10,-14,-1,0,0,-2,0,0.0415039,0.554199,0.700195,-0.8125,-2.625,0.6875,0.677116,-0.045216,-2.61786
3084,-1,-11,17,4,0,-1,-1,-3,0.0415039,0.554199,0.700195,-0.8125,-2.625,0.6875,0.677116,-0.045216,-2.61786
3084,1,-1,-6,-4,-4,-1,0,-2,0.0415039,0.554199,0.700195,-0.8125,-2.625,0.6875,0.677116,-0.045216,-2.61786
3114,0,-1,-1,-4,2,0,-1,-1,0.0292969,0.565918,0.698242,-2,-3.25,1.4375,0.676466,-0.0460045,-2.61812
3114,0,1,7,3,3,0,0,2,0.0292969,0.565918,0.698242,-2,-3.25,1.4375,0.676466,-0.0460045,-2.61812
3115,-1,9,-9,-3,-3,-1,-2,-1,0.0292969,0.565918,0.698242,-2,-3.25,1.4375,0.676466,-0.0460045,-2.61812
3115,-1,2,-5,-2,-3,2,0,1,0.0292969,0.565918,0.698242,-2,-3.25,1.4375,0.676466,-0.0460045,-2.61812
3129,0,5,-11,0,1,0,-1,0,0.0439453,0.555176,0.706543,-1.75,-3.75,0.9375,0.675679,-0.0473407,-2.61864
3129,0,6,11,1,-2,-1,0,-1,0.0439453,0.555176,0.706543,-1.75,-3.75,0.9375,0.675679,-0.0473407,-2.61864
3129,-4,-7,-53,-6,-2,0,-2,-3,0.0439453,0.555176,0.706543,-1.75,-3.75,0.9375,0.675679,-0.0473407,-2.61864
3129,-1,4,6,1,0,-2,0,0,0.0439453,0.555176,0.706543,-1.75,-3.75,0.9375,0.675679,-0.0473407,-2.61864
3152,2,-4,5,-2,-2,-2,-1,-2,0.050293,0.558594,0.70752,-0.5625,-3.3125,1.5,0.675454,-0.0487766,-2.61898
3152,-4,-14,-7,-1,0,-1,-1,-1,0.050293,0.558594,0.70752,-0.5625,-3.3125,1.5,0.675454,-0.0487766,-2.61898
3153,2,8,8,3,0,-2,-2,-2,0.050293,0.558594,0.70752,-0.5625,-3.3125,1.5,0.675454,-0.0487766,-2.61898
3153,2,10,5,-2,-2,0,0,0,0.050293,0.558594,0.70752,-0.5625,-3.3125,1.5,0.675454,-0.0487766,-2.61898
3166,-4,-14,20,1,-3,-1,3,2,0.0449219,0.567383,0.711914,-0.625,-2.6875,1.625,0.675164,-0.0498564,-2.6191
3166,1,20,-55,-5,-3,-2,-1,-2,0.0449219,0.567383,0.711914,-0.625,-2.6875,1.625,0.675164,-0.0498564,-2.6191
3167,1,-10,-5,1,-2,-2,-1,-2,0.0449219,0.567383,0.711914,-0.625,-2.6875,1.625,0.675164,-0.0498564,-2.6191
3167,-5,-2,-3,-3,2,0,-2,0,0.0449219,0.567383,0.711914,-0.625,-2.6875,1.625,0.675164,-0.0498564,-2.6191
3188,0,2,1,0,-1,-2,-3,-1,0.0454102,0.562988,0.712891,-1.0625,-2.125,1.4375,0.674668,-0.0506524,-2.61908
3188,2,-6,17,-1,-3,0,-1,0,0.0454102,0.562988,0.712891,-1.0625,-2.125,1.4375,0.674668,-0.0506524,-2.61908
3189,2,10,10,5,2,3,1,0,0.0454102,0.562988,0.712891,-1.0625,-2.125,1.4375,0.674668,-0.0506524,-2.61908
3189,-3,1,-8,-3,-1,-2,-3,-1,0.0454102,0.562988,0.712891,-1.0625,-2.125,1.4375,0.674668,-0.0506524,-2.61908
3219,-1,-4,-4,-1,-1,-2,-4,-1,0.0507812,0.560547,0.705078,-1.6875,-1.875,0.625,0.674052,-0.0514339,-2.61942
3219,-3,-6,9,-3,-2,0,-1,-1,0.0507812,0.560547,0.705078,-1.6875,-1.875,0.625,0.674052,-0.0514339,-2.61942
3219,4,0,3,4,1,-1,0,-2,0.0507812,0.560547,0.705078,-1.6875,-1.875,0.625,0.674052,-0.0514339,-2.61942
3219,-5,-1,10,3,0,1,-1,-1,0.0507812,0.560547,0.705078,-1.6875,-1.875,0.625,0.674052,-0.0514339,-2.61942
3234,-2,0,-23,-4,0,1,0,-1,0.0522461,0.571289,0.70166,-0.1875,-1.4375,-0.1875,0.674185,-0.0519003,-2.61972
3234,-5,-13,2,-1,1,-1,-3,-1,0.0522461,0.571289,0.70166,-0.1875,-1.4375,-0.1875,0.674185,-0.0519003,-2.61972
3235,1,2,3,-2,0,-2,-1,1,0.0522461,0.571289,0.70166,-0.1875,-1.4375,-0.1875,0.674185,-0.0519003,-2.61972
3235,5,1,-24,1,-1,-1,1,1,0.0522461,0.571289,0.70166,-0.1875,-1.4375,-0.1875,0.674185,-0.0519003,-2.61972
3257,-1,6,17,-2,-1,0,-3,-1,0.0537109,0.57666,0.708496,-0.25,-1.125,-1.3125,0.674335,-0.0521359,-2.62028
3257,-3,-7,6,-2,-2,-1,-1,-4,0.0537109,0.57666,0.708496,-0.25,-1.125,-1.3125,0.674335,-0.0521359,-2.62028
3258,-1,0,4,-1,-1,-2,-3,-3,0.0537109,0.57666,0.708496,-0.25,-1.125,-1.3125,0.674335,-0.0521359,-2.62028
3258,0,-1,-6,2,-1,-3,-4,-2,0.0537109,0.57666,0.708496,-0.25,-1.125,-1.3125,0.674335,-0.0521359,-2.62028
3263,1,12,5,0,-2,-1,0,0,0.0522461,0.578125,0.705566,-1.5,-0.8125,-2.4375,0.67408,-0.0518843,-2.62117
3263,-7,-13,2,-3,-1,-1,0,-1,0.0522461,0.578125,0.705566,-1.5,-0.8125,-2.4375,0.67408,-0.0518843,-2.62117
3278,4,5,-3,0,0,-1,2,1,0.0522461,0.578125,0.705566,-1.5,-0.8125,-2.4375,0.67408,-0.0518843,-2.62117
3278,-8,-12,13,3,0,1,-1,-3,0.0522461,0.578125,0.705566,-1.5,-0.8125,-2.4375,0.67408,-0.0518843,-2.62117
3286,0,6,-8,0,-2,-2,-2,-1,0.0336914,0.582031,0.710938,-0.6875,-0.5,-2.5,0.674229,-0.0511061,-2.62198
3286,1,3,2,-3,-3,-3,-1,-1,0.0336914,0.582031,0.710938,-0.6875,-0.5,-2.5,0.674229,-0.0511061,-2.62198
3287,-6,-8,-3,-2,-2,-1,-1,-1,0.0336914,0.582031,0.710938,-0.6875,-0.5,-2.5,0.674229,-0.0511061,-2.62198
3287,6,16,-3,-3,-1,-2,0,0,0.0336914,0.582031,0.710938,-0.6875,-0.5,-2.5,0.674229,-0.0511061,-2.62198
3308,-2,-14,-24,-4,-3,-1,0,-2,0.0258789,0.561523,0.707031,-3.25,-1.0625,-2.375,0.672978,-0.050484,-2.62274
3308,1,0,4,0,-1,0,2,4,0.0258789,0.561523,0.707031,-3.25,-1.0625,-2.375,0.672978,-0.050484,-2.62274
3309,1,-1,4,-2,-3,1,-2,-2,0.0258789,0.561523,0.707031,-3.25,-1.0625,-2.375,0.672978,-0.050484,-2.62274
3309,2,-2,-1,0,1,-1,1,0,0.0258789,0.561523,0.707031,-3.25,-1.0625,-2.375,0.672978,-0.050484,-2.62274
3324,-5,-8,-12,-4,-2,-2,-4,-3,0.0288086,0.544922,0.706055,-4.4375,-1.1875,-2.3125,0.67121,-0.0498371,-2.62358
3324,5,-3,0,-2,-1,-1,0,1,0.0288086,0.544922,0.706055,-4.4375,-1.1875,-2.3125,0.67121,-0.0498371,-2.62358
3331,0,9,-1,-2,-3,-1,0,0,0.0288086,0.544922,0.706055,-4.4375,-1.1875,-2.3125,0.67121,-0.0498371,-2.62358
3331,-2,-18,32,-1,-2,-2,-2,-2,0.0288086,0.544922,0.706055,-4.4375,-1.1875,-2.3125,0.67121,-0.0498371,-2.62358
3346,-1,20,35,5,1,0,3,0,0.0351562,0.548828,0.71875,0.0625,-0.25,-2.0625,0.670925,-0.0492627,-2.62424
3346,-3,-13,-30,2,-1,2,1,-2,0.0351562,0.548828,0.71875,0.0625,-0.25,-2.0625,0.670925,-0.0492627,-2.62424
3347,-1,3,-29,-6,-1,-2,-1,-1,0.0351562,0.548828,0.71875,0.0625,-0.25,-2.0625,0.670925,-0.0492627,-2.62424
3347,2,-4,25,-1,-2,-1,0,-1,0.0351562,0.548828,0.71875,0.0625,-0.25,-2.0625,0.670925,-0.0492627,-2.62424
3369,-1,-13,-16,-3,2,-2,-1,0,0.0478516,0.570312,0.712402,0.75,-0.125,-3.0625,0.671281,-0.0486652,-2.62506
3369,3,18,16,0,-3,-1,-2,-1,0.0478516,0.570312,0.712402,0.75,-0.125,-3.0625,0.671281,-0.0486652,-2.62506
3369,-3,4,10,-1,-1,-1,-1,3,0.0478516,0.570312,0.712402,0.75,-0.125,-3.0625,0.671281,-0.0486652,-2.62506
3369,-1,-2,-22,-2,0,0,3,-11,0.0478516,0.570312,0.712402,0.75,-0.125,-3.0625,0.671281,-0.0486652,-2.62506
3383,6,2,5,0,-1,0,-1,-2,0.059082,0.577637,0.709473,-1.3125,0.0625,-2.5625,0.671138,-0.0484933,-2.62581
3383,-6,-1,7,0,1,-2,-3,-3,0.059082,0.577637,0.709473,-1.3125,0.0625,-2.5625,0.671138,-0.0484933,-2.62581
3391,-3,-5,-10,-3,-4,-1,-1,0,0.059082,0.577637,0.709473,-1.3125,0.0625,-2.5625,0.671138,-0.0484933,-2.62581
3391,-10,-1,-4,-1,0,0,-2,1,0.059082,0.577637,0.709473,-1.3125,0.0625,-2.5625,0.671138,-0.0484933,-2.62581
3406,3,-8,-5,1,-4,-1,0,-1,0.0556641,0.561035,0.71582,-1.4375,0.5,-2,0.670531,-0.0482,-2.62619
3406,0,-5,6,2,0,0,-2,-3,0.0556641,0.561035,0.71582,-1.4375,0.5,-2,0.670531,-0.0482,-2.62619
3407,-1,-7,-1,0,2,0,0,-2,0.0556641,0.561035,0.71582,-1.4375,0.5,-2,0.670531,-0.0482,-2.62619
3407,1,17,7,2,-3,-3,-1,1,0.0556641,0.561035,0.71582,-1.4375,0.5,-2,0.670531,-0.0482,-2.62619
3428,1,2,27,-4,2,0,1,1,0.0424805,0.553223,0.710938,-0.8125,1.625,-2.3125,0.670054,-0.0473184,-2.62641
3428,2,0,17,0,-2,-3,0,0,0.0424805,0.553223,0.710938,-0.8125,1.625,-2.3125,0.670054,-0.0473184,-2.62641
3429,-5,-11,-18,1,-2,-1,-2,-3,0.0424805,0.553223,0.710938,-0.8125,1.625,-2.3125,0.670054,-0.0473184,-2.62641
3429,0,-8,2,-5,-3,-1,-1,0,0.0424805,0.553223,0.710938,-0.8125,1.625,-2.3125,0.670054,-0.0473184,-2.62641
3443,0,6,-6,0,-4,-2,-2,0,0.0375977,0.548828,0.711914,-0.0625,1.625,-2.5625,0.669804,-0.0461974,-2.62677
3443,2,8,15,-2,1,-3,-2,-1,0.0375977,0.548828,0.711914,-0.0625,1.625,-2.5625,0.669804,-0.0461974,-2.62677
3459,-1,0,2,0,-1,0,0,0,0.0375977,0.548828,0.711914,-0.0625,1.625,-2.5625,0.669804,-0.0461974,-2.62677
3459,0,1,-5,-3,1,1,-1,1,0.0375977,0.548828,0.711914,-0.0625,1.625,-2.5625,0.669804,-0.0461974,-2.62677
3466,-3,-10,-6,2,1,-1,0,0,0.0366211,0.547363,0.701172,-0.5,0.8125,-1.75,0.669566,-0.0454879,-2.62709
3466,0,15,-16,-3,0,-1,0,0,0.0366211,0.547363,0.701172,-0.5,0.8125,-1.75,0.669566,-0.0454879,-2.62709
3467,-3,-16,-2,-3,-2,-1,-4,-2,0.0366211,0.547363,0.701172,-0.5,0.8125,-1.75,0.669566,-0.0454879,-2.62709
3467,1,2,-7,4,-1,-1,-2,-1,0.0366211,0.547363,0.701172,-0.5,0.8125,-1.75,0.669566,-0.0454879,-2.62709
3489,-3,-24,-33,-7,-2,-2,-3,-1,0.0371094,0.556152,0.716309,1.625,0.3125,-1.125,0.66992,-0.0450958,-2.62735
3489,-1,-5,-5,-1,-3,-2,-1,-1,0.0371094,0.556152,0.716309,1.625,0.3125,-1.125,0.66992,-0.0450958,-2.62735
3490,-3,7,10,-2,0,-1,-1,-2,0.0371094,0.556152,0.716309,1.625,0.3125,-1.125,0.66992,-0.0450958,-2.62735
3490,3,-5,-10,0,0,0,1,0,0.0371094,0.556152,0.716309,1.625,0.3125,-1.125,0.66992,-0.0450958,-2.62735
3511,-2,-6,-5,-2,0,-1,-1,-2,0.0258789,0.558594,0.712402,-0.125,-0.5625,-1.1875,0.669721,-0.044647,-2.62768
3511,-4,13,25,5,2,-2,1,-2,0.0258789,0.558594,0.712402,-0.125,-0.5625,-1.1875,0.669721,-0.044647,-2.62768
3518,-5,-10,-51,-14,-4,-3,-2,0,0.0258789,0.558594,0.712402,-0.125,-0.5625,-1.1875,0.669721,-0.044647,-2.62768
3518,0,-4,29,1,-2,-2,-3,-1,0.0258789,0.558594,0.712402,-0.125,-0.5625,-1.1875,0.669721,-0.044647,-2.62768
3542,1,10,5,0,-1,-1,-2,-1,0.03125,0.549805,0.710449,-1.25,-1.6875,-0.375,0.66915,-0.0447189,-2.6282
3542,2,-13,-24,-2,-1,-2,-2,-1,0.03125,0.549805,0.710449,-1.25,-1.6875,-0.375,0.66915,-0.0447189,-2.6282
3543,3,14,35,5,2,-1,0,0,0.03125,0.549805,0.710449,-1.25,-1.6875,-0.375,0.66915,-0.0447189,-2.6282
3543,-2,-1,-7,0,3,1,0,0,0.03125,0.549805,0.710449,-1.25,-1.6875,-0.375,0.66915,-0.0447189,-2.6282
3556,4,31,-12,-1,-1,0,-1,-1,0.0390625,0.545898,0.703125,-1.3125,-3.375,0.125,0.66846,-0.0456481,-2.62881
3556,-4,-25,-41,-8,-5,-1,-1,-1,0.0390625,0.545898,0.703125,-1.3125,-3.375,0.125,0.66846,-0.0456481,-2.62881
3556,0,-20,23,6,0,0,1,1,0.0390625,0.545898,0.703125,-1.3125,-3.375,0.125,0.66846,-0.0456481,-2.62881
3556,-1,13,-10,0,-3,-2,-1,0,0.0390625,0.545898,0.703125,-1.3125,-3.375,0.125,0.66846,-0.0456481,-2.62881
3563,1,3,4,2,-2,1,-2,0,0.0429688,0.549316,0.705566,2.625,-1.9375,0.25,0.66935,-0.0463107,-2.62913
3563,-2,-9,3,-1,0,-1,-2,0,0.0429688,0.549316,0.705566,2.625,-1.9375,0.25,0.66935,-0.0463107,-2.62913
3578,2,12,8,0,-2,-2,-1,0,0.0429688,0.549316,0.705566,2.625,-1.9375,0.25,0.66935,-0.0463107,-2.62913
3578,-5,1,-13,-1,-3,-2,-2,-2,0.0429688,0.549316,0.705566,2.625,-1.9375,0.25,0.66935,-0.0463107,-2.62913
3586,-2,-17,10,-3,5,0,0,-2,0.046875,0.550781,0.705566,2.125,-2.3125,0.5,0.669903,-0.0471355,-2.62946
3586,-4,6,9,-4,-1,-2,-1,-3,0.046875,0.550781,0.705566,2.125,-2.3125,0.5,0.669903,-0.0471355,-2.62946
3587,1,1,-10,-1,-2,-1,-1,-1,0.046875,0.550781,0.705566,2.125,-2.3125,0.5,0.669903,-0.0471355,-2.62946
3587,5,3,12,-4,-2,-1,0,2,0.046875,0.550781,0.705566,2.125,-2.3125,0.5,0.669903,-0.0471355,-2.62946
3608,-2,3,34,-2,-1,-1,-1,-1,0.0439453,0.558594,0.710449,3.5,-2,1.125,0.671048,-0.0479446,-2.62958
3608,-3,-27,-41,-5,-2,-3,-3,-4,0.0439453,0.558594,0.710449,3.5,-2,1.125,0.671048,-0.0479446,-2.62958
3609,0,15,25,2,-3,-2,-1,-1,0.0439453,0.558594,0.710449,3.5,-2,1.125,0.671048,-0.0479446,-2.62958
3609,3,-4,-12,-6,-2,-2,1,-1,0.0439453,0.558594,0.710449,3.5,-2,1.125,0.671048,-0.0479446,-2.62958
3632,-11,1,18,11,-2,-2,-1,-3,0.0424805,0.554199,0.713379,2.25,-1.875,3.125,0.671547,-0.0491729,-2.6291
3632,4,15,-16,-3,1,0,-1,0,0.0424805,0.554199,0.713379,2.25,-1.875,3.125,0.671547,-0.0491729,-2.6291
3632,-2,-5,13,-9,1,-1,0,-1,0.0424805,0.554199,0.713379,2.25,-1.875,3.125,0.671547,-0.0491729,-2.6291
3632,0,-14,-18,0,-1,-1,-2,-2,0.0424805,0.554199,0.713379,2.25,-1.875,3.125,0.671547,-0.0491729,-2.6291
3646,4,9,-9,0,-1,-2,0,-1,0.0371094,0.54248,0.705566,0.25,-2.8125,3.5,0.671255,-0.0504204,-2.62875
3646,-5,-14,2,0,1,2,-1,1,0.0371094,0.54248,0.705566,0.25,-2.8125,3.5,0.671255,-0.0504204,-2.62875
3646,-2,0,24,8,-1,0,-2,0,0.0371094,0.54248,0.705566,0.25,-2.8125,3.5,0.671255,-0.0504204,-2.62875
3646,-4,2,-9,-4,-1,-1,-1,-2,0.0371094,0.54248,0.705566,0.25,-2.8125,3.5,0.671255,-0.0504204,-2.62875
3668,0,1,39,-2,-1,-3,0,-1,0.03125,0.547363,0.703613,2.0625,-1.8125,3.3125,0.671748,-0.0512773,-2.62822
3668,1,-5,-8,1,-3,-2,1,-2,0.03125,0.547363,0.703613,2.0625,-1.8125,3.3125,0.671748,-0.0512773,-2.62822
3669,4,5,-17,1,-1,-3,-1,0,0.03125,0.547363,0.703613,2.0625,-1.8125,3.3125,0.671748,-0.0512773,-2.62822
3669,0,-5,20,-3,0,-1,0,1,0.03125,0.547363,0.703613,2.0625,-1.8125,3.3125,0.671748,-0.0512773,-2.62822
3692,-1,-5,-26,-2,-3,-1,-1,-1,0.0263672,0.553223,0.695801,5.5,-2.25,4.875,0.673638,-0.0525131,-2.62731
3692,1,4,7,2,-2,1,0,1,0.0263672,0.553223,0.695801,5.5,-2.25,4.875,0.673638,-0.0525131,-2.62731
3692,-5,1,3,0,2,2,-2,-4,0.0263672,0.553223,0.695801,5.5,-2.25,4.875,0.673638,-0.0525131,-2.62731
3692,0,2,15,2,1,-2,-2,1,0.0263672,0.553223,0.695801,5.5,-2.25,4.875,0.673638,-0.0525131,-2.62731
3706,-4,6,-22,-2,-1,0,-2,-2,0.0283203,0.564941,0.69043,4.0625,-3.625,6.8125,0.675212,-0.0545074,-2.62629
3706,2,-1,22,1,-1,-2,-2,0,0.0283203,0.564941,0.69043,4.0625,-3.625,6.8125,0.675212,-0.0545074,-2.62629
3706,5,3,-37,-5,-2,-1,1,-1,0.0283203,0.564941,0.69043,4.0625,-3.625,6.8125,0.675212,-0.0545074,-2.62629
3706,-6,-27,11,-2,-1,-1,-1,0,0.0283203,0.564941,0.69043,4.0625,-3.625,6.8125,0.675212,-0.0545074,-2.62629
3729,-3,-16,-1,5,1,-2,-1,-2,0.046875,0.58252,0.705566,3.875,-3,4.5625,0.676861,-0.0561138,-2.62567
3729,2,32,19,-2,-1,-1,-3,-2,0.046875,0.58252,0.705566,3.875,-3,4.5625,0.676861,-0.0561138,-2.62567
3729,-4,-7,-8,1,-2,-2,-2,-2,0.046875,0.58252,0.705566,3.875,-3,4.5625,0.676861,-0.0561138,-2.62567
3729,2,24,21,1,2,0,-1,0,0.046875,0.58252,0.705566,3.875,-3,4.5625,0.676861,-0.0561138,-2.62567
3751,1,-24,-26,-8,-6,-1,-1,-1,0.0375977,0.572754,0.709961,0.625,-2.5625,6.9375,0.677007,-0.0579849,-2.62429
3751,-1,1,20,-1,-2,-2,0,0,0.0375977,0.572754,0.709961,0.625,-2.5625,6.9375,0.677007,-0.0579849,-2.62429
3758,0,6,11,-1,0,-1,0,-1,0.0375977,0.572754,0.709961,0.625,-2.5625,6.9375,0.677007,-0.0579849,-2.62429
3758,-3,-9,-11,-3,-3,-2,-3,-3,0.0375977,0.572754,0.709961,0.625,-2.5625,6.9375,0.677007,-0.0579849,-2.62429
3766,0,0,-6,1,2,1,-1,2,0.0527344,0.59668,0.722168,0.3125,-2.3125,7.875,0.677347,-0.0602675,-2.62267
3766,2,-4,-5,1,-3,-1,-1,-1,0.0527344,0.59668,0.722168,0.3125,-2.3125,7.875,0.677347,-0.0602675,-2.62267
3766,-2,-2,10,-1,-1,-1,0,1,0.0527344,0.59668,0.722168,0.3125,-2.3125,7.875,0.677347,-0.0602675,-2.62267
3766,-4,-4,-19,0,-1,0,-1,-1,0.0527344,0.59668,0.722168,0.3125,-2.3125,7.875,0.677347,-0.0602675,-2.62267
3788,4,5,-2,-4,-4,0,-2,0,0.0844727,0.580078,0.724121,-5.25,-2.3125,1.125,0.675595,-0.0618303,-2.62293
3788,-4,-13,-18,-4,1,-1,-1,-2,0.0844727,0.580078,0.724121,-5.25,-2.3125,1.125,0.675595,-0.0618303,-2.62293
3796,1,1,3,5,1,0,-1,-1,0.0844727,0.580078,0.724121,-5.25,-2.3125,1.125,0.675595,-0.0618303,-2.62293
3796,1,-3,-10,-6,-1,-2,-1,-1,0.0844727,0.580078,0.724121,-5.25,-2.3125,1.125,0.675595,-0.0618303,-2.62293
3812,-6,-34,-2,-2,-1,-1,-1,1,0.0737305,0.524902,0.685059,-4.3125,-2.75,1.6875,0.673546,-0.063379,-2.62295
3812,-2,6,9,1,-2,-1,-3,-1,0.0737305,0.524902,0.685059,-4.3125,-2.75,1.6875,0.673546,-0.063379,-2.62295
3812,1,-8,-4,2,-1,-1,-2,1,0.0737305,0.524902,0.685059,-4.3125,-2.75,1.6875,0.673546,-0.063379,-2.62295
3812,1,1,3,1,-2,0,-1,-2,0.0737305,0.524902,0.685059,-4.3125,-2.75,1.6875,0.673546,-0.063379,-2.62295
3826,-4,28,-21,-1,0,-2,0,-1,0.0761719,0.542969,0.69043,4.4375,-3.125,-3.6875,0.675073,-0.0639016,-2.62454
3826,-3,-15,-14,-1,0,-2,1,1,0.0761719,0.542969,0.69043,4.4375,-3.125,-3.6875,0.675073,-0.0639016,-2.62454
3827,-4,13,53,-4,-2,-5,1,1,0.0761719,0.542969,0.69043,4.4375,-3.125,-3.6875,0.675073,-0.0639016,-2.62454
3827,1,-10,-17,1,-2,-2,-3,-1,0.0761719,0.542969,0.69043,4.4375,-3.125,-3.6875,0.675073,-0.0639016,-2.62454
3849,-3,11,-37,-10,-1,-1,2,-4,0.0444336,0.548828,0.688965,5.625,-3.75,1.3125,0.676935,-0.0649029,-2.62503
3849,1,3,1,1,-1,1,-2,-2,0.0444336,0.548828,0.688965,5.625,-3.75,1.3125,0.676935,-0.0649029,-2.62503
3856,1,-2,-5,-1,0,-1,2,-1,0.0444336,0.548828,0.688965,5.625,-3.75,1.3125,0.676935,-0.0649029,-2.62503
3856,0,1,-3,1,0,-1,-2,2,0.0444336,0.548828,0.688965,5.625,-3.75,1.3125,0.676935,-0.0649029,-2.62503
3880,-1,0,21,4,-1,-4,-1,0,0.0253906,0.557129,0.683105,-2.5625,-7.5,5.125,0.676309,-0.0672872,-2.62535
3880,-2,-10,-5,0,-1,-1,-2,-3,0.0253906,0.557129,0.683105,-2.5625,-7.5,5.125,0.676309,-0.0672872,-2.62535
3880,0,-1,-22,-4,0,1,-2,0,0.0253906,0.557129,0.683105,-2.5625,-7.5,5.125,0.676309,-0.0672872,-2.62535
3880,0,4,-2,-1,-3,3,1,-2,0.0253906,0.557129,0.683105,-2.5625,-7.5,5.125,0.676309,-0.0672872,-2.62535
3902,-1,-17,-13,1,3,2,0,-1,0.0429688,0.562012,0.712402,-1.3125,-7.5625,5.5625,0.675774,-0.0700458,-2.62547
3902,-1,8,6,-1,-1,0,-2,-2,0.0429688,0.562012,0.712402,-1.3125,-7.5625,5.5625,0.675774,-0.0700458,-2.62547
3902,2,1,7,3,-3,-1,-1,-2,0.0429688,0.562012,0.712402,-1.3125,-7.5625,5.5625,0.675774,-0.0700458,-2.62547
3902,-4,10,36,-2,1,-1,0,-1,0.0429688,0.562012,0.712402,-1.3125,-7.5625,5.5625,0.675774,-0.0700458,-2.62547
3909,0,0,-7,-3,-2,1,1,-1,0.0512695,0.580078,0.70459,3,-6.875,5.6875,0.677069,-0.0728366,-2.62536
3909,2,0,10,-3,-2,1,-1,2,0.0512695,0.580078,0.70459,3,-6.875,5.6875,0.677069,-0.0728366,-2.62536
3909,1,0,-13,-2,0,0,-2,-1,0.0512695,0.580078,0.70459,3,-6.875,5.6875,0.677069,-0.0728366,-2.62536
3909,-3,-8,3,1,0,0,1,-2,0.0512695,0.580078,0.70459,3,-6.875,5.6875,0.677069,-0.0728366,-2.62536
3932,3,3,4,-2,-1,-1,-4,2,0.0668945,0.5625,0.706543,-1.8125,-7.1875,4.4375,0.676328,-0.0757069,-2.62572
3932,-4,4,25,4,1,0,-2,0,0.0668945,0.5625,0.706543,-1.8125,-7.1875,4.4375,0.676328,-0.0757069,-2.62572
3932,2,14,-6,-4,3,-1,-3,-2,0.0668945,0.5625,0.706543,-1.8125,-7.1875,4.4375,0.676328,-0.0757069,-2.62572
3932,-4,-14,-11,2,-2,-1,-3,-2,0.0668945,0.5625,0.706543,-1.8125,-7.1875,4.4375,0.676328,-0.0757069,-2.62572
3946,-6,-4,1,0,0,-1,-5,-2,0.0869141,0.552734,0.715332,-0.4375,-5.8125,4,0.675765,-0.0784326,-2.62586
3946,3,13,-30,-3,-1,-2,1,-1,0.0869141,0.552734,0.715332,-0.4375,-5.8125,4,0.675765,-0.0784326,-2.62586
3946,-3,-14,14,1,-2,-3,-1,-2,0.0869141,0.552734,0.715332,-0.4375,-5.8125,4,0.675765,-0.0784326,-2.62586
3946,2,6,-5,-4,-2,-2,-2,-2,0.0869141,0.552734,0.715332,-0.4375,-5.8125,4,0.675765,-0.0784326,-2.62586
3969,0,-8,-7,0,-1,-1,-1,0,0.102051,0.559082,0.707031,1.6875,-4.375,3.75,0.67628,-0.0812828,-2.62577
3969,0,7,11,-1,-1,-2,-1,-1,0.102051,0.559082,0.707031,1.6875,-4.375,3.75,0.67628,-0.0812828,-2.62577
3969,-2,-10,-16,0,-1,0,2,1,0.102051,0.559082,0.707031,1.6875,-4.375,3.75,0.67628,-0.0812828,-2.62577
3969,-1,-4,-17,-2,-1,-1,-1,-1,0.102051,0.559082,0.707031,1.6875,-4.375,3.75,0.67628,-0.0812828,-2.62577
3992,-1,5,15,3,0,0,-1,-2,0.103027,0.58252,0.721191,2.375,-2,2.375,0.677098,-0.0828999,-2.62562
3992,-1,-7,-8,-3,1,0,1,0,0.103027,0.58252,0.721191,2.375,-2,2.375,0.677098,-0.0828999,-2.62562
3992,1,5,0,2,0,-2,-1,-2,0.103027,0.58252,0.721191,2.375,-2,2.375,0.677098,-0.0828999,-2.62562
3992,2,-6,-6,0,-1,-1,0,0,0.103027,0.58252,0.721191,2.375,-2,2.375,0.677098,-0.0828999,-2.62562
4007,1,6,4,-4,-2,-1,-2,-3,0.0986328,0.603516,0.722656,4.125,0.8125,-0.375,0.678928,-0.0830361,-2.62551
4007,-2,-6,3,0,-1,-1,-1,-1,0.0986328,0.603516,0.722656,4.125,0.8125,-0.375,0.678928,-0.0830361,-2.62551
4007,-3,-4,-13,-1,-1,-2,-1,0,0.0986328,0.603516,0.722656,4.125,0.8125,-0.375,0.678928,-0.0830361,-2.62551
4007,-1,8,1,-1,-2,-1,-1,-1,0.0986328,0.603516,0.722656,4.125,0.8125,-0.375,0.678928,-0.0830361,-2.62551
4029,3,3,36,1,0,-2,0,-1,0.0961914,0.608887,0.718262,0,3.3125,-3.625,0.679463,-0.0818948,-2.62575
4029,-8,-13,-17,-2,-2,0,1,-1,0.0961914,0.608887,0.718262,0,3.3125,-3.625,0.679463,-0.0818948,-2.62575
4029,-1,-3,-5,0,-3,1,-2,-1,0.0961914,0.608887,0.718262,0,3.3125,-3.625,0.679463,-0.0818948,-2.62575
4029,-1,-3,-8,-3,-2,0,0,0,0.0961914,0.608887,0.718262,0,3.3125,-3.625,0.679463,-0.0818948,-2.62575
4060,3,6,10,3,1,0,-3,-1,0.0742188,0.602051,0.703125,-3.8125,5.3125,-6,0.678937,-0.0791736,-2.62626
4060,2,-1,0,-1,0,0,-1,-2,0.0742188,0.602051,0.703125,-3.8125,5.3125,-6,0.678937,-0.0791736,-2.62626
4060,-3,-3,-2,-1,-1,-2,-1,-2,0.0742188,0.602051,0.703125,-3.8125,5.3125,-6,0.678937,-0.0791736,-2.62626
4060,1,-6,-8,0,0,0,1,0,0.0742188,0.602051,0.703125,-3.8125,5.3125,-6,0.678937,-0.0791736,-2.62626
4066,-1,2,-11,0,-3,-1,-1,0,0.0605469,0.588867,0.720215,-1.5,8.25,-8.125,0.678499,-0.0748951,-2.62667
4066,-6,-16,4,-6,-2,-2,-1,-1,0.0605469,0.588867,0.720215,-1.5,8.25,-8.125,0.678499,-0.0748951,-2.62667
4066,-2,-4,3,-3,0,2,-1,-1,0.0605469,0.588867,0.720215,-1.5,8.25,-8.125,0.678499,-0.0748951,-2.62667
4066,1,8,4,3,1,-1,-1,-2,0.0605469,0.588867,0.720215,-1.5,8.25,-8.125,0.678499,-0.0748951,-2.62667
4089,-2,-3,-10,-3,-1,-3,-4,-1,0.0288086,0.572754,0.686035,-2.5625,8.25,-7.9375,0.678052,-0.0701017,-2.62701
4089,3,13,14,3,-1,0,14,1,0.0288086,0.572754,0.686035,-2.5625,8.25,-7.9375,0.678052,-0.0701017,-2.62701
4090,1,3,-7,-2,-3,1,-1,-2,0.0288086,0.572754,0.686035,-2.5625,8.25,-7.9375,0.678052,-0.0701017,-2.62701
4090,-4,-20,18,-1,1,-2,-2,-2,0.0288086,0.572754,0.686035,-2.5625,8.25,-7.9375,0.678052,-0.0701017,-2.62701
4112,-2,-6,-38,-6,-4,-2,2,-1,0.0395508,0.578125,0.694824,-11.875,4,-10.1875,0.674493,-0.0663088,-2.62895
4112,-1,3,-7,-2,-1,-3,-5,-2,0.0395508,0.578125,0.694824,-11.875,4,-10.1875,0.674493,-0.0663088,-2.62895
4113,-3,-7,-8,-3,-4,-1,1,-1,0.0395508,0.578125,0.694824,-11.875,4,-10.1875,0.674493,-0.0663088,-2.62895
4113,2,3,0,4,-1,0,0,0,0.0395508,0.578125,0.694824,-11.875,4,-10.1875,0.674493,-0.0663088,-2.62895
4135,-5,-10,-7,-3,-1,-1,-3,-2,0.0615234,0.495605,0.674316,0.25,5.5,-4.75,0.673868,-0.0639866,-2.629
4135,5,0,4,4,2,0,-3,1,0.0615234,0.495605,0.674316,0.25,5.5,-4.75,0.673868,-0.0639866,-2.629
4135,-7,-6,11,-11,-2,-1,0,-2,0.0615234,0.495605,0.674316,0.25,5.5,-4.75,0.673868,-0.0639866,-2.629
4135,-2,7,-1,-1,-1,-1,-3,-3,0.0615234,0.495605,0.674316,0.25,5.5,-4.75,0.673868,-0.0639866,-2.629
4156,2,-9,11,4,1,0,2,-1,0.0678711,0.508789,0.703613,-2.8125,2.625,-6.6875,0.67198,-0.0621097,-2.6302
4156,4,37,6,3,-2,0,-3,0,0.0678711,0.508789,0.703613,-2.8125,2.625,-6.6875,0.67198,-0.0621097,-2.6302
4157,-5,-15,-14,-3,-4,-2,-3,-3,0.0678711,0.508789,0.703613,-2.8125,2.625,-6.6875,0.67198,-0.0621097,-2.6302
4157,-1,12,9,10,5,2,2,2,0.0678711,0.508789,0.703613,-2.8125,2.625,-6.6875,0.67198,-0.0621097,-2.6302
4172,-5,-13,-37,-19,-7,-5,-3,-3,0.000976562,0.495605,0.725098,9.875,4.5625,8.375,0.673571,-0.0613739,-2.62673
4172,0,0,36,2,-1,-1,-2,0,0.000976562,0.495605,0.725098,9.875,4.5625,8.375,0.673571,-0.0613739,-2.62673
4172,0,4,-1,0,1,-2,-2,-1,0.000976562,0.495605,0.725098,9.875,4.5625,8.375,0.673571,-0.0613739,-2.62673
4172,-1,1,-7,-4,-2,-2,-1,-2,0.000976562,0.495605,0.725098,9.875,4.5625,8.375,0.673571,-0.0613739,-2.62673
4194,2,6,3,9,1,-1,1,1,-0.0141602,0.585449,0.692383,2.25,-1.375,5.8125,0.674853,-0.0613432,-2.62555
4194,-3,-34,10,3,0,1,-3,-2,-0.0141602,0.585449,0.692383,2.25,-1.375,5.8125,0.674853,-0.0613432,-2.62555
4194,4,42,-14,-4,-1,-1,-2,-1,-0.0141602,0.585449,0.692383,2.25,-1.375,5.8125,0.674853,-0.0613432,-2.62555
4194,-7,-8,-8,3,-2,0,-2,-3,-0.0141602,0.585449,0.692383,2.25,-1.375,5.8125,0.674853,-0.0613432,-2.62555
4209,4,9,30,2,0,-1,-1,2,0.0805664,0.546875,0.684082,-6.1875,-4.9375,2.375,0.672721,-0.0638484,-2.62587
4209,0,-14,-29,-3,-6,-1,0,-1,0.0805664,0.546875,0.684082,-6.1875,-4.9375,2.375,0.672721,-0.0638484,-2.62587
4209,0,-9,2,-2,2,2,0,2,0.0805664,0.546875,0.684082,-6.1875,-4.9375,2.375,0.672721,-0.0638484,-2.62587
4209,4,5,0,-1,1,-2,-1,0,0.0805664,0.546875,0.684082,-6.1875,-4.9375,2.375,0.672721,-0.0638484,-2.62587
4232,-4,-10,-19,-1,-1,-3,-1,-2,0.0800781,0.500977,0.678711,3.6875,-8.125,9.5,0.673204,-0.0685439,-2.62506
4232,-2,-4,-7,-6,-1,-4,-3,-1,0.0800781,0.500977,0.678711,3.6875,-8.125,9.5,0.673204,-0.0685439,-2.62506
4232,2,-3,-2,6,0,-2,-1,0,0.0800781,0.500977,0.678711,3.6875,-8.125,9.5,0.673204,-0.0685439,-2.62506
4232,3,8,-28,-4,-2,-2,-1,0,0.0800781,0.500977,0.678711,3.6875,-8.125,9.5,0.673204,-0.0685439,-2.62506
4246,-5,-9,-9,-7,-3,0,-1,-2,0.0698242,0.557617,0.702637,10.5,-6.3125,9.0625,0.676699,-0.0724619,-2.62388
4246,-2,1,-3,-1,0,-1,-1,1,0.0698242,0.557617,0.702637,10.5,-6.3125,9.0625,0.676699,-0.0724619,-2.62388
4254,2,-5,9,4,2,1,0,0,0.0698242,0.557617,0.702637,10.5,-6.3125,9.0625,0.676699,-0.0724619,-2.62388
4254,0,0,5,-3,-2,0,0,-1,0.0698242,0.557617,0.702637,10.5,-6.3125,9.0625,0.676699,-0.0724619,-2.62388
4269,-10,7,13,6,2,1,0,-2,0.074707,0.608887,0.71875,3.8125,-6.4375,7.8125,0.678551,-0.0759976,-2.6233
4269,2,-5,-12,-5,0,1,0,-2,0.074707,0.608887,0.71875,3.8125,-6.4375,7.8125,0.678551,-0.0759976,-2.6233
4269,-3,-28,4,-2,-2,-1,1,-1,0.074707,0.608887,0.71875,3.8125,-6.4375,7.8125,0.678551,-0.0759976,-2.6233
4269,0,-3,-1,-1,-4,-2,-1,1,0.074707,0.608887,0.71875,3.8125,-6.4375,7.8125,0.678551,-0.0759976,-2.6233
4299,-3,6,6,0,-5,-2,-1,-2,0.130859,0.595703,0.694824,-3.8125,-6.5625,5.625,0.67798,-0.0804045,-2.62323
4299,0,3,0,1,2,1,-3,1,0.130859,0.595703,0.694824,-3.8125,-6.5625,5.625,0.67798,-0.0804045,-2.62323
4299,-1,-1,-4,0,-1,-2,-3,0,0.130859,0.595703,0.694824,-3.8125,-6.5625,5.625,0.67798,-0.0804045,-2.62323
4299,0,-2,-4,-2,1,-2,-1,0,0.130859,0.595703,0.694824,-3.8125,-6.5625,5.625,0.67798,-0.0804045,-2.62323
4306,5,2,13,2,1,0,-19,-2,0.131836,0.585938,0.723633,-1.375,-3.75,-0.0625,0.677622,-0.0826898,-2.62401
4306,-5,-3,-13,-7,-2,-2,7,1,0.131836,0.585938,0.723633,-1.375,-3.75,-0.0625,0.677622,-0.0826898,-2.62401
4321,5,-3,-12,-2,-5,-3,-1,1,0.131836,0.585938,0.723633,-1.375,-3.75,-0.0625,0.677622,-0.0826898,-2.62401
4321,-18,-7,-4,-7,-3,-3,-4,-11,0.131836,0.585938,0.723633,-1.375,-3.75,-0.0625,0.677622,-0.0826898,-2.62401
4329,2,10,5,1,2,-1,-14,-3,0.0649414,0.584473,0.749023,4.4375,0.125,0.4375,0.678754,-0.082512,-2.6239
4329,0,0,-1,5,0,-2,0,-1,0.0649414,0.584473,0.749023,4.4375,0.125,0.4375,0.678754,-0.082512,-2.6239
4329,-2,1,-5,-4,-2,0,0,-1,0.0649414,0.584473,0.749023,4.4375,0.125,0.4375,0.678754,-0.082512,-2.6239
4329,4,2,-8,0,-2,1,-2,3,0.0649414,0.584473,0.749023,4.4375,0.125,0.4375,0.678754,-0.082512,-2.6239
4351,0,-17,2,-3,0,1,4,0,0.0141602,0.587402,0.716309,2.75,3.5625,-4,0.680002,-0.0791525,-2.62419
4351,-3,6,6,2,1,-1,-5,-3,0.0141602,0.587402,0.716309,2.75,3.5625,-4,0.680002,-0.0791525,-2.62419
4352,-1,0,9,2,0,0,3,1,0.0141602,0.587402,0.716309,2.75,3.5625,-4,0.680002,-0.0791525,-2.62419
4352,-1,3,-8,-1,-1,-4,-3,0,0.0141602,0.587402,0.716309,2.75,3.5625,-4,0.680002,-0.0791525,-2.62419
4365,4,3,-1,-2,-2,0,5,0,0.0405273,0.575684,0.703125,0.25,2.875,-0.75,0.680167,-0.0774943,-2.62373
4365,0,5,35,-3,0,-3,1,0,0.0405273,0.575684,0.703125,0.25,2.875,-0.75,0.680167,-0.0774943,-2.62373
4374,-4,8,-14,-2,0,-2,-6,-3,0.0405273,0.575684,0.703125,0.25,2.875,-0.75,0.680167,-0.0774943,-2.62373
4374,5,-13,9,1,2,0,2,0,0.0405273,0.575684,0.703125,0.25,2.875,-0.75,0.680167,-0.0774943,-2.62373
4388,-7,8,0,-1,-1,0,6,0,0.0375977,0.525391,0.669922,-5.9375,0.0625,-0.0625,0.677773,-0.0768207,-2.62374
4388,-2,-5,-6,-5,-3,-2,-2,-2,0.0375977,0.525391,0.669922,-5.9375,0.0625,-0.0625,0.677773,-0.0768207,-2.62374
4389,7,11,26,3,-3,-1,-2,-2,0.0375977,0.525391,0.669922,-5.9375,0.0625,-0.0625,0.677773,-0.0768207,-2.62374
4389,-1,-6,-42,-6,2,1,0,1,0.0375977,0.525391,0.669922,-5.9375,0.0625,-0.0625,0.677773,-0.0768207,-2.62374
4411,-1,-16,-5,-1,-2,2,6,0,0.0673828,0.531738,0.672363,-1.5625,-1.6875,2.6875,0.676998,-0.0778282,-2.62331
4411,0,4,-15,-2,-2,1,-3,-1,0.0673828,0.531738,0.672363,-1.5625,-1.6875,2.6875,0.676998,-0.0778282,-2.62331
4412,-5,-13,2,-2,-3,1,-1,0,0.0673828,0.531738,0.672363,-1.5625,-1.6875,2.6875,0.676998,-0.0778282,-2.62331
4412,5,-1,5,-1,-2,-1,-2,0,0.0673828,0.531738,0.672363,-1.5625,-1.6875,2.6875,0.676998,-0.0778282,-2.62331
4434,4,7,-1,-3,-1,-4,11,0,0.09375,0.575195,0.685547,5.5625,-1.1875,2.3125,0.679362,-0.0791927,-2.62282
4434,-2,-18,-12,-4,-1,0,-3,1,0.09375,0.575195,0.685547,5.5625,-1.1875,2.3125,0.679362,-0.0791927,-2.62282
4435,-6,-5,-9,-1,0,-2,-1,-3,0.09375,0.575195,0.685547,5.5625,-1.1875,2.3125,0.679362,-0.0791927,-2.62282
4435,-1,0,17,1,1,0,-4,10,0.09375,0.575195,0.685547,5.5625,-1.1875,2.3125,0.679362,-0.0791927,-2.62282
4449,-4,-2,2,1,1,0,7,-15,0.114746,0.602539,0.682129,-0.75,-2.1875,0.75,0.680096,-0.0809759,-2.62325
4449,5,13,8,4,0,0,1,-2,0.114746,0.602539,0.682129,-0.75,-2.1875,0.75,0.680096,-0.0809759,-2.62325
4449,-11,-12,-14,-5,0,-1,1,0,0.114746,0.602539,0.682129,-0.75,-2.1875,0.75,0.680096,-0.0809759,-2.62325
4449,6,-6,8,2,0,-1,-2,-2,0.114746,0.602539,0.682129,-0.75,-2.1875,0.75,0.680096,-0.0809759,-2.62325
4471,3,27,5,-1,-1,-4,-7,3,0.102539,0.602051,0.695312,-5.25,-3.5625,-1.9375,0.679202,-0.0822447,-2.62463
4471,-4,-17,-16,-6,-5,-5,2,-6,0.102539,0.602051,0.695312,-5.25,-3.5625,-1.9375,0.679202,-0.0822447,-2.62463
4472,5,1,-5,2,-1,1,-14,-5,0.102539,0.602051,0.695312,-5.25,-3.5625,-1.9375,0.679202,-0.0822447,-2.62463
4472,-1,1,0,-1,-2,1,12,0,0.102539,0.602051,0.695312,-5.25,-3.5625,-1.9375,0.679202,-0.0822447,-2.62463
4485,-2,-12,-2,-2,1,1,-7,2,0.0517578,0.594238,0.711426,-6.5625,-3.875,-4.1875,0.677469,-0.0816953,-2.62664
4485,2,13,12,3,-1,-4,17,2,0.0517578,0.594238,0.711426,-6.5625,-3.875,-4.1875,0.677469,-0.0816953,-2.62664
4494,-4,0,-36,-5,-2,-3,-8,-7,0.0517578,0.594238,0.711426,-6.5625,-3.875,-4.1875,0.677469,-0.0816953,-2.62664
4494,-3,-4,28,-3,-4,-5,-6,-6,0.0517578,0.594238,0.711426,-6.5625,-3.875,-4.1875,0.677469,-0.0816953,-2.62664
4509,5,1,5,4,1,4,5,3,0.0283203,0.587891,0.715332,-10,-3.75,-8.375,0.674555,-0.0797694,-2.62974
4509,-8,1,-8,-1,-2,-1,-8,-3,0.0283203,0.587891,0.715332,-10,-3.75,-8.375,0.674555,-0.0797694,-2.62974
4509,0,-3,3,-4,-1,-4,5,2,0.0283203,0.587891,0.715332,-10,-3.75,-8.375,0.674555,-0.0797694,-2.62974
4509,-1,8,-14,0,2,6,4,0,0.0283203,0.587891,0.715332,-10,-3.75,-8.375,0.674555,-0.0797694,-2.62974
4530,-1,-18,-14,-7,-3,-9,-5,-2,0.0605469,0.57959,0.737793,-10.5,-1.75,-8.375,0.670948,-0.0781182,-2.63235
4530,3,-4,-1,1,0,7,-56,-8,0.0605469,0.57959,0.737793,-10.5,-1.75,-8.375,0.670948,-0.0781182,-2.63235
4546,-14,5,17,6,2,6,66,8,0.0605469,0.57959,0.737793,-10.5,-1.75,-8.375,0.670948,-0.0781182,-2.63235
4546,-6,-3,-7,-4,-1,-3,-3,-2,0.0605469,0.57959,0.737793,-10.5,-1.75,-8.375,0.670948,-0.0781182,-2.63235
4554,8,4,-2,-4,0,1,-5,4,0.0771484,0.539551,0.740723,-4.3125,2.375,-5.375,0.6686,-0.0764967,-2.63321
4554,-2,-6,-1,1,-2,-10,-4,2,0.0771484,0.539551,0.740723,-4.3125,2.375,-5.375,0.6686,-0.0764967,-2.63321
4554,3,2,-1,-3,-3,-17,41,-2,0.0771484,0.539551,0.740723,-4.3125,2.375,-5.375,0.6686,-0.0764967,-2.63321
4554,9,-5,2,0,-3,-7,-79,-6,0.0771484,0.539551,0.740723,-4.3125,2.375,-5.375,0.6686,-0.0764967,-2.63321
4568,-19,-18,-17,-1,0,-5,10,-15,0.081543,0.52832,0.720215,-2.1875,6.1875,-3.4375,0.667166,-0.0744027,-2.6328
4568,-10,-6,3,-6,-1,5,5,3,0.081543,0.52832,0.720215,-2.1875,6.1875,-3.4375,0.667166,-0.0744027,-2.6328
4569,8,14,28,-2,-1,-2,-19,0,0.081543,0.52832,0.720215,-2.1875,6.1875,-3.4375,0.667166,-0.0744027,-2.6328
4569,-4,20,13,1,-2,-2,20,6,0.081543,0.52832,0.720215,-2.1875,6.1875,-3.4375,0.667166,-0.0744027,-2.6328
4591,-2,-15,-69,-9,-7,-8,-23,-5,0.0864258,0.562988,0.745117,-2.4375,13.0625,0.125,0.66562,-0.0713991,-2.6299
4591,4,2,-4,5,-1,-3,-4,-4,0.0864258,0.562988,0.745117,-2.4375,13.0625,0.125,0.66562,-0.0713991,-2.6299
4592,-6,-9,1,-3,0,-3,-25,-2,0.0864258,0.562988,0.745117,-2.4375,13.0625,0.125,0.66562,-0.0713991,-2.6299
4592,5,21,14,3,-1,2,-3,-9,0.0864258,0.562988,0.745117,-2.4375,13.0625,0.125,0.66562,-0.0713991,-2.6299
4621,4,-15,-9,0,-1,4,-3,13,0.065918,0.536133,0.70166,-2.125,13.625,-1.8125,0.664486,-0.0674323,-2.62745
4621,-8,-7,-19,-9,0,6,21,-10,0.065918,0.536133,0.70166,-2.125,13.625,-1.8125,0.664486,-0.0674323,-2.62745
4622,3,10,13,4,-1,4,-8,4,0.065918,0.536133,0.70166,-2.125,13.625,-1.8125,0.664486,-0.0674323,-2.62745
4622,-3,0,-2,-2,-6,-8,14,-4,0.065918,0.536133,0.70166,-2.125,13.625,-1.8125,0.664486,-0.0674323,-2.62745
4628,3,10,24,3,0,9,36,8,0.0683594,0.516113,0.699219,-2.75,10.375,-0.8125,0.662909,-0.0646519,-2.62543
4628,3,-1,-7,-4,-2,-10,-21,-3,0.0683594,0.516113,0.699219,-2.75,10.375,-0.8125,0.662909,-0.0646519,-2.62543
4629,-9,-11,-1,0,-3,-9,-26,-17,0.0683594,0.516113,0.699219,-2.75,10.375,-0.8125,0.662909,-0.0646519,-2.62543
4629,-17,-16,-11,-3,1,11,-5,-4,0.0683594,0.516113,0.699219,-2.75,10.375,-0.8125,0.662909,-0.0646519,-2.62543
4651,-2,9,30,3,1,-8,-6,1,0.0615234,0.517578,0.695801,-4,9.3125,-3,0.660931,-0.0616387,-2.62411
4651,1,11,7,2,1,-5,0,6,0.0615234,0.517578,0.695801,-4,9.3125,-3,0.660931,-0.0616387,-2.62411
4652,7,-13,-17,-4,-8,-17,-22,3,0.0615234,0.517578,0.695801,-4,9.3125,-3,0.660931,-0.0616387,-2.62411
4652,0,-4,1,3,9,39,37,11,0.0615234,0.517578,0.695801,-4,9.3125,-3,0.660931,-0.0616387,-2.62411
4674,-13,1,2,-2,-4,-8,0,-7,0.0537109,0.554199,0.711914,3.25,8.75,-1.125,0.661955,-0.0590261,-2.62247
4674,1,6,3,0,-1,1,10,-1,0.0537109,0.554199,0.711914,3.25,8.75,-1.125,0.661955,-0.0590261,-2.62247
4675,-1,-1,-40,-3,-1,-13,-15,-1,0.0537109,0.554199,0.711914,3.25,8.75,-1.125,0.661955,-0.0590261,-2.62247
4675,1,-10,-15,-2,-1,0,23,11,0.0537109,0.554199,0.711914,3.25,8.75,-1.125,0.661955,-0.0590261,-2.62247
4689,0,-2,15,2,-4,-11,14,7,0.0180664,0.557129,0.713379,0.6875,7.5625,1.5,0.662085,-0.0564539,-2.62042
4689,2,-6,-3,-3,-1,15,-1,6,0.0180664,0.557129,0.713379,0.6875,7.5625,1.5,0.662085,-0.0564539,-2.62042
4689,-5,7,28,5,6,18,-5,3,0.0180664,0.557129,0.713379,0.6875,7.5625,1.5,0.662085,-0.0564539,-2.62042
4689,13,3,2,-7,-8,-26,-16,-5,0.0180664,0.557129,0.713379,0.6875,7.5625,1.5,0.662085,-0.0564539,-2.62042
4713,-1,-11,-20,-9,-4,12,-16,-11,0.0463867,0.551758,0.720703,-4.4375,6.5625,2.4375,0.660305,-0.0550865,-2.61837
4713,-4,-9,-16,-3,-4,-33,7,5,0.0463867,0.551758,0.720703,-4.4375,6.5625,2.4375,0.660305,-0.0550865,-2.61837
4714,5,5,7,1,-1,11,55,12,0.0463867,0.551758,0.720703,-4.4375,6.5625,2.4375,0.660305,-0.0550865,-2.61837
4714,-5,2,-1,0,5,-9,-87,-19,0.0463867,0.551758,0.720703,-4.4375,6.5625,2.4375,0.660305,-0.0550865,-2.61837
4734,11,11,27,1,-3,-15,10,-6,0.0537109,0.552734,0.754395,-1.3125,11.1875,2.875,0.659117,-0.052704,-2.61506
4734,-2,-4,-6,-4,-2,-8,6,0,0.0537109,0.552734,0.754395,-1.3125,11.1875,2.875,0.659117,-0.052704,-2.61506
4735,0,-2,0,-1,2,5,-15,-4,0.0537109,0.552734,0.754395,-1.3125,11.1875,2.875,0.659117,-0.052704,-2.61506
4735,1,2,9,3,2,-19,53,10,0.0537109,0.552734,0.754395,-1.3125,11.1875,2.875,0.659117,-0.052704,-2.61506
4749,8,8,0,3,-1,-29,14,3,0.0600586,0.564453,0.737305,-2.1875,14.5625,-0.375,0.658001,-0.0490056,-2.61215
4749,-4,0,3,2,-1,36,-38,-1,0.0600586,0.564453,0.737305,-2.1875,14.5625,-0.375,0.658001,-0.0490056,-2.61215
4749,-5,-5,-7,-2,2,2,20,-15,0.0600586,0.564453,0.737305,-2.1875,14.5625,-0.375,0.658001,-0.0490056,-2.61215
4749,-5,-7,-5,-2,-21,-107,-37,-10,0.0600586,0.564453,0.737305,-2.1875,14.5625,-0.375,0.658001,-0.0490056,-2.61215
4779,-5,-4,-8,0,-4,36,-5,-4,0.0600586,0.568359,0.711426,-2.625,15.5,-3.8125,0.657402,-0.0443088,-2.60983
4779,-11,11,18,-4,2,7,1,-8,0.0600586,0.568359,0.711426,-2.625,15.5,-3.8125,0.657402,-0.0443088,-2.60983
4779,8,-5,-32,-1,7,66,22,30,0.0600586,0.568359,0.711426,-2.625,15.5,-3.8125,0.657402,-0.0443088,-2.60983
4779,0,1,-4,-1,3,42,-20,-5,0.0600586,0.568359,0.711426,-2.625,15.5,-3.8125,0.657402,-0.0443088,-2.60983
4794,5,8,5,-2,-10,-50,-31,-4,0.034668,0.593262,0.75,-6.1875,20.8125,0.125,0.655369,-0.0385992,-2.6054
4794,-5,-6,3,-2,-11,-50,-17,-9,0.034668,0.593262,0.75,-6.1875,20.8125,0.125,0.655369,-0.0385992,-2.6054
4795,-1,2,12,5,6,-44,-116,2,0.034668,0.593262,0.75,-6.1875,20.8125,0.125,0.655369,-0.0385992,-2.6054
4795,-23,-6,-5,-2,-12,63,119,1,0.034668,0.593262,0.75,-6.1875,20.8125,0.125,0.655369,-0.0385992,-2.6054
4810,-2,7,5,2,19,87,27,-4,0.0263672,0.553711,0.754395,-7.1875,23.6875,-2.875,0.652303,-0.0313074,-2.60118
4810,23,-5,-9,-11,-2,-25,-20,15,0.0263672,0.553711,0.754395,-7.1875,23.6875,-2.875,0.652303,-0.0313074,-2.60118
4811,-24,-5,3,-4,-20,-108,-6,-47,0.0263672,0.553711,0.754395,-7.1875,23.6875,-2.875,0.652303,-0.0313074,-2.60118
4811,23,1,0,8,26,91,84,104,0.0263672,0.553711,0.754395,-7.1875,23.6875,-2.875,0.652303,-0.0313074,-2.60118
4831,-8,1,8,-4,-20,-95,-33,-8,0.0654297,0.572266,0.736816,-11.8125,27.5,-4.125,0.648409,-0.0239252,-2.59649
4831,7,2,-3,11,11,25,3,-55,0.0654297,0.572266,0.736816,-11.8125,27.5,-4.125,0.648409,-0.0239252,-2.59649
4833,5,0,5,2,17,99,85,-4,0.0654297,0.572266,0.736816,-11.8125,27.5,-4.125,0.648409,-0.0239252,-2.59649
4833,-6,4,-4,-2,3,-89,-39,-20,0.0654297,0.572266,0.736816,-11.8125,27.5,-4.125,0.648409,-0.0239252,-2.59649
4854,-6,-15,-1,2,3,12,78,10,0.0883789,0.595215,0.789062,-7.5625,36.6875,-9.1875,0.645718,-0.0135631,-2.59129
4854,5,1,-3,1,-15,-114,-55,27,0.0883789,0.595215,0.789062,-7.5625,36.6875,-9.1875,0.645718,-0.0135631,-2.59129
4855,20,15,12,17,14,59,6,53,0.0883789,0.595215,0.789062,-7.5625,36.6875,-9.1875,0.645718,-0.0135631,-2.59129
4855,-23,-12,1,1,6,69,102,-25,0.0883789,0.595215,0.789062,-7.5625,36.6875,-9.1875,0.645718,-0.0135631,-2.59129
4869,38,0,-7,-8,-17,-48,-73,50,-0.03125,0.553711,0.71875,-10.5625,39.6875,-2.875,0.642292,-0.00105442,-2.58375
4869,-50,-7,-7,-8,10,81,56,7,-0.03125,0.553711,0.71875,-10.5625,39.6875,-2.875,0.642292,-0.00105442,-2.58375
4869,-7,-2,32,-6,-10,-101,-108,-26,-0.03125,0.553711,0.71875,-10.5625,39.6875,-2.875,0.642292,-0.00105442,-2.58375
4869,3,0,-23,-11,-11,-3,-50,-20,-0.03125,0.553711,0.71875,-10.5625,39.6875,-2.875,0.642292,-0.00105442,-2.58375
4907,-7,-11,-11,-2,2,-58,-30,-33,-0.0649414,0.523926,0.69873,-26.625,34,0.25,0.633154,0.00980563,-2.57666
4907,14,-29,0,3,-11,16,49,-9,-0.0649414,0.523926,0.69873,-26.625,34,0.25,0.633154,0.00980563,-2.57666
4907,3,9,5,2,-29,-128,-72,10,-0.0649414,0.523926,0.69873,-26.625,34,0.25,0.633154,0.00980563,-2.57666
4907,16,15,12,12,15,-53,-32,1,-0.0649414,0.523926,0.69873,-26.625,34,0.25,0.633154,0.00980563,-2.57666
4914,-1,2,7,12,51,82,50,48,0.0175781,0.441406,0.687012,-27.3125,29.3125,-1.375,0.622642,0.0175873,-2.57101
4914,7,21,16,2,2,-17,9,-19,0.0175781,0.441406,0.687012,-27.3125,29.3125,-1.375,0.622642,0.0175873,-2.57101
4915,-9,-4,-14,-5,1,-19,83,-24,0.0175781,0.441406,0.687012,-27.3125,29.3125,-1.375,0.622642,0.0175873,-2.57101
4915,19,-19,-7,-1,-31,-128,-117,24,0.0175781,0.441406,0.687012,-27.3125,29.3125,-1.375,0.622642,0.0175873,-2.57101
4929,-27,7,6,5,25,86,92,2,-0.0385742,0.494629,0.683594,-23.1875,20.25,4,0.614919,0.022964,-2.56568
4929,-5,-2,-2,-8,9,91,15,8,-0.0385742,0.494629,0.683594,-23.1875,20.25,4,0.614919,0.022964,-2.56568
4929,-15,-12,-8,-2,5,39,27,-66,-0.0385742,0.494629,0.683594,-23.1875,20.25,4,0.614919,0.022964,-2.56568
4929,-24,-13,-7,-12,-23,-33,28,49,-0.0385742,0.494629,0.683594,-23.1875,20.25,4,0.614919,0.022964,-2.56568
4952,10,7,1,-11,-54,-115,-46,-76,-0.102539,0.554688,0.713867,-25.3125,9.3125,7.8125,0.607494,0.0259997,-2.56159
4952,27,15,2,6,30,100,22,68,-0.102539,0.554688,0.713867,-25.3125,9.3125,7.8125,0.607494,0.0259997,-2.56159
4953,8,-20,-18,-17,-39,-118,-92,-41,-0.102539,0.554688,0.713867,-25.3125,9.3125,7.8125,0.607494,0.0259997,-2.56159
4953,-27,-5,-2,2,15,75,55,33,-0.102539,0.554688,0.713867,-25.3125,9.3125,7.8125,0.607494,0.0259997,-2.56159
4975,-28,-4,-5,-4,-15,-52,-104,-46,-0.0976562,0.53418,0.74707,-31.25,2.6875,4.625,0.597118,0.0276832,-2.55968
4975,8,1,-2,3,10,28,67,15,-0.0976562,0.53418,0.74707,-31.25,2.6875,4.625,0.597118,0.0276832,-2.55968
4975,-10,1,-2,7,9,-5,-39,12,-0.0976562,0.53418,0.74707,-31.25,2.6875,4.625,0.597118,0.0276832,-2.55968
4975,0,4,3,-1,2,-35,-40,-51,-0.0976562,0.53418,0.74707,-31.25,2.6875,4.625,0.597118,0.0276832,-2.55968
4989,9,7,9,-2,-26,-100,-20,43,-0.0693359,0.467285,0.697754,-37.125,-5.1875,5.8125,0.584253,0.0262124,-2.559
4989,15,-6,-29,3,14,19,-80,-53,-0.0693359,0.467285,0.697754,-37.125,-5.1875,5.8125,0.584253,0.0262124,-2.559
4990,2,6,-3,-3,17,83,5,9,-0.0693359,0.467285,0.697754,-37.125,-5.1875,5.8125,0.584253,0.0262124,-2.559
4990,-15,-7,5,-1,-4,-16,-49,-96,-0.0693359,0.467285,0.697754,-37.125,-5.1875,5.8125,0.584253,0.0262124,-2.559
5012,2,11,-1,-8,-17,-14,-73,36,0.0175781,0.429688,0.70166,-39.8125,-12.5625,2.875,0.569923,0.0210577,-2.56052
5012,5,40,16,-2,-33,-128,-95,20,0.0175781,0.429688,0.70166,-39.8125,-12.5625,2.875,0.569923,0.0210577,-2.56052
5013,3,-49,-2,8,20,121,10,-10,0.0175781,0.429688,0.70166,-39.8125,-12.5625,2.875,0.569923,0.0210577,-2.56052
5013,8,-26,-29,-10,6,104,19,27,0.0175781,0.429688,0.70166,-39.8125,-12.5625,2.875,0.569923,0.0210577,-2.56052
5035,-6,-5,16,-1,11,32,-27,-50,0.0410156,0.460449,0.78125,-28.625,-11,-0.4375,0.55935,0.0165822,-2.5627
5035,-16,5,0,0,-25,-56,6,71,0.0410156,0.460449,0.78125,-28.625,-11,-0.4375,0.55935,0.0165822,-2.5627
5035,6,16,0,-4,4,72,11,0,0.0410156,0.460449,0.78125,-28.625,-11,-0.4375,0.55935,0.0165822,-2.5627
5035,29,14,11,-11,-23,-109,-94,22,0.0410156,0.460449,0.78125,-28.625,-11,-0.4375,0.55935,0.0165822,-2.5627
5048,-64,-12,-6,2,4,-10,-14,-45,-0.0253906,0.480957,0.763672,-18.625,-12.0625,-0.5,0.553022,0.0134349,-2.56511
5048,19,-9,2,-1,-15,-64,-4,-63,-0.0253906,0.480957,0.763672,-18.625,-12.0625,-0.5,0.553022,0.0134349,-2.56511
5056,5,10,9,2,-17,-94,-37,1,-0.0253906,0.480957,0.763672,-18.625,-12.0625,-0.5,0.553022,0.0134349,-2.56511
5056,31,7,6,15,53,63,59,45,-0.0253906,0.480957,0.763672,-18.625,-12.0625,-0.5,0.553022,0.0134349,-2.56511
5080,-12,-6,-13,-2,5,26,22,57,-0.0341797,0.470703,0.783691,-23.3125,-9.5,-0.0625,0.544801,0.0111602,-2.56678
5080,-47,-23,-11,-12,-11,-25,-30,-55,-0.0341797,0.470703,0.783691,-23.3125,-9.5,-0.0625,0.544801,0.0111602,-2.56678
5080,-19,28,-4,-4,-31,-128,-53,-37,-0.0341797,0.470703,0.783691,-23.3125,-9.5,-0.0625,0.544801,0.0111602,-2.56678
5080,27,-10,1,3,27,85,83,-65,-0.0341797,0.470703,0.783691,-23.3125,-9.5,-0.0625,0.544801,0.0111602,-2.56678
5094,16,-33,-4,5,-4,-79,3,-15,-0.015625,0.424805,0.814453,-20.0625,-7.5,-3.375,0.536459,0.00964701,-2.56915
5094,13,2,19,5,21,99,55,46,-0.015625,0.424805,0.814453,-20.0625,-7.5,-3.375,0.536459,0.00964701,-2.56915
5095,14,1,-15,-4,8,43,93,46,-0.015625,0.424805,0.814453,-20.0625,-7.5,-3.375,0.536459,0.00964701,-2.56915
5095,27,27,13,11,-15,-70,-99,-71,-0.015625,0.424805,0.814453,-20.0625,-7.5,-3.375,0.536459,0.00964701,-2.56915
5109,23,28,5,1,14,55,-39,-23,-0.0429688,0.416992,0.77832,-11.0625,-4.625,-1.6875,0.531808,0.00938546,-2.57048
5109,3,-11,2,1,5,-27,5,29,-0.0429688,0.416992,0.77832,-11.0625,-4.625,-1.6875,0.531808,0.00938546,-2.57048
5117,5,1,3,6,8,16,20,22,-0.0893555,0.489746,0.773926,-5.4375,-5.0625,-2.1875,0.530613,0.0102835,-2.57201
5117,-13,1,-4,-8,-20,-24,-5,-19,-0.0893555,0.489746,0.773926,-5.4375,-5.0625,-2.1875,0.530613,0.0102835,-2.57201
5132,10,4,-3,4,8,113,15,7,-0.0893555,0.489746,0.773926,-5.4375,-5.0625,-2.1875,0.530613,0.0102835,-2.57201
5132,-33,-12,-12,-16,-42,-110,-51,-76,-0.0893555,0.489746,0.773926,-5.4375,-5.0625,-2.1875,0.530613,0.0102835,-2.57201
5132,20,-1,13,6,30,121,-13,-22,-0.0893555,0.489746,0.773926,-5.4375,-5.0625,-2.1875,0.530613,0.0102835,-2.57201
5132,1,-24,-10,-13,-22,-7,81,120,-0.0893555,0.489746,0.773926,-5.4375,-5.0625,-2.1875,0.530613,0.0102835,-2.57201
5154,25,-16,13,-3,25,-24,-36,-25,-0.0693359,0.506836,0.768555,-11.1875,-8.4375,-5.4375,0.527976,0.010168,-2.57512
5154,16,4,-35,14,81,101,77,60,-0.0693359,0.506836,0.768555,-11.1875,-8.4375,-5.4375,0.527976,0.010168,-2.57512
5154,-12,3,1,16,-2,-86,-52,-9,-0.0693359,0.506836,0.768555,-11.1875,-8.4375,-5.4375,0.527976,0.010168,-2.57512
5154,-57,-23,-9,-11,-44,-116,31,-14,-0.0693359,0.506836,0.768555,-11.1875,-8.4375,-5.4375,0.527976,0.010168,-2.57512
5177,-23,7,11,8,11,0,-8,-43,-0.0356445,0.476074,0.82666,-14.125,-6.8125,-4.25,0.522962,0.00953027,-2.57764
5177,-24,3,16,4,7,28,-14,-55,-0.0356445,0.476074,0.82666,-14.125,-6.8125,-4.25,0.522962,0.00953027,-2.57764
5178,-17,3,0,-8,0,-98,-58,26,-0.0356445,0.476074,0.82666,-14.125,-6.8125,-4.25,0.522962,0.00953027,-2.57764
5178,18,15,-2,-5,-36,-95,-85,63,-0.0356445,0.476074,0.82666,-14.125,-6.8125,-4.25,0.522962,0.00953027,-2.57764
5199,37,27,-6,3,17,53,71,56,-0.0371094,0.470215,0.84375,-16.5625,-3.6875,-1.0625,0.517024,0.00925973,-2.5786
5199,-14,-6,5,4,-3,23,52,39,-0.0371094,0.470215,0.84375,-16.5625,-3.6875,-1.0625,0.517024,0.00925973,-2.5786
5200,-11,-14,-11,-14,-35,39,27,26,-0.0371094,0.470215,0.84375,-16.5625,-3.6875,-1.0625,0.517024,0.00925973,-2.5786
5200,-38,24,24,25,69,100,26,-126,-0.0371094,0.470215,0.84375,-16.5625,-3.6875,-1.0625,0.517024,0.00925973,-2.5786
5222,32,-2,-14,-12,-20,-75,40,20,-0.0107422,0.425293,0.829102,-15.8125,2.5625,-0.125,0.510594,0.010064,-2.5781
5222,18,-3,5,-1,-24,-75,-85,-46,-0.0107422,0.425293,0.829102,-15.8125,2.5625,-0.125,0.510594,0.010064,-2.5781
5222,20,0,-1,-7,-20,-56,98,-34,-0.0107422,0.425293,0.829102,-15.8125,2.5625,-0.125,0.510594,0.010064,-2.5781
5222,32,0,-5,-2,-1,13,-83,75,-0.0107422,0.425293,0.829102,-15.8125,2.5625,-0.125,0.510594,0.010064,-2.5781
5228,-38,10,-6,2,7,2,-11,15,0.0229492,0.432617,0.778809,-16.4375,5.0625,-1.1875,0.504994,0.0110268,-2.5776
5228,-39,-37,-25,-14,0,60,-45,8,0.0229492,0.432617,0.778809,-16.4375,5.0625,-1.1875,0.504994,0.0110268,-2.5776
5244,-9,-4,2,-10,-8,-56,7,-25,0.0229492,0.432617,0.778809,-16.4375,5.0625,-1.1875,0.504994,0.0110268,-2.5776
5244,-47,12,-10,-15,-42,-21,-59,-103,0.0229492,0.432617,0.778809,-16.4375,5.0625,-1.1875,0.504994,0.0110268,-2.5776
5251,-7,-15,-9,-4,-1,-7,-20,42,0.0415039,0.416992,0.784668,-17.125,5.75,-2.6875,0.498733,0.0119758,-2.57733
5251,51,21,13,4,-32,-128,-6,38,0.0415039,0.416992,0.784668,-17.125,5.75,-2.6875,0.498733,0.0119758,-2.57733
5253,-30,-12,-5,3,22,98,-10,-35,0.0200195,0.422852,0.776367,-19.375,3.4375,-0.75,0.492209,0.0123429,-2.57707
5253,34,31,9,8,7,-83,-14,47,0.0200195,0.422852,0.776367,-19.375,3.4375,-0.75,0.492209,0.0123429,-2.57707
5274,5,-9,-1,-17,-36,-88,9,1,0.0200195,0.422852,0.776367,-19.375,3.4375,-0.75,0.492209,0.0123429,-2.57707
5274,-6,-8,-1,1,39,127,42,-23,0.0200195,0.422852,0.776367,-19.375,3.4375,-0.75,0.492209,0.0123429,-2.57707
5276,-1,-15,-10,-8,-7,-65,64,18,-0.0214844,0.371094,0.768066,-21.625,0.6875,1.625,0.483945,0.0126093,-2.57643
5276,-18,-29,-13,-15,-23,-87,-42,38,-0.0214844,0.371094,0.768066,-21.625,0.6875,1.625,0.483945,0.0126093,-2.57643
5287,-6,21,2,7,24,119,-47,-55,-0.0214844,0.371094,0.768066,-21.625,0.6875,1.625,0.483945,0.0126093,-2.57643
5287,32,1,7,7,1,-50,32,15,-0.0214844,0.371094,0.768066,-21.625,0.6875,1.625,0.483945,0.0126093,-2.57643
5297,36,7,2,1,-20,-72,-36,83,-0.0107422,0.347168,0.79248,-19.9375,-0.8125,1.4375,0.475555,0.0120778,-2.5761
5297,1,0,-1,-4,43,127,41,61,-0.0107422,0.347168,0.79248,-19.9375,-0.8125,1.4375,0.475555,0.0120778,-2.5761
5327,-23,12,-2,-4,-20,-104,-11,-75,-0.0107422,0.347168,0.79248,-19.9375,-0.8125,1.4375,0.475555,0.0120778,-2.5761
5327,15,-16,-15,-12,-28,-103,-20,34,-0.0107422,0.347168,0.79248,-19.9375,-0.8125,1.4375,0.475555,0.0120778,-2.5761
5328,-14,-13,-2,6,-9,-70,-13,-19,-0.0327148,0.386719,0.813477,-13.75,0.9375,0.375,0.47021,0.0129024,-2.57583
5328,4,0,5,8,-15,-58,8,-58,-0.0327148,0.386719,0.813477,-13.75,0.9375,0.375,0.47021,0.0129024,-2.57583
5334,15,-8,-5,0,21,68,61,83,-0.0327148,0.386719,0.813477,-13.75,0.9375,0.375,0.47021,0.0129024,-2.57583
5334,17,26,8,-1,6,-7,24,-17,-0.0327148,0.386719,0.813477,-13.75,0.9375,0.375,0.47021,0.0129024,-2.57583
5335,-8,4,-7,-7,-20,-67,-68,-34,-0.0717773,0.391113,0.83252,-13.8125,-0.75,6.3125,0.464927,0.013085,-2.57401
5335,-63,-35,-21,0,-9,-17,-51,-95,-0.0717773,0.391113,0.83252,-13.8125,-0.75,6.3125,0.464927,0.013085,-2.57401
5348,50,18,12,13,23,57,59,-98,-0.0717773,0.391113,0.83252,-13.8125,-0.75,6.3125,0.464927,0.013085,-2.57401
5348,-28,-14,1,-12,-34,-121,-34,-16,-0.0717773,0.391113,0.83252,-13.8125,-0.75,6.3125,0.464927,0.013085,-2.57401
5363,-14,-9,-6,-5,20,69,-8,-31,-0.0541992,0.39502,0.84668,-14.75,-1.125,3.5,0.459283,0.0132038,-2.57309
5363,-67,-84,-34,-16,-12,-89,-58,1,-0.0541992,0.39502,0.84668,-14.75,-1.125,3.5,0.459283,0.0132038,-2.57309
5370,14,12,-1,-1,-35,-95,12,80,-0.0541992,0.39502,0.84668,-14.75,-1.125,3.5,0.459283,0.0132038,-2.57309
5370,-15,-3,1,13,37,127,37,39,-0.0541992,0.39502,0.84668,-14.75,-1.125,3.5,0.459283,0.0132038,-2.57309
5379,61,38,18,6,8,-6,-23,-13,-0.0175781,0.404297,0.825684,-13,-1.0625,0.8125,0.454757,0.0129159,-2.57292
5379,10,21,19,11,19,84,71,-13,-0.0175781,0.404297,0.825684,-13,-1.0625,0.8125,0.454757,0.0129159,-2.57292
5394,-29,-37,-21,-17,-2,54,40,66,-0.0175781,0.404297,0.825684,-13,-1.0625,0.8125,0.454757,0.0129159,-2.57292
5394,-2,23,8,-1,-16,-95,-21,23,-0.0175781,0.404297,0.825684,-13,-1.0625,0.8125,0.454757,0.0129159,-2.57292
5395,-6,10,2,0,-8,-28,64,85,0.00488281,0.391113,0.821289,-12.9375,-0.5625,0.5,0.450149,0.0122944,-2.57291
5395,82,17,9,6,7,87,36,45,0.00488281,0.391113,0.821289,-12.9375,-0.5625,0.5,0.450149,0.0122944,-2.57291
5408,11,-1,5,10,17,32,39,15,0.00488281,0.391113,0.821289,-12.9375,-0.5625,0.5,0.450149,0.0122944,-2.57291
5408,29,11,2,2,25,65,8,12,0.00488281,0.391113,0.821289,-12.9375,-0.5625,0.5,0.450149,0.0122944,-2.57291
5416,-8,-14,-6,-5,5,-42,-14,17,-0.0327148,0.356445,0.817871,-12.125,-1.9375,0.1875,0.445155,0.0122343,-2.57314
5416,-7,29,16,0,-21,-73,-63,4,-0.0327148,0.356445,0.817871,-12.125,-1.9375,0.1875,0.445155,0.0122343,-2.57314
5432,-36,-22,-11,-2,1,16,16,-43,-0.0327148,0.356445,0.817871,-12.125,-1.9375,0.1875,0.445155,0.0122343,-2.57314
5432,-24,7,0,-6,-43,-128,-128,-64,-0.0327148,0.356445,0.817871,-12.125,-1.9375,0.1875,0.445155,0.0122343,-2.57314
5434,-24,-35,-14,-6,9,108,37,14,-0.0117188,0.330566,0.799805,-11.5625,-5.9375,-2.625,0.440065,0.010839,-2.57487
5434,17,25,13,-1,1,-37,24,-88,-0.0117188,0.330566,0.799805,-11.5625,-5.9375,-2.625,0.440065,0.010839,-2.57487
5454,11,18,5,2,-49,-102,-15,5,-0.0117188,0.330566,0.799805,-11.5625,-5.9375,-2.625,0.440065,0.010839,-2.57487
5454,10,2,2,2,-3,-22,-23,-117,-0.0117188,0.330566,0.799805,-11.5625,-5.9375,-2.625,0.440065,0.010839,-2.57487
5455,-16,2,-2,1,21,62,22,-12,0.00292969,0.351562,0.825684,-9.25,-6.9375,-5.25,0.436112,0.00905151,-2.57752
5455,15,13,4,5,8,-53,24,-27,0.00292969,0.351562,0.825684,-9.25,-6.9375,-5.25,0.436112,0.00905151,-2.57752
5468,-34,-5,10,-10,-31,-75,-95,8,0.00292969,0.351562,0.825684,-9.25,-6.9375,-5.25,0.436112,0.00905151,-2.57752
5468,5,-23,-64,-9,7,86,-4,-23,0.00292969,0.351562,0.825684,-9.25,-6.9375,-5.25,0.436112,0.00905151,-2.57752
5477,16,-4,11,10,5,20,-51,-49,-0.043457,0.334961,0.861328,-3.5,-7.4375,1.0625,0.433516,0.00749355,-2.57827
5477,33,48,11,5,4,4,42,41,-0.043457,0.334961,0.861328,-3.5,-7.4375,1.0625,0.433516,0.00749355,-2.57827
5492,2,-71,-21,-3,4,42,20,53,-0.043457,0.334961,0.861328,-3.5,-7.4375,1.0625,0.433516,0.00749355,-2.57827
5492,-8,32,23,6,18,51,31,52,-0.043457,0.334961,0.861328,-3.5,-7.4375,1.0625,0.433516,0.00749355,-2.57827
5493,10,-18,-2,-2,7,-5,43,-28,-0.0205078,0.335938,0.869629,-5.75,-6.3125,3.9375,0.430039,0.00530213,-2.57793
5493,-76,-42,-29,-23,-26,7,-16,-74,-0.0205078,0.335938,0.869629,-5.75,-6.3125,3.9375,0.430039,0.00530213,-2.57793
5521,20,12,14,2,7,-75,-95,-128,-0.0205078,0.335938,0.869629,-5.75,-6.3125,3.9375,0.430039,0.00530213,-2.57793
5521,-52,-9,6,3,8,17,22,-68,-0.0205078,0.335938,0.869629,-5.75,-6.3125,3.9375,0.430039,0.00530213,-2.57793
5523,42,25,4,5,6,-4,-50,39,0.0380859,0.345703,0.833984,-0.5625,-2.1875,1.4375,0.42908,0.0033291,-2.57775
5523,27,-15,4,1,7,37,69,-17,0.0380859,0.345703,0.833984,-0.5625,-2.1875,1.4375,0.42908,0.0033291,-2.57775
5547,9,5,-6,-1,15,36,39,108,0.0380859,0.345703,0.833984,-0.5625,-2.1875,1.4375,0.42908,0.0033291,-2.57775
5547,-18,-22,2,-1,-2,26,40,-51,0.0380859,0.345703,0.833984,-0.5625,-2.1875,1.4375,0.42908,0.0033291,-2.57775
5547,-22,3,-5,-1,-38,-128,-2,42,0.034668,0.365723,0.854492,5.125,2.375,4.5,0.430294,0.00257845,-2.57593
5547,24,16,18,15,29,28,-36,28,0.034668,0.365723,0.854492,5.125,2.375,4.5,0.430294,0.00257845,-2.57593
5552,-28,2,-6,-3,10,40,8,13,0.034668,0.365723,0.854492,5.125,2.375,4.5,0.430294,0.00257845,-2.57593
5552,41,18,8,5,5,9,-3,57,0.034668,0.365723,0.854492,5.125,2.375,4.5,0.430294,0.00257845,-2.57593
5553,-15,12,1,-1,-8,-10,24,-48,-0.0180664,0.373047,0.837891,2.5625,4.4375,7.25,0.430966,0.00330881,-2.57303
5553,-24,6,1,-1,-9,-41,-51,-33,-0.0180664,0.373047,0.837891,2.5625,4.4375,7.25,0.430966,0.00330881,-2.57303
5574,-10,-53,-14,-10,4,24,22,-88,-0.0180664,0.373047,0.837891,2.5625,4.4375,7.25,0.430966,0.00330881,-2.57303
5574,6,1,3,0,2,7,27,71,-0.0180664,0.373047,0.837891,2.5625,4.4375,7.25,0.430966,0.00330881,-2.57303
5575,-1,2,5,-2,-4,66,-54,-49,-0.0224609,0.359375,0.831055,2.5,5.4375,6.625,0.431246,0.00453982,-2.57008
5575,23,25,7,11,29,97,72,-10,-0.0224609,0.359375,0.831055,2.5,5.4375,6.625,0.431246,0.00453982,-2.57008
5604,-19,31,8,9,12,7,-12,-33,-0.0224609,0.359375,0.831055,2.5,5.4375,6.625,0.431246,0.00453982,-2.57008
5604,12,-23,-8,-12,-30,-74,45,-52,-0.0224609,0.359375,0.831055,2.5,5.4375,6.625,0.431246,0.00453982,-2.57008
5605,0,-1,-2,0,12,10,9,-58,0.0131836,0.372559,0.800293,2.5625,4.25,5.1875,0.432212,0.00466029,-2.56775
5605,-32,-22,-21,-7,-13,-71,-33,-44,0.0131836,0.372559,0.800293,2.5625,4.25,5.1875,0.432212,0.00466029,-2.56775
5612,23,3,-1,8,4,-7,-36,7,0.0131836,0.372559,0.800293,2.5625,4.25,5.1875,0.432212,0.00466029,-2.56775
5612,-20,-2,3,1,0,-2,-11,53,0.0131836,0.372559,0.800293,2.5625,4.25,5.1875,0.432212,0.00466029,-2.56775
5613,27,36,7,-3,-2,-32,-35,70,-0.0146484,0.379883,0.824219,2.25,0.8125,4.75,0.433043,0.00446197,-2.56618
5613,19,-28,8,-1,19,59,75,-10,-0.0146484,0.379883,0.824219,2.25,0.8125,4.75,0.433043,0.00446197,-2.56618
5633,1,-24,-9,-6,17,82,-49,-39,-0.0146484,0.379883,0.824219,2.25,0.8125,4.75,0.433043,0.00446197,-2.56618
5633,12,0,-2,-1,-17,-93,-9,-20,-0.0146484,0.379883,0.824219,2.25,0.8125,4.75,0.433043,0.00446197,-2.56618
5642,-74,-35,-18,-2,22,113,-22,-62,-0.0546875,0.35498,0.838379,1.5625,-1.625,6.0625,0.432897,0.00438426,-2.56446
5642,1,11,18,2,3,16,-11,-61,-0.0546875,0.35498,0.838379,1.5625,-1.625,6.0625,0.432897,0.00438426,-2.56446
5657,22,25,3,1,-9,-62,-22,-12,-0.0546875,0.35498,0.838379,1.5625,-1.625,6.0625,0.432897,0.00438426,-2.56446
5657,-2,-14,-1,-4,0,-18,-36,-44,-0.0546875,0.35498,0.838379,1.5625,-1.625,6.0625,0.432897,0.00438426,-2.56446
5658,16,-9,-11,-14,-32,-83,-56,-33,0.0239258,0.348633,0.848145,2.25,-1.5,0.9375,0.432766,0.00311558,-2.56443
5658,-7,3,-9,-8,-12,-116,-31,54,0.0239258,0.348633,0.848145,2.25,-1.5,0.9375,0.432766,0.00311558,-2.56443
5672,4,9,-12,-17,-38,-111,-14,-35,0.0239258,0.348633,0.848145,2.25,-1.5,0.9375,0.432766,0.00311558,-2.56443
5672,2,-20,-1,4,24,53,-16,-9,0.0239258,0.348633,0.848145,2.25,-1.5,0.9375,0.432766,0.00311558,-2.56443
5678,16,2,8,-3,-14,-61,97,123,0.0605469,0.377441,0.838379,5.625,2.0625,0.3125,0.434463,0.00213307,-2.56404
5678,1,-8,-23,-2,22,68,31,-43,0.0605469,0.377441,0.838379,5.625,2.0625,0.3125,0.434463,0.00213307,-2.56404
5702,41,-3,-5,-7,-3,-4,-1,-26,0.0605469,0.377441,0.838379,5.625,2.0625,0.3125,0.434463,0.00213307,-2.56404
5702,11,-18,6,-1,-13,-7,-11,28,0.0605469,0.377441,0.838379,5.625,2.0625,0.3125,0.434463,0.00213307,-2.56404
5703,23,-17,-6,-3,-11,-35,-25,-1,-0.0102539,0.375977,0.828613,8.3125,4.0625,3.4375,0.437106,0.00318408,-2.56231
5703,20,13,-2,-2,-7,-87,22,34,-0.0102539,0.375977,0.828613,8.3125,4.0625,3.4375,0.437106,0.00318408,-2.56231
5725,-54,13,9,7,31,53,5,9,-0.0102539,0.375977,0.828613,8.3125,4.0625,3.4375,0.437106,0.00318408,-2.56231
5725,-10,0,-7,-11,-14,14,-16,-61,-0.0102539,0.375977,0.828613,8.3125,4.0625,3.4375,0.437106,0.00318408,-2.56231
5726,-36,-15,2,9,43,75,-8,20,-0.0249023,0.401367,0.796875,6.875,2.25,-2.75,0.440153,0.00474011,-2.56283
5726,22,-5,-1,-9,-35,-105,-99,87,-0.0249023,0.401367,0.796875,6.875,2.25,-2.75,0.440153,0.00474011,-2.56283
5731,19,19,8,16,32,105,87,65,-0.0249023,0.401367,0.796875,6.875,2.25,-2.75,0.440153,0.00474011,-2.56283
5731,20,47,14,4,-3,-59,-43,-6,-0.0249023,0.401367,0.796875,6.875,2.25,-2.75,0.440153,0.00474011,-2.56283
5738,-16,-13,1,7,-10,-94,-63,-104,-0.0297852,0.40625,0.828613,6.3125,1.5625,-3.4375,0.442672,0.00637822,-2.56357
5738,38,-10,-25,9,48,112,88,99,-0.0297852,0.40625,0.828613,6.3125,1.5625,-3.4375,0.442672,0.00637822,-2.56357
5754,-20,-10,1,0,-25,-128,-55,-39,-0.0297852,0.40625,0.828613,6.3125,1.5625,-3.4375,0.442672,0.00637822,-2.56357
5754,-70,-16,-7,-12,-30,-59,-25,-37,-0.0297852,0.40625,0.828613,6.3125,1.5625,-3.4375,0.442672,0.00637822,-2.56357
5755,27,41,19,18,46,89,88,66,-0.0385742,0.380371,0.823242,0.6875,-0.5,2.125,0.442665,0.00664433,-2.563
5755,-12,7,2,-5,-11,5,15,-51,-0.0385742,0.380371,0.823242,0.6875,-0.5,2.125,0.442665,0.00664433,-2.563
5777,13,-34,-10,-8,-24,-91,10,-24,-0.0385742,0.380371,0.823242,0.6875,-0.5,2.125,0.442665,0.00664433,-2.563
5777,13,4,-4,5,-4,21,2,61,-0.0385742,0.380371,0.823242,0.6875,-0.5,2.125,0.442665,0.00664433,-2.563
5778,-22,-7,2,2,11,70,31,-15,0.0161133,0.365234,0.819824,1.75,1.5625,-1.4375,0.442688,0.00680964,-2.56317
5778,-34,-18,6,-4,1,33,-50,-82,0.0161133,0.365234,0.819824,1.75,1.5625,-1.4375,0.442688,0.00680964,-2.56317
5800,15,9,-3,-5,-21,-90,-6,55,0.0161133,0.365234,0.819824,1.75,1.5625,-1.4375,0.442688,0.00680964,-2.56317
5800,-21,18,13,10,-9,-116,-36,-27,0.0161133,0.365234,0.819824,1.75,1.5625,-1.4375,0.442688,0.00680964,-2.56317
5801,28,13,-4,-4,2,38,70,59,0.0209961,0.381348,0.80127,1.5625,1.25,1.0625,0.443259,0.0064076,-2.56273
5801,-55,-37,-8,-8,-6,22,-42,-2,0.0209961,0.381348,0.80127,1.5625,1.25,1.0625,0.443259,0.0064076,-2.56273
5822,-10,19,0,-5,-39,-40,-32,28,0.0209961,0.381348,0.80127,1.5625,1.25,1.0625,0.443259,0.0064076,-2.56273
5822,20,-15,10,5,16,-19,-41,13,0.0209961,0.381348,0.80127,1.5625,1.25,1.0625,0.443259,0.0064076,-2.56273
