0,-1,6,-2,11,4,0,1,-1,0.145508,0.335938,0.840332,-1.375,3.125,-1.4375,0.368477,-0.128596,-2.49264
0,-3,-16,-6,1,2,1,-1,-2,0.145508,0.335938,0.840332,-1.375,3.125,-1.4375,0.368477,-0.128596,-2.49264
0,-3,1,0,1,1,0,-3,-1,0.145508,0.335938,0.840332,-1.375,3.125,-1.4375,0.368477,-0.128596,-2.49264
0,-1,5,39,6,-3,-2,-3,-1,0.145508,0.335938,0.840332,-1.375,3.125,-1.4375,0.368477,-0.128596,-2.49264
0,2,-7,-64,-10,-2,2,-3,2,0.145508,0.335938,0.840332,-1.375,3.125,-1.4375,0.368477,-0.128596,-2.49264
0,-3,-3,-51,-3,-2,-1,-2,-1,0.145508,0.335938,0.840332,-1.375,3.125,-1.4375,0.368477,-0.128596,-2.49264
1,0,-1,-5,2,-2,-1,-1,-2,0.132324,0.317871,0.851074,-4.3125,3.375,-2.9375,0.366848,-0.127515,-2.49322
1,0,-5,-7,-11,1,1,1,0,0.132324,0.317871,0.851074,-4.3125,3.375,-2.9375,0.366848,-0.127515,-2.49322
18,0,6,14,1,-3,-3,0,0,0.132324,0.317871,0.851074,-4.3125,3.375,-2.9375,0.366848,-0.127515,-2.49322
18,1,3,10,2,2,-2,1,0,0.132324,0.317871,0.851074,-4.3125,3.375,-2.9375,0.366848,-0.127515,-2.49322
20,-2,-5,1,1,0,-1,0,0,0.120605,0.310059,0.847656,-3.375,3.875,-4.375,0.365427,-0.125818,-2.49401
20,-2,4,32,3,-1,0,0,0,0.120605,0.310059,0.847656,-3.375,3.875,-4.375,0.365427,-0.125818,-2.49401
23,-1,-9,-50,-8,-7,-1,-1,-2,0.120605,0.310059,0.847656,-3.375,3.875,-4.375,0.365427,-0.125818,-2.49401
23,0,0,10,-9,-3,-2,-2,0,0.120605,0.310059,0.847656,-3.375,3.875,-4.375,0.365427,-0.125818,-2.49401
39,1,5,10,10,2,0,0,0,0.12207,0.354492,0.855957,1.8125,6.125,-5,0.366765,-0.123347,-2.49495
39,1,-1,2,2,1,-2,1,0,0.12207,0.354492,0.855957,1.8125,6.125,-5,0.366765,-0.123347,-2.49495
46,-3,-1,17,11,5,2,-1,-2,0.12207,0.354492,0.855957,1.8125,6.125,-5,0.366765,-0.123347,-2.49495
46,0,4,40,-15,-4,0,-1,-1,0.12207,0.354492,0.855957,1.8125,6.125,-5,0.366765,-0.123347,-2.49495
68,-4,-10,-37,-11,-4,-2,-2,-3,0.10498,0.361328,0.856445,0,8.125,-3.9375,0.367585,-0.120024,-2.49534
68,-2,2,-23,-8,-3,-3,0,-5,0.10498,0.361328,0.856445,0,8.125,-3.9375,0.367585,-0.120024,-2.49534
69,-3,-2,2,-3,-2,-2,-3,-3,0.10498,0.361328,0.856445,0,8.125,-3.9375,0.367585,-0.120024,-2.49534
69,2,7,7,8,2,1,-1,-1,0.10498,0.361328,0.856445,0,8.125,-3.9375,0.367585,-0.120024,-2.49534
116,2,10,8,6,1,0,-1,0,0.0849609,0.329102,0.840332,-6.5625,8.8125,-3.625,0.363626,-0.11271,-2.49563
116,-3,-3,-1,-7,-2,-2,-2,-1,0.0849609,0.329102,0.840332,-6.5625,8.8125,-3.625,0.363626,-0.11271,-2.49563
117,-2,-8,-24,-2,-1,-1,0,-1,0.0849609,0.329102,0.840332,-6.5625,8.8125,-3.625,0.363626,-0.11271,-2.49563
117,-1,1,-9,-3,-3,-1,-1,-2,0.0849609,0.329102,0.840332,-6.5625,8.8125,-3.625,0.363626,-0.11271,-2.49563
117,1,-1,4,2,-1,1,0,-1,0.0849609,0.329102,0.840332,-6.5625,8.8125,-3.625,0.363626,-0.11271,-2.49563
117,0,7,29,3,2,1,-1,-1,0.0849609,0.329102,0.840332,-6.5625,8.8125,-3.625,0.363626,-0.11271,-2.49563
120,2,4,-2,-2,1,1,1,1,0.0849609,0.329102,0.840332,-6.5625,8.8125,-3.625,0.363626,-0.11271,-2.49563
120,-1,-8,-41,0,-1,-4,-2,-3,0.0849609,0.329102,0.840332,-6.5625,8.8125,-3.625,0.363626,-0.11271,-2.49563
127,-1,-1,-12,-5,-2,0,-2,-2,0.0854492,0.33252,0.836426,-5.5,8.375,-2.875,0.362132,-0.109227,-2.49546
127,-2,-5,-4,-3,-2,-1,-3,-1,0.0854492,0.33252,0.836426,-5.5,8.375,-2.875,0.362132,-0.109227,-2.49546
135,-3,-1,10,-1,2,0,0,-1,0.0854492,0.33252,0.836426,-5.5,8.375,-2.875,0.362132,-0.109227,-2.49546
135,-1,1,15,3,2,0,0,0,0.0854492,0.33252,0.836426,-5.5,8.375,-2.875,0.362132,-0.109227,-2.49546
142,-2,7,-3,-7,-6,-3,-2,-1,0.0825195,0.335449,0.842285,-7.8125,7.0625,-1.8125,0.359787,-0.106367,-2.49531
142,1,-3,-17,-4,-3,-1,0,-1,0.0825195,0.335449,0.842285,-7.8125,7.0625,-1.8125,0.359787,-0.106367,-2.49531
158,-1,0,23,10,6,-3,0,-2,0.0825195,0.335449,0.842285,-7.8125,7.0625,-1.8125,0.359787,-0.106367,-2.49531
158,-1,-1,7,0,-1,1,0,1,0.0825195,0.335449,0.842285,-7.8125,7.0625,-1.8125,0.359787,-0.106367,-2.49531
164,-3,-8,5,-6,-2,-1,-3,-2,0.0820312,0.322754,0.841309,-10.3125,5.8125,-2.25,0.356383,-0.103892,-2.4953
164,2,0,-29,-1,0,-1,-1,-1,0.0820312,0.322754,0.841309,-10.3125,5.8125,-2.25,0.356383,-0.103892,-2.4953
189,-1,3,7,-5,-6,-2,-2,-2,0.0820312,0.322754,0.841309,-10.3125,5.8125,-2.25,0.356383,-0.103892,-2.4953
189,-2,-12,11,2,-3,-2,0,-3,0.0820312,0.322754,0.841309,-10.3125,5.8125,-2.25,0.356383,-0.103892,-2.4953
190,2,1,-48,-4,-2,-1,1,1,0.090332,0.297852,0.832031,-10.1875,4.3125,-2.8125,0.352738,-0.10217,-2.4957
190,-4,1,0,-11,-2,-2,-2,-1,0.090332,0.297852,0.832031,-10.1875,4.3125,-2.8125,0.352738,-0.10217,-2.4957
203,-3,-3,4,1,-4,-1,-3,-3,0.090332,0.297852,0.832031,-10.1875,4.3125,-2.8125,0.352738,-0.10217,-2.4957
203,1,9,11,1,3,3,-2,-1,0.090332,0.297852,0.832031,-10.1875,4.3125,-2.8125,0.352738,-0.10217,-2.4957
205,0,2,60,15,2,0,0,0,0.0839844,0.283691,0.838379,-9.1875,1.9375,-3.5625,0.349086,-0.10088,-2.4966
205,-3,-22,-74,-7,-4,-2,0,-3,0.0839844,0.283691,0.838379,-9.1875,1.9375,-3.5625,0.349086,-0.10088,-2.4966
226,-1,2,-1,0,-4,-3,-3,-1,0.0839844,0.283691,0.838379,-9.1875,1.9375,-3.5625,0.349086,-0.10088,-2.4966
226,-3,-9,2,4,-9,-2,-2,-1,0.0839844,0.283691,0.838379,-9.1875,1.9375,-3.5625,0.349086,-0.10088,-2.4966
228,-3,-5,28,-7,8,2,1,0,0.0888672,0.326172,0.837891,-3.6875,-0.1875,-5.25,0.348464,-0.100329,-2.49835
228,0,2,-27,6,2,0,0,1,0.0888672,0.326172,0.837891,-3.6875,-0.1875,-5.25,0.348464,-0.100329,-2.49835
249,-1,0,-1,-6,0,1,-1,0,0.0888672,0.326172,0.837891,-3.6875,-0.1875,-5.25,0.348464,-0.100329,-2.49835
249,-1,2,0,3,4,0,0,0,0.0888672,0.326172,0.837891,-3.6875,-0.1875,-5.25,0.348464,-0.100329,-2.49835
250,-2,1,-9,-2,-4,0,0,-2,0.0839844,0.3125,0.830078,-5.1875,-2,-4.625,0.347148,-0.100308,-2.50022
250,-3,-4,26,3,-2,-2,0,0,0.0839844,0.3125,0.830078,-5.1875,-2,-4.625,0.347148,-0.100308,-2.50022
264,1,1,-12,-2,-2,-2,-1,-1,0.0839844,0.3125,0.830078,-5.1875,-2,-4.625,0.347148,-0.100308,-2.50022
264,0,4,2,-6,-3,-2,-2,-4,0.0839844,0.3125,0.830078,-5.1875,-2,-4.625,0.347148,-0.100308,-2.50022
265,1,-1,-8,1,-1,-1,-2,-2,0.0810547,0.288574,0.847168,-8.625,-4.375,-4.625,0.344035,-0.100964,-2.50217
265,1,2,23,-3,0,0,0,0,0.0810547,0.288574,0.847168,-8.625,-4.375,-4.625,0.344035,-0.100964,-2.50217
286,-1,0,-25,16,-2,1,0,-1,0.0810547,0.288574,0.847168,-8.625,-4.375,-4.625,0.344035,-0.100964,-2.50217
286,-3,-11,-7,-9,-1,-1,-1,-1,0.0810547,0.288574,0.847168,-8.625,-4.375,-4.625,0.344035,-0.100964,-2.50217
288,-2,3,5,-6,-1,-2,-2,-1,0.0869141,0.286133,0.850098,-7.8125,-5.1875,-4.75,0.341095,-0.10191,-2.5043
288,1,2,-15,8,7,1,0,0,0.0869141,0.286133,0.850098,-7.8125,-5.1875,-4.75,0.341095,-0.10191,-2.5043
308,-1,-2,23,-4,0,-1,-1,-1,0.0869141,0.286133,0.850098,-7.8125,-5.1875,-4.75,0.341095,-0.10191,-2.5043
308,-1,1,-27,-9,-2,-3,0,-2,0.0869141,0.286133,0.850098,-7.8125,-5.1875,-4.75,0.341095,-0.10191,-2.5043
310,-1,-5,-15,-7,-3,-1,-2,0,0.0922852,0.276367,0.847656,-3.9375,-5,-5.3125,0.339414,-0.103002,-2.50653
310,-2,2,32,5,-5,1,-2,-1,0.0922852,0.276367,0.847656,-3.9375,-5,-5.3125,0.339414,-0.103002,-2.50653
323,0,-2,5,-12,0,-2,0,0,0.0922852,0.276367,0.847656,-3.9375,-5,-5.3125,0.339414,-0.103002,-2.50653
323,0,-3,-4,0,0,1,-1,0,0.0922852,0.276367,0.847656,-3.9375,-5,-5.3125,0.339414,-0.103002,-2.50653
324,-2,-11,7,5,0,-2,0,-2,0.0864258,0.284668,0.84375,-2.125,-5.5625,-4.375,0.338648,-0.104183,-2.50862
324,0,7,8,2,2,-2,2,-1,0.0864258,0.284668,0.84375,-2.125,-5.5625,-4.375,0.338648,-0.104183,-2.50862
346,-2,-5,-4,0,-2,1,1,-2,0.0864258,0.284668,0.84375,-2.125,-5.5625,-4.375,0.338648,-0.104183,-2.50862
346,0,1,11,5,-2,-1,0,0,0.0864258,0.284668,0.84375,-2.125,-5.5625,-4.375,0.338648,-0.104183,-2.50862
348,-1,1,2,5,-6,-2,-1,0,0.0791016,0.291504,0.849609,-1.3125,-6.3125,-3.0625,0.338248,-0.105411,-2.51037
348,2,1,-2,-5,5,2,-1,0,0.0791016,0.291504,0.849609,-1.3125,-6.3125,-3.0625,0.338248,-0.105411,-2.51037
368,-1,-9,-12,5,2,2,-1,0,0.0791016,0.291504,0.849609,-1.3125,-6.3125,-3.0625,0.338248,-0.105411,-2.51037
368,0,0,6,-18,-4,-2,-2,-1,0.0791016,0.291504,0.849609,-1.3125,-6.3125,-3.0625,0.338248,-0.105411,-2.51037
370,-1,-3,-17,17,5,1,1,0,0.0864258,0.295898,0.855957,-0.9375,-6.5,-2.625,0.338004,-0.106989,-2.51192
370,1,13,37,4,-6,-3,-2,0,0.0864258,0.295898,0.855957,-0.9375,-6.5,-2.625,0.338004,-0.106989,-2.51192
383,-9,-14,3,-13,-5,-5,-4,-4,0.0864258,0.295898,0.855957,-0.9375,-6.5,-2.625,0.338004,-0.106989,-2.51192
383,-1,21,16,-1,-1,0,0,-1,0.0864258,0.295898,0.855957,-0.9375,-6.5,-2.625,0.338004,-0.106989,-2.51192
390,1,-3,-19,-8,-4,-1,0,0,0.0942383,0.327148,0.849121,0.8125,-6.6875,-1.4375,0.339085,-0.10892,-2.51324
390,-1,0,11,-6,-3,-2,-1,-1,0.0942383,0.327148,0.849121,0.8125,-6.6875,-1.4375,0.339085,-0.10892,-2.51324
405,1,1,-8,4,6,0,-1,0,0.0942383,0.327148,0.849121,0.8125,-6.6875,-1.4375,0.339085,-0.10892,-2.51324
405,1,-1,-4,0,-2,-1,0,-2,0.0942383,0.327148,0.849121,0.8125,-6.6875,-1.4375,0.339085,-0.10892,-2.51324
408,-2,1,0,-5,-4,-3,-2,-1,0.0991211,0.323242,0.842285,-4.0625,-6.375,1.6875,0.338237,-0.111195,-2.51347
408,-1,-6,-13,-3,0,0,-2,-1,0.0991211,0.323242,0.842285,-4.0625,-6.375,1.6875,0.338237,-0.111195,-2.51347
428,1,0,4,-6,-2,0,0,-1,0.0991211,0.323242,0.842285,-4.0625,-6.375,1.6875,0.338237,-0.111195,-2.51347
428,-2,-5,-7,7,-1,-2,-2,-3,0.0991211,0.323242,0.842285,-4.0625,-6.375,1.6875,0.338237,-0.111195,-2.51347
430,0,-4,-3,-12,0,-1,-1,-2,0.0859375,0.297852,0.856934,-5.625,-6.125,3.3125,0.336323,-0.113097,-2.51308
430,-1,-7,-3,-9,-7,-1,-2,-1,0.0859375,0.297852,0.856934,-5.625,-6.125,3.3125,0.336323,-0.113097,-2.51308
442,-1,5,-4,21,12,4,2,0,0.0859375,0.297852,0.856934,-5.625,-6.125,3.3125,0.336323,-0.113097,-2.51308
442,-3,0,20,0,0,-1,0,0,0.0859375,0.297852,0.856934,-5.625,-6.125,3.3125,0.336323,-0.113097,-2.51308
449,-1,-9,-33,2,3,0,0,-2,0.119141,0.20459,0.878906,0.5625,-7.5625,3.5625,0.334112,-0.116385,-2.51244
449,-1,-2,-6,-7,-13,-5,-2,-2,0.119141,0.20459,0.878906,0.5625,-7.5625,3.5625,0.334112,-0.116385,-2.51244
465,-2,1,-4,-12,-3,-1,-1,-2,0.119141,0.20459,0.878906,0.5625,-7.5625,3.5625,0.334112,-0.116385,-2.51244
465,-1,-7,-22,13,7,1,0,0,0.119141,0.20459,0.878906,0.5625,-7.5625,3.5625,0.334112,-0.116385,-2.51244
468,1,19,30,-1,-10,-3,-3,-1,0.0883789,0.283691,0.829102,3.25,-7.5,1.6875,0.335224,-0.118643,-2.51275
468,-3,-18,-3,-3,7,0,-3,-1,0.0883789,0.283691,0.829102,3.25,-7.5,1.6875,0.335224,-0.118643,-2.51275
489,2,13,-23,5,3,2,0,1,0.0883789,0.283691,0.829102,3.25,-7.5,1.6875,0.335224,-0.118643,-2.51275
489,0,-4,10,4,-2,0,0,1,0.0883789,0.283691,0.829102,3.25,-7.5,1.6875,0.335224,-0.118643,-2.51275
490,-2,-3,2,-1,0,-2,-1,-2,0.114746,0.319336,0.84668,-1.9375,-8.4375,2.75,0.335138,-0.121845,-2.51289
490,-5,3,13,4,-2,-2,0,-2,0.114746,0.319336,0.84668,-1.9375,-8.4375,2.75,0.335138,-0.121845,-2.51289
503,0,-4,-1,-6,-5,-3,-3,0,0.114746,0.319336,0.84668,-1.9375,-8.4375,2.75,0.335138,-0.121845,-2.51289
503,1,0,-6,-14,-2,-1,-2,-1,0.114746,0.319336,0.84668,-1.9375,-8.4375,2.75,0.335138,-0.121845,-2.51289
510,-2,-1,35,16,3,0,-1,-1,0.122559,0.307129,0.853516,-8.1875,-9,4.0625,0.332418,-0.125412,-2.51251
510,-3,-4,-75,-5,0,0,1,0,0.122559,0.307129,0.853516,-8.1875,-9,4.0625,0.332418,-0.125412,-2.51251
526,0,-7,-17,-8,-6,-1,-3,-1,0.122559,0.280273,0.866699,-8.125,-6.8125,4,0.329182,-0.128218,-2.5119
526,0,0,-3,9,-1,1,-1,-1,0.122559,0.280273,0.866699,-8.125,-6.8125,4,0.329182,-0.128218,-2.5119
526,-1,-8,-21,-29,1,2,-1,-1,0.122559,0.280273,0.866699,-8.125,-6.8125,4,0.329182,-0.128218,-2.5119
526,1,5,15,28,3,0,0,0,0.122559,0.280273,0.866699,-8.125,-6.8125,4,0.329182,-0.128218,-2.5119
548,0,13,90,13,-1,-2,-1,0,0.137207,0.277832,0.865234,-0.5625,-4.625,1.6875,0.328635,-0.130387,-2.51186
548,-2,1,-71,-9,-4,-3,-3,-2,0.137207,0.277832,0.865234,-0.5625,-4.625,1.6875,0.328635,-0.130387,-2.51186
549,-3,-6,6,1,-3,-1,-2,-3,0.137207,0.277832,0.865234,-0.5625,-4.625,1.6875,0.328635,-0.130387,-2.51186
549,0,-2,-1,-17,-3,-2,-3,0,0.137207,0.277832,0.865234,-0.5625,-4.625,1.6875,0.328635,-0.130387,-2.51186
563,0,-4,-16,7,-1,-4,-1,-1,0.143555,0.297852,0.85791,-2.125,-3.375,2.8125,0.327956,-0.132464,-2.51129
563,0,-1,14,-1,2,0,-1,1,0.143555,0.297852,0.85791,-2.125,-3.375,2.8125,0.327956,-0.132464,-2.51129
578,1,12,19,3,3,-1,2,-1,0.143555,0.297852,0.85791,-2.125,-3.375,2.8125,0.327956,-0.132464,-2.51129
578,-1,-10,-25,0,-1,-2,-1,-2,0.143555,0.297852,0.85791,-2.125,-3.375,2.8125,0.327956,-0.132464,-2.51129
585,0,-8,-1,-4,-3,0,-1,-2,0.119629,0.280762,0.863281,-5.5,-3.375,5.0625,0.325629,-0.134014,-2.50998
585,-3,-1,39,-6,-5,-1,0,-2,0.119629,0.280762,0.863281,-5.5,-3.375,5.0625,0.325629,-0.134014,-2.50998
586,-1,-3,-40,-1,0,0,0,-1,0.119629,0.280762,0.863281,-5.5,-3.375,5.0625,0.325629,-0.134014,-2.50998
586,1,13,62,4,0,-1,3,0,0.119629,0.280762,0.863281,-5.5,-3.375,5.0625,0.325629,-0.134014,-2.50998
616,-3,-6,-55,-10,-4,-4,-3,-2,0.121094,0.261719,0.86377,-2.8125,-2.375,3.25,0.323817,-0.135134,-2.50905
616,4,12,23,1,2,2,-2,1,0.121094,0.261719,0.86377,-2.8125,-2.375,3.25,0.323817,-0.135134,-2.50905
616,-4,-15,-28,1,1,0,-1,-1,0.121094,0.261719,0.86377,-2.8125,-2.375,3.25,0.323817,-0.135134,-2.50905
616,-1,-4,13,1,0,-1,-2,-1,0.121094,0.261719,0.86377,-2.8125,-2.375,3.25,0.323817,-0.135134,-2.50905
622,-1,-5,-15,-7,-2,-1,-2,-1,0.146484,0.322266,0.874023,-1.125,-0.25,1,0.32412,-0.135789,-2.50883
622,0,3,13,2,-2,-1,-1,0,0.146484,0.322266,0.874023,-1.125,-0.25,1,0.32412,-0.135789,-2.50883
637,1,2,-3,0,-1,-1,-1,0,0.146484,0.322266,0.874023,-1.125,-0.25,1,0.32412,-0.135789,-2.50883
637,-1,-7,-55,-12,1,3,-1,0,0.146484,0.322266,0.874023,-1.125,-0.25,1,0.32412,-0.135789,-2.50883
645,2,22,82,18,1,0,-1,0,0.144531,0.281738,0.866211,1,2.1875,1.4375,0.324142,-0.135684,-2.50803
645,-4,-7,6,12,0,-1,-3,-4,0.144531,0.281738,0.866211,1,2.1875,1.4375,0.324142,-0.135684,-2.50803
646,2,-6,-11,-17,-2,-2,0,1,0.144531,0.281738,0.866211,1,2.1875,1.4375,0.324142,-0.135684,-2.50803
646,-3,0,-9,-6,-5,-2,-3,-3,0.144531,0.281738,0.866211,1,2.1875,1.4375,0.324142,-0.135684,-2.50803
668,-5,-11,-45,-13,-4,-2,-2,-1,0.129883,0.286621,0.853027,-1.5,2.4375,2.875,0.32346,-0.135295,-2.50678
668,-1,-3,24,11,0,-3,-3,-1,0.129883,0.286621,0.853027,-1.5,2.4375,2.875,0.32346,-0.135295,-2.50678
668,1,7,2,2,2,-1,-1,-2,0.129883,0.286621,0.853027,-1.5,2.4375,2.875,0.32346,-0.135295,-2.50678
668,-3,6,10,1,-1,0,1,1,0.129883,0.286621,0.853027,-1.5,2.4375,2.875,0.32346,-0.135295,-2.50678
682,1,-4,-21,-7,-4,-2,-1,-2,0.126953,0.291504,0.835938,-2,1.75,2.1875,0.322976,-0.135171,-2.5059
682,1,0,-9,-1,0,0,1,0,0.126953,0.291504,0.835938,-2,1.75,2.1875,0.322976,-0.135171,-2.5059
698,-1,-1,-8,3,2,0,0,0,0.126953,0.291504,0.835938,-2,1.75,2.1875,0.322976,-0.135171,-2.5059
698,2,1,-4,-2,1,0,-2,-1,0.126953,0.291504,0.835938,-2,1.75,2.1875,0.322976,-0.135171,-2.5059
705,-3,3,12,2,-1,0,0,-2,0.125,0.267578,0.873047,0.5625,2.3125,1.3125,0.32248,-0.134621,-2.50513
705,-1,4,-6,3,-3,-1,-1,-1,0.125,0.267578,0.873047,0.5625,2.3125,1.3125,0.32248,-0.134621,-2.50513
706,-1,-1,30,-5,4,0,0,-1,0.125,0.267578,0.873047,0.5625,2.3125,1.3125,0.32248,-0.134621,-2.50513
706,0,2,51,5,-3,-2,-2,-2,0.125,0.267578,0.873047,0.5625,2.3125,1.3125,0.32248,-0.134621,-2.50513
728,-6,-18,-87,-10,-1,-1,-1,-3,0.137207,0.305176,0.878906,6.3125,3.5,-2.6875,0.324969,-0.133418,-2.50566
728,-3,-7,-20,-15,0,1,1,-1,0.137207,0.305176,0.878906,6.3125,3.5,-2.6875,0.324969,-0.133418,-2.50566
728,0,2,38,17,-2,-1,-1,-1,0.137207,0.305176,0.878906,6.3125,3.5,-2.6875,0.324969,-0.133418,-2.50566
728,-1,3,4,-9,-5,-2,-1,-2,0.137207,0.305176,0.878906,6.3125,3.5,-2.6875,0.324969,-0.133418,-2.50566
743,2,4,14,1,4,2,1,0,0.146484,0.32373,0.865234,2.375,4.3125,-3.1875,0.326672,-0.132188,-2.50625
743,2,0,-6,7,2,0,0,0,0.146484,0.32373,0.865234,2.375,4.3125,-3.1875,0.326672,-0.132188,-2.50625
749,-4,-5,-28,-11,-6,-1,-1,-1,0.146484,0.32373,0.865234,2.375,4.3125,-3.1875,0.326672,-0.132188,-2.50625
749,-1,-7,27,3,1,-1,-1,-1,0.146484,0.32373,0.865234,2.375,4.3125,-3.1875,0.326672,-0.132188,-2.50625
765,1,11,-6,2,-1,-2,-1,1,0.103516,0.286133,0.857422,-3,3,-1,0.325432,-0.130745,-2.50618
765,-6,-19,-88,-4,-2,0,-1,-1,0.103516,0.286133,0.857422,-3,3,-1,0.325432,-0.130745,-2.50618
766,-3,1,32,-10,-6,-1,-2,-2,0.103516,0.286133,0.857422,-3,3,-1,0.325432,-0.130745,-2.50618
766,-2,-8,-38,5,-1,1,0,-2,0.103516,0.286133,0.857422,-3,3,-1,0.325432,-0.130745,-2.50618
788,-2,-3,26,11,-4,0,-1,-3,0.111328,0.259277,0.856934,-0.8125,2.75,-3.5,0.324608,-0.129271,-2.50704
788,-2,4,4,-15,3,-1,-2,0,0.111328,0.259277,0.856934,-0.8125,2.75,-3.5,0.324608,-0.129271,-2.50704
788,1,0,-26,3,-3,-4,0,-1,0.111328,0.259277,0.856934,-0.8125,2.75,-3.5,0.324608,-0.129271,-2.50704
788,-2,-2,-3,-4,1,1,0,-1,0.111328,0.259277,0.856934,-0.8125,2.75,-3.5,0.324608,-0.129271,-2.50704
802,1,1,17,0,-3,0,1,0,0.136719,0.283691,0.853027,6.3125,3.875,-6.625,0.326922,-0.127778,-2.50874
802,-2,-2,6,0,-1,-1,-2,1,0.136719,0.283691,0.853027,6.3125,3.875,-6.625,0.326922,-0.127778,-2.50874
809,-1,2,1,2,-4,0,-2,0,0.136719,0.283691,0.853027,6.3125,3.875,-6.625,0.326922,-0.127778,-2.50874
809,-1,7,53,7,1,0,-2,1,0.136719,0.283691,0.853027,6.3125,3.875,-6.625,0.326922,-0.127778,-2.50874
825,1,-2,-33,-3,-3,-3,-2,0,0.128418,0.313965,0.86084,8.4375,5.875,-6.3125,0.330552,-0.125485,-2.5102
825,0,-3,-57,-11,-7,-3,-1,-3,0.128418,0.313965,0.86084,8.4375,5.875,-6.3125,0.330552,-0.125485,-2.5102
825,-1,1,16,0,2,-2,0,-2,0.128418,0.313965,0.86084,8.4375,5.875,-6.3125,0.330552,-0.125485,-2.5102
825,0,-1,25,4,0,1,3,0,0.128418,0.313965,0.86084,8.4375,5.875,-6.3125,0.330552,-0.125485,-2.5102
849,1,-5,22,3,3,0,0,0,0.116211,0.31543,0.865234,4.4375,5.75,-6.0625,0.33268,-0.122934,-2.51167
849,-1,-8,18,-1,-2,1,-1,-1,0.116211,0.31543,0.865234,4.4375,5.75,-6.0625,0.33268,-0.122934,-2.51167
850,0,5,11,1,-5,-3,-3,-1,0.116211,0.31543,0.865234,4.4375,5.75,-6.0625,0.33268,-0.122934,-2.51167
850,0,1,-60,-3,2,-2,1,0,0.116211,0.31543,0.865234,4.4375,5.75,-6.0625,0.33268,-0.122934,-2.51167
862,0,-3,-21,-11,-3,0,1,0,0.111816,0.299805,0.842285,1.125,5.9375,-6.3125,0.33339,-0.120324,-2.51302
862,0,7,53,11,7,0,-2,-3,0.111816,0.299805,0.842285,1.125,5.9375,-6.3125,0.33339,-0.120324,-2.51302
869,0,0,-34,-14,-5,0,-2,0,0.111816,0.299805,0.842285,1.125,5.9375,-6.3125,0.33339,-0.120324,-2.51302
869,-1,-8,17,-5,0,-2,-1,-1,0.111816,0.299805,0.842285,1.125,5.9375,-6.3125,0.33339,-0.120324,-2.51302
892,-1,4,6,-6,-1,-2,-1,-2,0.106934,0.29834,0.822266,4.0625,6.375,-5.625,0.335303,-0.11762,-2.51423
892,-1,0,0,0,-2,-2,1,0,0.106934,0.29834,0.822266,4.0625,6.375,-5.625,0.335303,-0.11762,-2.51423
893,-1,-9,-8,14,4,-1,0,1,0.106934,0.29834,0.822266,4.0625,6.375,-5.625,0.335303,-0.11762,-2.51423
893,-1,-1,-9,-2,-1,0,-1,-1,0.106934,0.29834,0.822266,4.0625,6.375,-5.625,0.335303,-0.11762,-2.51423
915,-3,-5,7,-1,1,0,-3,-1,0.097168,0.300781,0.84082,2.75,5.0625,-4.375,0.336436,-0.115226,-2.51509
915,1,0,-3,-8,-3,-1,0,1,0.097168,0.300781,0.84082,2.75,5.0625,-4.375,0.336436,-0.115226,-2.51509
916,1,-1,22,-2,-3,-1,0,-2,0.097168,0.300781,0.84082,2.75,5.0625,-4.375,0.336436,-0.115226,-2.51509
916,-1,-2,-29,8,-1,-1,0,-1,0.097168,0.300781,0.84082,2.75,5.0625,-4.375,0.336436,-0.115226,-2.51509
922,-2,-3,7,0,3,0,1,-1,0.0786133,0.307617,0.841797,2.5625,4.875,-4.1875,0.337783,-0.112661,-2.51595
922,-1,7,17,-8,-1,1,-1,-1,0.0786133,0.307617,0.841797,2.5625,4.875,-4.1875,0.337783,-0.112661,-2.51595
937,-2,3,10,5,3,0,-1,0,0.0786133,0.307617,0.841797,2.5625,4.875,-4.1875,0.337783,-0.112661,-2.51595
937,-1,0,-28,-5,-5,-2,-3,-1,0.0786133,0.307617,0.841797,2.5625,4.875,-4.1875,0.337783,-0.112661,-2.51595
946,0,4,28,3,-4,-1,-1,0,0.097168,0.313965,0.854004,4.6875,5.0625,-4.5,0.339787,-0.110418,-2.51687
946,-1,2,5,-1,-3,-3,-1,0,0.097168,0.313965,0.854004,4.6875,5.0625,-4.5,0.339787,-0.110418,-2.51687
946,-3,-1,-38,2,1,1,2,-2,0.097168,0.313965,0.854004,4.6875,5.0625,-4.5,0.339787,-0.110418,-2.51687
946,1,4,39,7,0,0,-1,0,0.097168,0.313965,0.854004,4.6875,5.0625,-4.5,0.339787,-0.110418,-2.51687
968,-4,-19,-27,-20,-6,-2,-2,-1,0.0957031,0.327637,0.847656,1.5,5.25,-2.25,0.340963,-0.108306,-2.51701
968,-1,4,29,11,2,-2,-2,-2,0.0957031,0.327637,0.847656,1.5,5.25,-2.25,0.340963,-0.108306,-2.51701
969,-2,-6,-28,3,0,-2,0,0,0.0957031,0.327637,0.847656,1.5,5.25,-2.25,0.340963,-0.108306,-2.51701
969,2,10,34,6,1,0,1,-1,0.0957031,0.327637,0.847656,1.5,5.25,-2.25,0.340963,-0.108306,-2.51701
982,-2,0,-3,0,-2,0,-2,0,0.0771484,0.313477,0.846191,-2.25,4.25,-0.4375,0.340406,-0.106379,-2.51664
982,-2,-7,-15,-10,-5,-2,-3,-1,0.0771484,0.313477,0.846191,-2.25,4.25,-0.4375,0.340406,-0.106379,-2.51664
990,0,3,15,-5,-1,-1,-2,-1,0.0771484,0.313477,0.846191,-2.25,4.25,-0.4375,0.340406,-0.106379,-2.51664
990,-1,0,-2,9,0,-1,-1,-1,0.0771484,0.313477,0.846191,-2.25,4.25,-0.4375,0.340406,-0.106379,-2.51664
1007,1,7,6,-3,1,-3,0,0,0.0795898,0.293945,0.842773,-2.75,3.375,-0.75,0.339339,-0.104752,-2.51647
1007,-1,-2,0,0,-1,0,-1,-2,0.0795898,0.293945,0.842773,-2.75,3.375,-0.75,0.339339,-0.104752,-2.51647
1007,-3,-6,-14,-5,-4,0,1,-2,0.0795898,0.293945,0.842773,-2.75,3.375,-0.75,0.339339,-0.104752,-2.51647
1007,-2,-4,-23,-8,-2,1,-2,0,0.0795898,0.293945,0.842773,-2.75,3.375,-0.75,0.339339,-0.104752,-2.51647
1028,-2,6,10,7,-1,-3,-1,0,0.097168,0.303711,0.851074,0.875,3.5,-1.25,0.339721,-0.103584,-2.51649
1028,-1,0,1,-1,3,-1,-2,-1,0.097168,0.303711,0.851074,0.875,3.5,-1.25,0.339721,-0.103584,-2.51649
1028,0,-2,1,2,0,-1,-1,0,0.097168,0.303711,0.851074,0.875,3.5,-1.25,0.339721,-0.103584,-2.51649
1028,5,7,-5,0,3,-1,1,-1,0.097168,0.303711,0.851074,0.875,3.5,-1.25,0.339721,-0.103584,-2.51649
1042,-5,-8,46,6,0,0,0,-2,0.0898438,0.330566,0.854004,1.5625,3.1875,-1.3125,0.340906,-0.102258,-2.51658
1042,-2,5,-6,0,-4,-3,-3,-1,0.0898438,0.330566,0.854004,1.5625,3.1875,-1.3125,0.340906,-0.102258,-2.51658
1049,-3,-16,-31,-5,-3,0,-1,-1,0.0898438,0.330566,0.854004,1.5625,3.1875,-1.3125,0.340906,-0.102258,-2.51658
1049,-2,-6,-6,-4,-2,-2,-1,-1,0.0898438,0.330566,0.854004,1.5625,3.1875,-1.3125,0.340906,-0.102258,-2.51658
1065,3,13,-7,-1,1,1,0,-1,0.0800781,0.305664,0.853027,-5.125,2.125,-1.125,0.339295,-0.101182,-2.51674
1065,1,-6,-11,-5,-4,-2,0,1,0.0800781,0.305664,0.853027,-5.125,2.125,-1.125,0.339295,-0.101182,-2.51674
1066,-1,1,28,0,0,1,0,1,0.0800781,0.305664,0.853027,-5.125,2.125,-1.125,0.339295,-0.101182,-2.51674
1066,-3,1,9,-3,-1,1,-1,-3,0.0800781,0.305664,0.853027,-5.125,2.125,-1.125,0.339295,-0.101182,-2.51674
1087,0,2,20,-1,0,0,0,-1,0.0874023,0.289551,0.840332,-5.4375,1.8125,-1.4375,0.33733,-0.100353,-2.51699
1087,-2,-9,-14,-6,-2,0,0,-2,0.0874023,0.289551,0.840332,-5.4375,1.8125,-1.4375,0.33733,-0.100353,-2.51699
1089,2,5,-65,-5,0,1,-2,-2,0.0874023,0.289551,0.840332,-5.4375,1.8125,-1.4375,0.33733,-0.100353,-2.51699
1089,-4,-6,32,1,-1,-2,-4,-2,0.0874023,0.289551,0.840332,-5.4375,1.8125,-1.4375,0.33733,-0.100353,-2.51699
1110,0,-1,-27,-1,-3,-1,-1,-1,0.0976562,0.303711,0.849121,-0.25,2.3125,-2.25,0.337464,-0.0995406,-2.51744
1110,0,1,13,5,1,-1,1,-1,0.0976562,0.303711,0.849121,-0.25,2.3125,-2.25,0.337464,-0.0995406,-2.51744
1110,0,0,22,-2,-1,-3,-2,0,0.0976562,0.303711,0.849121,-0.25,2.3125,-2.25,0.337464,-0.0995406,-2.51744
1110,-3,-2,-16,-4,0,0,1,0,0.0976562,0.303711,0.849121,-0.25,2.3125,-2.25,0.337464,-0.0995406,-2.51744
1132,0,-1,-9,4,-1,-2,0,0,0.0849609,0.313477,0.847656,-1.125,2.4375,-2.3125,0.33746,-0.098265,-2.51798
1132,-1,3,8,5,2,0,-1,0,0.0849609,0.313477,0.847656,-1.125,2.4375,-2.3125,0.33746,-0.098265,-2.51798
1133,-2,-6,-6,-10,-1,-1,-1,-3,0.0849609,0.313477,0.847656,-1.125,2.4375,-2.3125,0.33746,-0.098265,-2.51798
1133,0,5,4,0,0,1,0,0,0.0849609,0.313477,0.847656,-1.125,2.4375,-2.3125,0.33746,-0.098265,-2.51798
1149,-1,-2,-32,-6,0,1,-1,-1,0.0776367,0.314941,0.855469,-4.3125,1.3125,-2.5,0.336337,-0.0972577,-2.51861
1149,0,-3,-16,-1,-2,-2,0,-2,0.0776367,0.314941,0.855469,-4.3125,1.3125,-2.5,0.336337,-0.0972577,-2.51861
1150,-1,6,12,5,-3,-2,1,0,0.0776367,0.314941,0.855469,-4.3125,1.3125,-2.5,0.336337,-0.0972577,-2.51861
1150,-2,-15,-3,-9,-5,-4,-4,-4,0.0776367,0.314941,0.855469,-4.3125,1.3125,-2.5,0.336337,-0.0972577,-2.51861
1171,-2,-2,16,5,1,1,0,0,0.090332,0.300781,0.86084,-4.8125,1.375,-3.625,0.334898,-0.0964544,-2.51973
1171,-3,-3,-6,3,-1,1,1,-1,0.090332,0.300781,0.86084,-4.8125,1.375,-3.625,0.334898,-0.0964544,-2.51973
1171,-2,-2,-1,4,3,1,0,1,0.090332,0.300781,0.86084,-4.8125,1.375,-3.625,0.334898,-0.0964544,-2.51973
1171,4,8,22,2,1,0,2,4,0.090332,0.300781,0.86084,-4.8125,1.375,-3.625,0.334898,-0.0964544,-2.51973
1193,-3,-8,-21,-4,-4,-2,-3,-2,0.0839844,0.299805,0.857422,-3.25,1.8125,-3.3125,0.333895,-0.0954447,-2.52058
1193,-1,-7,-44,-3,-1,-3,-1,-2,0.0839844,0.299805,0.857422,-3.25,1.8125,-3.3125,0.333895,-0.0954447,-2.52058
1193,-2,0,27,-1,-5,-4,-3,-2,0.0839844,0.299805,0.857422,-3.25,1.8125,-3.3125,0.333895,-0.0954447,-2.52058
1193,-2,0,-16,1,-2,-3,-4,-1,0.0839844,0.299805,0.857422,-3.25,1.8125,-3.3125,0.333895,-0.0954447,-2.52058
1208,3,8,16,-11,2,0,-2,0,0.0712891,0.29248,0.856445,-3.5,1.625,-2.625,0.332563,-0.0942501,-2.52116
1208,-2,-1,1,2,1,1,0,0,0.0712891,0.29248,0.856445,-3.5,1.625,-2.625,0.332563,-0.0942501,-2.52116
1208,0,-5,0,-1,-1,-1,0,-2,0.0712891,0.29248,0.856445,-3.5,1.625,-2.625,0.332563,-0.0942501,-2.52116
1208,-1,2,-5,-2,-2,1,0,-1,0.0712891,0.29248,0.856445,-3.5,1.625,-2.625,0.332563,-0.0942501,-2.52116
1230,-1,-3,1,0,1,0,0,-1,0.0712891,0.288574,0.854492,-2.75,1.5,-3.375,0.331651,-0.0929913,-2.52217
1230,1,-2,4,1,-3,-2,1,1,0.0712891,0.288574,0.854492,-2.75,1.5,-3.375,0.331651,-0.0929913,-2.52217
1231,-1,0,34,-3,-1,-1,-1,-2,0.0712891,0.288574,0.854492,-2.75,1.5,-3.375,0.331651,-0.0929913,-2.52217
1231,-1,-6,-62,-6,-2,0,-1,-1,0.0712891,0.288574,0.854492,-2.75,1.5,-3.375,0.331651,-0.0929913,-2.52217
1252,-1,-2,6,1,-1,0,0,0,0.0878906,0.291992,0.853027,-1.25,1.875,-3.4375,0.331294,-0.0920582,-2.52312
1252,1,6,22,8,3,2,1,0,0.0878906,0.291992,0.853027,-1.25,1.875,-3.4375,0.331294,-0.0920582,-2.52312
1253,1,4,12,-2,0,-2,-2,0,0.0878906,0.291992,0.853027,-1.25,1.875,-3.4375,0.331294,-0.0920582,-2.52312
1253,-2,-4,-14,-2,-1,-4,-1,-2,0.0878906,0.291992,0.853027,-1.25,1.875,-3.4375,0.331294,-0.0920582,-2.52312
1267,-1,0,21,1,-2,-1,-1,-2,0.0761719,0.299805,0.853516,-0.875,2.125,-2.375,0.331094,-0.090998,-2.52358
1267,-1,-1,-8,-4,-1,0,-1,-1,0.0761719,0.299805,0.853516,-0.875,2.125,-2.375,0.331094,-0.090998,-2.52358
1268,1,7,27,13,2,-2,-2,-1,0.0761719,0.299805,0.853516,-0.875,2.125,-2.375,0.331094,-0.090998,-2.52358
1268,-1,-1,7,-2,-2,2,0,-2,0.0761719,0.299805,0.853516,-0.875,2.125,-2.375,0.331094,-0.090998,-2.52358
1290,-1,-1,-21,-4,-2,-1,-2,0,0.0708008,0.299316,0.850098,-2.8125,1.75,-1.3125,0.330371,-0.0899442,-2.52378
1290,-3,-4,14,-5,-2,0,0,-1,0.0708008,0.299316,0.850098,-2.8125,1.75,-1.3125,0.330371,-0.0899442,-2.52378
1291,-1,11,-9,5,3,2,0,0,0.0708008,0.299316,0.850098,-2.8125,1.75,-1.3125,0.330371,-0.0899442,-2.52378
1291,1,-2,47,-3,1,-1,0,0,0.0708008,0.299316,0.850098,-2.8125,1.75,-1.3125,0.330371,-0.0899442,-2.52378
1312,-1,-4,-54,-2,-1,-2,1,-2,0.0717773,0.29248,0.852539,-2.75,0.75,-1.125,0.329523,-0.0893489,-2.52415
1312,2,1,20,3,-4,-2,-3,-1,0.0717773,0.29248,0.852539,-2.75,0.75,-1.125,0.329523,-0.0893489,-2.52415
1313,-2,-8,-29,-22,-2,-2,-2,1,0.0717773,0.29248,0.852539,-2.75,0.75,-1.125,0.329523,-0.0893489,-2.52415
1313,-5,-6,-29,11,3,-2,-2,-2,0.0717773,0.29248,0.852539,-2.75,0.75,-1.125,0.329523,-0.0893489,-2.52415
1327,0,9,42,7,-2,-3,-2,0,0.0761719,0.284668,0.848145,-0.9375,0.1875,-0.6875,0.329401,-0.0893113,-2.52412
1327,-2,1,18,1,-2,0,-1,0,0.0761719,0.284668,0.848145,-0.9375,0.1875,-0.6875,0.329401,-0.0893113,-2.52412
1335,0,2,-20,-4,-2,-2,0,-1,0.0761719,0.284668,0.848145,-0.9375,0.1875,-0.6875,0.329401,-0.0893113,-2.52412
1335,-1,-3,-6,-9,-3,-2,0,-1,0.0761719,0.284668,0.848145,-0.9375,0.1875,-0.6875,0.329401,-0.0893113,-2.52412
1350,-1,-6,-25,-4,1,-1,-1,-1,0.078125,0.282715,0.849609,-1,-0.25,0.1875,0.329401,-0.0893113,-2.52412
1350,1,4,1,-4,-4,-3,-2,-2,0.078125,0.282715,0.849609,-1,-0.25,0.1875,0.329401,-0.0893113,-2.52412
1351,-2,-5,11,3,-1,-1,1,-1,0.078125,0.282715,0.849609,-1,-0.25,0.1875,0.329401,-0.0893113,-2.52412
1351,-2,-1,-5,1,0,0,-1,0,0.078125,0.282715,0.849609,-1,-0.25,0.1875,0.329401,-0.0893113,-2.52412
1373,0,2,7,3,2,1,-2,-1,0.074707,0.290039,0.864746,-0.3125,-0.5,0.9375,0.329401,-0.0893113,-2.52412
1373,-1,10,16,-8,-3,-1,0,-1,0.074707,0.290039,0.864746,-0.3125,-0.5,0.9375,0.329401,-0.0893113,-2.52412
1373,-3,-7,-10,1,-2,0,-3,-1,0.074707,0.290039,0.864746,-0.3125,-0.5,0.9375,0.329401,-0.0893113,-2.52412
1373,0,3,-8,7,4,0,-1,-2,0.074707,0.290039,0.864746,-0.3125,-0.5,0.9375,0.329401,-0.0893113,-2.52412
1387,-1,4,95,-2,-1,0,0,-1,0.0849609,0.291504,0.867188,0.875,-0.5625,-0.0625,0.329279,-0.0892738,-2.5241
1387,-3,-4,-69,-12,-4,-2,-3,-3,0.0849609,0.291504,0.867188,0.875,-0.5625,-0.0625,0.329279,-0.0892738,-2.5241
1403,0,-6,-6,-4,-3,-3,-1,-1,0.0849609,0.291504,0.867188,0.875,-0.5625,-0.0625,0.329279,-0.0892738,-2.5241
1403,-2,0,8,3,-3,-1,0,-1,0.0849609,0.291504,0.867188,0.875,-0.5625,-0.0625,0.329279,-0.0892738,-2.5241
1419,-1,-1,9,3,-3,-3,-2,-1,0.0854492,0.298828,0.858398,-0.5,-0.8125,0.0625,0.329401,-0.0893113,-2.52412
1419,-1,-5,-3,-15,-1,-2,0,0,0.0854492,0.298828,0.858398,-0.5,-0.8125,0.0625,0.329401,-0.0893113,-2.52412
1419,-1,5,31,17,3,0,0,0,0.0854492,0.298828,0.858398,-0.5,-0.8125,0.0625,0.329401,-0.0893113,-2.52412
1419,-2,-6,-9,-15,-3,-3,-1,1,0.0854492,0.298828,0.858398,-0.5,-0.8125,0.0625,0.329401,-0.0893113,-2.52412
1450,-3,-4,-11,1,1,0,-1,-1,0.0776367,0.299316,0.856445,-1.25,-1.0625,0.4375,0.329049,-0.0896013,-2.52403
1450,1,-1,19,7,-1,-1,-2,-2,0.0776367,0.299316,0.856445,-1.25,-1.0625,0.4375,0.329049,-0.0896013,-2.52403
1450,-2,6,-24,-5,-3,-1,1,-1,0.0776367,0.299316,0.856445,-1.25,-1.0625,0.4375,0.329049,-0.0896013,-2.52403
1450,0,-1,4,-7,-3,-2,-1,0,0.0776367,0.299316,0.856445,-1.25,-1.0625,0.4375,0.329049,-0.0896013,-2.52403
1451,-1,-1,-3,4,0,-1,0,-1,0.0830078,0.290039,0.860352,-0.125,-0.375,-0.3125,0.329049,-0.0896013,-2.52403
1451,0,-2,-34,2,5,0,-1,0,0.0830078,0.290039,0.860352,-0.125,-0.375,-0.3125,0.329049,-0.0896013,-2.52403
1455,0,-8,35,-1,0,-1,-2,-1,0.0830078,0.290039,0.860352,-0.125,-0.375,-0.3125,0.329049,-0.0896013,-2.52403
1455,-1,-6,1,3,-2,-2,-1,-3,0.0830078,0.290039,0.860352,-0.125,-0.375,-0.3125,0.329049,-0.0896013,-2.52403
1471,-2,-9,-38,-14,-4,-1,-3,-1,0.0805664,0.296387,0.864258,1.0625,0.125,-0.875,0.329486,-0.0894429,-2.52426
1471,1,8,29,5,-1,2,-1,0,0.0805664,0.296387,0.864258,1.0625,0.125,-0.875,0.329486,-0.0894429,-2.52426
1471,-1,0,3,2,-1,0,1,0,0.0805664,0.296387,0.864258,1.0625,0.125,-0.875,0.329486,-0.0894429,-2.52426
1471,1,13,-17,1,0,-2,1,-1,0.0805664,0.296387,0.864258,1.0625,0.125,-0.875,0.329486,-0.0894429,-2.52426
1493,-3,1,43,1,-4,-1,1,-2,0.0795898,0.308594,0.862305,0.3125,0.4375,-0.6875,0.329608,-0.0894804,-2.52428
1493,0,-11,-38,1,2,0,1,-2,0.0795898,0.308594,0.862305,0.3125,0.4375,-0.6875,0.329608,-0.0894804,-2.52428
1493,0,-3,-16,-15,-2,-1,1,0,0.0795898,0.308594,0.862305,0.3125,0.4375,-0.6875,0.329608,-0.0894804,-2.52428
1493,0,2,10,-4,-3,-1,-2,0,0.0795898,0.308594,0.862305,0.3125,0.4375,-0.6875,0.329608,-0.0894804,-2.52428
1507,1,2,-17,10,6,1,0,1,0.0737305,0.300293,0.864746,-1.0625,0.3125,-0.3125,0.329333,-0.0891165,-2.52437
1507,-3,3,21,2,-4,-3,-4,0,0.0737305,0.300293,0.864746,-1.0625,0.3125,-0.3125,0.329333,-0.0891165,-2.52437
1515,1,1,-14,5,-1,1,-3,-1,0.0737305,0.300293,0.864746,-1.0625,0.3125,-0.3125,0.329333,-0.0891165,-2.52437
1515,-2,-5,39,-11,-3,-1,-2,-2,0.0737305,0.300293,0.864746,-1.0625,0.3125,-0.3125,0.329333,-0.0891165,-2.52437
1531,1,-1,-17,-3,-2,0,0,0,0.074707,0.300293,0.860352,-2.75,0.25,-1.375,0.32855,-0.0886542,-2.52477
1531,-4,-3,44,1,-2,-2,-1,-3,0.074707,0.300293,0.860352,-2.75,0.25,-1.375,0.32855,-0.0886542,-2.52477
1531,1,-6,-71,-1,-2,0,0,-1,0.074707,0.300293,0.860352,-2.75,0.25,-1.375,0.32855,-0.0886542,-2.52477
1531,1,4,26,4,-1,0,0,1,0.074707,0.300293,0.860352,-2.75,0.25,-1.375,0.32855,-0.0886542,-2.52477
1552,0,3,-10,-4,-2,-3,-2,-2,0.081543,0.287598,0.852051,-3,0.0625,-1.375,0.327521,-0.0886131,-2.52532
1552,-2,-9,-5,-4,-2,-1,-1,-1,0.081543,0.287598,0.852051,-3,0.0625,-1.375,0.327521,-0.0886131,-2.52532
1553,-1,3,10,6,0,-2,0,-1,0.081543,0.287598,0.852051,-3,0.0625,-1.375,0.327521,-0.0886131,-2.52532
1553,0,-3,-5,0,-2,-2,-1,0,0.081543,0.287598,0.852051,-3,0.0625,-1.375,0.327521,-0.0886131,-2.52532
1567,-1,6,-7,-1,0,0,1,-1,0.0830078,0.295898,0.856445,-1.3125,0.25,-1.6875,0.327226,-0.0883015,-2.52581
1567,-3,-2,-5,-1,2,1,0,1,0.0830078,0.295898,0.856445,-1.3125,0.25,-1.6875,0.327226,-0.0883015,-2.52581
1575,-3,-4,10,-6,-2,-1,-2,-2,0.0830078,0.295898,0.856445,-1.3125,0.25,-1.6875,0.327226,-0.0883015,-2.52581
1575,-1,2,-13,2,-1,-1,1,-1,0.0830078,0.295898,0.856445,-1.3125,0.25,-1.6875,0.327226,-0.0883015,-2.52581
1599,0,-9,-11,-2,0,-1,-1,-2,0.0766602,0.30127,0.861816,-1.5625,0.0625,-1.875,0.327053,-0.0880068,-2.52642
1599,0,0,20,5,-2,-4,-3,0,0.0766602,0.30127,0.861816,-1.5625,0.0625,-1.875,0.327053,-0.0880068,-2.52642
1600,-2,-6,-20,-6,-3,-1,-1,-1,0.0766602,0.30127,0.861816,-1.5625,0.0625,-1.875,0.327053,-0.0880068,-2.52642
1600,0,-6,-37,-4,-1,0,1,0,0.0766602,0.30127,0.861816,-1.5625,0.0625,-1.875,0.327053,-0.0880068,-2.52642
1613,1,3,8,-2,0,-1,0,-1,0.0683594,0.289062,0.859863,-3.5625,-1.4375,-1.4375,0.325743,-0.0879867,-2.52703
1613,-2,0,50,-1,-2,-1,0,-2,0.0683594,0.289062,0.859863,-3.5625,-1.4375,-1.4375,0.325743,-0.0879867,-2.52703
1614,-5,-9,-42,-2,1,-3,-1,-3,0.0683594,0.289062,0.859863,-3.5625,-1.4375,-1.4375,0.325743,-0.0879867,-2.52703
1614,-1,-3,-6,1,0,-1,-1,-2,0.0683594,0.289062,0.859863,-3.5625,-1.4375,-1.4375,0.325743,-0.0879867,-2.52703
1627,-1,-4,-25,-4,-3,1,-1,-1,0.0805664,0.279785,0.849609,-3.625,-1.8125,-1.375,0.324412,-0.088485,-2.52764
1627,1,2,0,2,-1,0,-1,0,0.0805664,0.279785,0.849609,-3.625,-1.8125,-1.375,0.324412,-0.088485,-2.52764
1635,1,3,29,6,0,-2,-2,0,0.0805664,0.279785,0.849609,-3.625,-1.8125,-1.375,0.324412,-0.088485,-2.52764
1635,0,0,4,-2,0,-2,-1,0,0.0805664,0.279785,0.849609,-3.625,-1.8125,-1.375,0.324412,-0.088485,-2.52764
1651,-3,-14,-2,1,0,-2,-1,-3,0.0795898,0.278809,0.862793,-1.4375,-1.375,-1.375,0.32378,-0.0888267,-2.52822
1651,0,13,-9,1,0,-1,0,0,0.0795898,0.278809,0.862793,-1.4375,-1.375,-1.375,0.32378,-0.0888267,-2.52822
1651,1,2,3,0,0,-1,0,-1,0.0795898,0.278809,0.862793,-1.4375,-1.375,-1.375,0.32378,-0.0888267,-2.52822
1651,-3,-4,-5,0,0,0,-3,-2,0.0795898,0.278809,0.862793,-1.4375,-1.375,-1.375,0.32378,-0.0888267,-2.52822
1673,0,-3,3,-11,-1,-1,-3,1,0.0732422,0.286621,0.856445,0.375,-1.5625,-1.25,0.323902,-0.0888955,-2.52883
1673,-3,-5,-29,1,-3,-1,0,-1,0.0732422,0.286621,0.856445,0.375,-1.5625,-1.25,0.323902,-0.0888955,-2.52883
1673,0,2,43,5,-1,1,0,0,0.0732422,0.286621,0.856445,0.375,-1.5625,-1.25,0.323902,-0.0888955,-2.52883
1673,1,-4,7,5,0,1,-1,0,0.0732422,0.286621,0.856445,0.375,-1.5625,-1.25,0.323902,-0.0888955,-2.52883
1696,-1,-3,-32,-5,-2,0,-1,0,0.0727539,0.293457,0.858398,-1.625,-1.9375,-1.4375,0.323549,-0.089177,-2.52953
1696,-1,-8,-28,-10,0,-1,-2,-1,0.0727539,0.293457,0.858398,-1.625,-1.9375,-1.4375,0.323549,-0.089177,-2.52953
1696,0,2,6,-5,0,-1,-1,-1,0.0727539,0.293457,0.858398,-1.625,-1.9375,-1.4375,0.323549,-0.089177,-2.52953
1696,-2,1,11,2,-2,0,0,-2,0.0727539,0.293457,0.858398,-1.625,-1.9375,-1.4375,0.323549,-0.089177,-2.52953
1710,-2,1,2,-2,-4,-2,0,0,0.0839844,0.288086,0.862793,-1.625,-1.9375,-1.3125,0.323071,-0.0898248,-2.53008
1710,0,-1,-3,0,-2,-4,-1,1,0.0839844,0.288086,0.862793,-1.625,-1.9375,-1.3125,0.323071,-0.0898248,-2.53008
1711,0,7,8,-2,-2,0,0,-1,0.0839844,0.288086,0.862793,-1.625,-1.9375,-1.3125,0.323071,-0.0898248,-2.53008
1711,-3,-2,-6,-3,-3,-1,-3,-2,0.0839844,0.288086,0.862793,-1.625,-1.9375,-1.3125,0.323071,-0.0898248,-2.53008
1733,-1,4,7,5,-1,-1,1,-2,0.0834961,0.293457,0.858887,0,-1,-0.75,0.323071,-0.0898248,-2.53008
1733,2,0,12,1,0,1,0,0,0.0834961,0.293457,0.858887,0,-1,-0.75,0.323071,-0.0898248,-2.53008
1733,-4,-5,-21,-5,-2,-3,-1,-2,0.0834961,0.293457,0.858887,0,-1,-0.75,0.323071,-0.0898248,-2.53008
1733,2,7,22,-5,-3,0,-2,1,0.0834961,0.293457,0.858887,0,-1,-0.75,0.323071,-0.0898248,-2.53008
1755,-1,-1,-44,7,1,-1,-2,-2,0.0766602,0.291016,0.868164,0.4375,-0.375,-0.6875,0.323071,-0.0898248,-2.53008
1755,-4,-6,49,-5,-1,-2,-2,-2,0.0766602,0.291016,0.868164,0.4375,-0.375,-0.6875,0.323071,-0.0898248,-2.53008
1757,-2,1,12,-1,1,-1,1,1,0.0766602,0.291016,0.868164,0.4375,-0.375,-0.6875,0.323071,-0.0898248,-2.53008
1757,-1,-6,-21,1,3,0,-1,0,0.0766602,0.291016,0.868164,0.4375,-0.375,-0.6875,0.323071,-0.0898248,-2.53008
1770,-1,-2,18,-4,-2,-1,-1,0,0.0776367,0.288086,0.859863,-1,-0.75,-0.0625,0.323107,-0.0897098,-2.53006
1770,2,3,-16,1,0,-1,2,1,0.0776367,0.288086,0.859863,-1,-0.75,-0.0625,0.323107,-0.0897098,-2.53006
1771,1,-3,-9,-1,-2,-1,-2,-1,0.0776367,0.288086,0.859863,-1,-0.75,-0.0625,0.323107,-0.0897098,-2.53006
1771,-2,2,12,2,1,-2,0,-3,0.0776367,0.288086,0.859863,-1,-0.75,-0.0625,0.323107,-0.0897098,-2.53006
1793,-2,0,8,-4,-2,0,-3,0,0.0776367,0.285156,0.854492,-2.1875,-0.5625,0,0.322286,-0.0898103,-2.53017
1793,1,6,-22,-2,0,-1,1,-2,0.0776367,0.285156,0.854492,-2.1875,-0.5625,0,0.322286,-0.0898103,-2.53017
1793,-2,1,25,1,0,0,-2,0,0.0776367,0.285156,0.854492,-2.1875,-0.5625,0,0.322286,-0.0898103,-2.53017
1793,-1,-5,-29,-1,-1,-1,-1,-2,0.0776367,0.285156,0.854492,-2.1875,-0.5625,0,0.322286,-0.0898103,-2.53017
1815,1,0,-12,-1,-1,-2,-1,-2,0.0810547,0.287598,0.861816,-0.1875,-0.0625,-0.25,0.322306,-0.0898096,-2.53027
1815,1,-4,-3,-4,-2,-2,-4,-1,0.0810547,0.287598,0.861816,-0.1875,-0.0625,-0.25,0.322306,-0.0898096,-2.53027
1816,-1,3,25,11,0,0,-2,-1,0.0810547,0.287598,0.861816,-0.1875,-0.0625,-0.25,0.322306,-0.0898096,-2.53027
1816,-4,-17,-44,-12,-1,-2,-1,-1,0.0810547,0.287598,0.861816,-0.1875,-0.0625,-0.25,0.322306,-0.0898096,-2.53027
1830,1,5,13,3,-2,-1,-1,-1,0.0844727,0.29834,0.863281,-0.875,0.3125,-0.6875,0.322408,-0.0898475,-2.53019
1830,-1,-1,15,-6,-1,-2,-1,0,0.0844727,0.29834,0.863281,-0.875,0.3125,-0.6875,0.322408,-0.0898475,-2.53019
1831,-1,-8,-42,4,1,0,0,-1,0.0844727,0.29834,0.863281,-0.875,0.3125,-0.6875,0.322408,-0.0898475,-2.53019
1831,-3,0,8,1,-1,-3,-2,-1,0.0844727,0.29834,0.863281,-0.875,0.3125,-0.6875,0.322408,-0.0898475,-2.53019
1852,0,-2,11,0,0,-1,-1,-1,0.0839844,0.288086,0.859375,-2.25,-0.625,-0.375,0.321693,-0.0900997,-2.53044
1852,-1,-3,-18,-1,0,1,1,0,0.0839844,0.288086,0.859375,-2.25,-0.625,-0.375,0.321693,-0.0900997,-2.53044
1853,0,-2,6,-4,-3,0,0,-1,0.0839844,0.288086,0.859375,-2.25,-0.625,-0.375,0.321693,-0.0900997,-2.53044
1853,0,8,37,6,1,-3,-3,-1,0.0839844,0.288086,0.859375,-2.25,-0.625,-0.375,0.321693,-0.0900997,-2.53044
1876,-3,-3,-10,-6,-2,-3,-1,0,0.0805664,0.286621,0.859863,-1.9375,-0.5,0.125,0.321012,-0.0901437,-2.53036
1876,-1,4,2,0,0,-1,0,0,0.0805664,0.286621,0.859863,-1.9375,-0.5,0.125,0.321012,-0.0901437,-2.53036
1878,1,-1,-10,-7,-2,-4,-2,1,0.0805664,0.286621,0.859863,-1.9375,-0.5,0.125,0.321012,-0.0901437,-2.53036
1878,2,5,38,1,-1,-1,-2,-1,0.0805664,0.286621,0.859863,-1.9375,-0.5,0.125,0.321012,-0.0901437,-2.53036
1890,-3,-8,-50,1,-1,2,1,-1,0.0737305,0.296387,0.863281,0.0625,-0.0625,-0.5,0.321012,-0.0901437,-2.53036
1890,-4,-8,-11,-2,0,-1,-3,-3,0.0737305,0.296387,0.863281,0.0625,-0.0625,-0.5,0.321012,-0.0901437,-2.53036
1891,-2,3,13,-7,-5,-2,-2,-3,0.0737305,0.296387,0.863281,0.0625,-0.0625,-0.5,0.321012,-0.0901437,-2.53036
1891,0,-1,-6,-2,-1,0,-2,0,0.0737305,0.296387,0.863281,0.0625,-0.0625,-0.5,0.321012,-0.0901437,-2.53036
1912,-1,0,16,2,1,-1,-2,-1,0.0712891,0.293457,0.857422,-2.1875,-0.8125,-0.125,0.320527,-0.0900882,-2.53059
1912,2,8,2,4,1,1,1,9,0.0712891,0.293457,0.857422,-2.1875,-0.8125,-0.125,0.320527,-0.0900882,-2.53059
1913,0,-8,-12,-4,-1,-2,0,-3,0.0712891,0.293457,0.857422,-2.1875,-0.8125,-0.125,0.320527,-0.0900882,-2.53059
1913,0,13,-5,0,-3,-2,2,0,0.0712891,0.293457,0.857422,-2.1875,-0.8125,-0.125,0.320527,-0.0900882,-2.53059
1935,0,-1,16,-4,0,-1,-2,-5,0.0849609,0.283203,0.858887,-3.625,-0.6875,-0.1875,0.31927,-0.0903279,-2.53057
1935,-1,-1,-8,1,-2,0,-3,-1,0.0849609,0.283203,0.858887,-3.625,-0.6875,-0.1875,0.31927,-0.0903279,-2.53057
1937,0,-2,5,3,1,0,1,2,0.0849609,0.283203,0.858887,-3.625,-0.6875,-0.1875,0.31927,-0.0903279,-2.53057
1937,-1,-5,-8,-2,-3,0,-2,-1,0.0849609,0.283203,0.858887,-3.625,-0.6875,-0.1875,0.31927,-0.0903279,-2.53057
1951,-1,1,8,6,0,-1,2,5,0.0883789,0.273438,0.866699,-0.9375,0.5625,-0.0625,0.319234,-0.0904429,-2.53058
1951,-3,-5,-10,-7,-3,-3,0,-2,0.0883789,0.273438,0.866699,-0.9375,0.5625,-0.0625,0.319234,-0.0904429,-2.53058
1958,-1,-2,-4,-1,0,-1,-1,-1,0.0883789,0.273438,0.866699,-0.9375,0.5625,-0.0625,0.319234,-0.0904429,-2.53058
1958,0,1,29,8,-1,-1,-1,-2,0.0883789,0.273438,0.866699,-0.9375,0.5625,-0.0625,0.319234,-0.0904429,-2.53058
1973,2,0,-25,-7,-1,-1,-2,0,0.0761719,0.288086,0.864258,0,0.75,0.0625,0.319234,-0.0904429,-2.53058
1973,-1,-12,-59,-2,-1,0,0,-2,0.0761719,0.288086,0.864258,0,0.75,0.0625,0.319234,-0.0904429,-2.53058
1973,-2,10,8,-3,0,0,-1,-4,0.0761719,0.288086,0.864258,0,0.75,0.0625,0.319234,-0.0904429,-2.53058
1973,1,-3,-6,-2,1,-1,0,2,0.0761719,0.288086,0.864258,0,0.75,0.0625,0.319234,-0.0904429,-2.53058
2004,-1,2,14,-1,-2,-1,-1,0,0.0791016,0.286133,0.86084,-2.375,0.25,-0.0625,0.318419,-0.0901813,-2.53063
2004,0,1,5,-1,-1,-1,0,-3,0.0791016,0.286133,0.86084,-2.375,0.25,-0.0625,0.318419,-0.0901813,-2.53063
2004,-1,-7,-5,0,-1,0,1,2,0.0791016,0.286133,0.86084,-2.375,0.25,-0.0625,0.318419,-0.0901813,-2.53063
2004,1,-3,-5,-5,-2,2,-1,-1,0.0791016,0.286133,0.86084,-2.375,0.25,-0.0625,0.318419,-0.0901813,-2.53063
2010,-1,2,8,3,-3,-2,-2,-2,0.0888672,0.276855,0.859375,-1.75,0.6875,-0.375,0.317793,-0.0900896,-2.53073
2010,1,2,9,5,1,0,-2,-3,0.0888672,0.276855,0.859375,-1.75,0.6875,-0.375,0.317793,-0.0900896,-2.53073
2010,-1,4,43,-1,-1,-1,-3,0,0.0888672,0.276855,0.859375,-1.75,0.6875,-0.375,0.317793,-0.0900896,-2.53073
2010,-5,-9,3,-8,-2,-2,1,-15,0.0888672,0.276855,0.859375,-1.75,0.6875,-0.375,0.317793,-0.0900896,-2.53073
2033,1,-3,11,-4,-2,-1,1,-5,0.0776367,0.288086,0.86084,1.4375,1,0,0.318319,-0.0896467,-2.53052
2033,-6,-8,-1,-6,-3,-2,1,0,0.0776367,0.288086,0.86084,1.4375,1,0,0.318319,-0.0896467,-2.53052
2033,2,3,22,4,-2,-1,-4,-7,0.0776367,0.288086,0.86084,1.4375,1,0,0.318319,-0.0896467,-2.53052
2033,2,6,-17,3,1,1,1,5,0.0776367,0.288086,0.86084,1.4375,1,0,0.318319,-0.0896467,-2.53052
2056,-2,-11,-4,-3,1,-1,-1,2,0.0766602,0.296875,0.866699,0.25,1.1875,-0.5625,0.318619,-0.0890886,-2.53055
2056,1,1,16,0,-1,-3,-3,-5,0.0766602,0.296875,0.866699,0.25,1.1875,-0.5625,0.318619,-0.0890886,-2.53055
2056,-1,2,-14,-5,-2,-2,1,6,0.0766602,0.296875,0.866699,0.25,1.1875,-0.5625,0.318619,-0.0890886,-2.53055
2056,-1,0,-13,2,-3,-2,-2,0,0.0766602,0.296875,0.866699,0.25,1.1875,-0.5625,0.318619,-0.0890886,-2.53055
2070,0,3,-17,-2,-3,-2,0,1,0.081543,0.287598,0.855469,-2.25,1,0.125,0.318064,-0.088787,-2.53052
2070,-1,0,42,1,1,1,0,2,0.081543,0.287598,0.855469,-2.25,1,0.125,0.318064,-0.088787,-2.53052
2071,-1,-2,-58,-6,-2,-1,1,-1,0.081543,0.287598,0.855469,-2.25,1,0.125,0.318064,-0.088787,-2.53052
2071,0,-3,-9,0,5,1,1,1,0.081543,0.287598,0.855469,-2.25,1,0.125,0.318064,-0.088787,-2.53052
2092,1,5,14,1,0,-1,0,-4,0.0776367,0.291992,0.858887,-0.3125,0.75,0.8125,0.318064,-0.088787,-2.53052
2092,0,1,7,-4,0,-1,0,-1,0.0776367,0.291992,0.858887,-0.3125,0.75,0.8125,0.318064,-0.088787,-2.53052
2093,-1,-3,-4,-6,-4,-2,-1,0,0.0776367,0.291992,0.858887,-0.3125,0.75,0.8125,0.318064,-0.088787,-2.53052
2093,-4,2,27,2,-3,-1,-1,-2,0.0776367,0.291992,0.858887,-0.3125,0.75,0.8125,0.318064,-0.088787,-2.53052
2116,-2,4,-22,5,0,2,0,1,0.0673828,0.288086,0.850586,-2.25,-0.25,0.5,0.317456,-0.0886211,-2.53032
2116,-2,-7,-26,-6,-3,-2,0,-2,0.0673828,0.288086,0.850586,-2.25,-0.25,0.5,0.317456,-0.0886211,-2.53032
2117,0,-1,3,1,-1,0,0,0,0.0673828,0.288086,0.850586,-2.25,-0.25,0.5,0.317456,-0.0886211,-2.53032
2117,0,-5,-21,-4,-2,-1,3,26,0.0673828,0.288086,0.850586,-2.25,-0.25,0.5,0.317456,-0.0886211,-2.53032
2130,4,2,27,1,0,-1,-2,-2,0.0820312,0.276367,0.861816,-3.4375,-0.3125,-0.6875,0.316151,-0.0886873,-2.53056
2130,-4,2,6,0,-1,-4,-1,0,0.0820312,0.276367,0.861816,-3.4375,-0.3125,-0.6875,0.316151,-0.0886873,-2.53056
2131,-1,-3,-8,-1,0,1,-1,-6,0.0820312,0.276367,0.861816,-3.4375,-0.3125,-0.6875,0.316151,-0.0886873,-2.53056
2131,-1,-2,5,0,-1,-2,0,0,0.0820312,0.276367,0.861816,-3.4375,-0.3125,-0.6875,0.316151,-0.0886873,-2.53056
2153,-3,-2,9,-1,0,-2,0,2,0.0888672,0.280762,0.860352,0.0625,0.625,-1.8125,0.316203,-0.0884716,-2.53111
2153,8,1,-13,0,0,0,-2,0,0.0888672,0.280762,0.860352,0.0625,0.625,-1.8125,0.316203,-0.0884716,-2.53111
2153,-15,-6,3,2,-1,-1,0,1,0.0888672,0.280762,0.860352,0.0625,0.625,-1.8125,0.316203,-0.0884716,-2.53111
2153,-4,-2,-7,-3,-3,0,-2,4,0.0888672,0.280762,0.860352,0.0625,0.625,-1.8125,0.316203,-0.0884716,-2.53111
2176,0,1,-3,-1,-2,-2,-5,-31,0.0854492,0.287598,0.876953,-0.125,1.75,-1.6875,0.316277,-0.0877985,-2.53139
2176,2,4,33,2,0,-1,0,-6,0.0854492,0.287598,0.876953,-0.125,1.75,-1.6875,0.316277,-0.0877985,-2.53139
2177,1,-7,-52,-2,-1,0,-5,-1,0.0854492,0.287598,0.876953,-0.125,1.75,-1.6875,0.316277,-0.0877985,-2.53139
2177,3,-1,-30,3,1,0,-1,-3,0.0854492,0.287598,0.876953,-0.125,1.75,-1.6875,0.316277,-0.0877985,-2.53139
2190,-5,3,13,-3,0,-4,1,4,0.0849609,0.292969,0.878906,-2.0625,3.0625,-2.5625,0.315728,-0.0866314,-2.5319
2190,-2,-4,0,4,0,0,-2,3,0.0849609,0.292969,0.878906,-2.0625,3.0625,-2.5625,0.315728,-0.0866314,-2.5319
2191,1,-5,20,0,0,-1,0,-6,0.0849609,0.292969,0.878906,-2.0625,3.0625,-2.5625,0.315728,-0.0866314,-2.5319
2191,0,7,-5,-2,-1,-1,0,-7,0.0849609,0.292969,0.878906,-2.0625,3.0625,-2.5625,0.315728,-0.0866314,-2.5319
2213,-2,-1,23,1,1,-1,-2,8,0.0776367,0.300781,0.851074,-0.125,2.4375,-0.8125,0.316256,-0.0857451,-2.532
2213,0,-6,-66,-11,-5,-3,-3,-3,0.0776367,0.300781,0.851074,-0.125,2.4375,-0.8125,0.316256,-0.0857451,-2.532
2214,3,7,18,4,1,1,2,4,0.0776367,0.300781,0.851074,-0.125,2.4375,-0.8125,0.316256,-0.0857451,-2.532
2214,0,-3,15,-4,-4,-2,-3,-8,0.0776367,0.300781,0.851074,-0.125,2.4375,-0.8125,0.316256,-0.0857451,-2.532
2235,0,-6,-46,-3,1,1,1,3,0.0629883,0.280762,0.844727,-7.375,1.8125,-0.25,0.313847,-0.0847334,-2.53191
2235,0,0,15,0,-2,-2,-20,-9,0.0629883,0.280762,0.844727,-7.375,1.8125,-0.25,0.313847,-0.0847334,-2.53191
2236,-11,0,0,-2,-5,-5,3,0,0.0629883,0.280762,0.844727,-7.375,1.8125,-0.25,0.313847,-0.0847334,-2.53191
2236,-1,-7,1,-1,-4,-5,-1,-3,0.0629883,0.280762,0.844727,-7.375,1.8125,-0.25,0.313847,-0.0847334,-2.53191
2250,-1,5,6,-1,1,2,7,3,0.0581055,0.251465,0.859863,-4.75,1.5,-0.75,0.31156,-0.083739,-2.53194
2250,-4,-6,35,1,-1,-1,8,0,0.0581055,0.251465,0.859863,-4.75,1.5,-0.75,0.31156,-0.083739,-2.53194
2258,5,4,-3,-5,0,-1,-5,-1,0.0581055,0.251465,0.859863,-4.75,1.5,-0.75,0.31156,-0.083739,-2.53194
2258,-2,0,-10,3,3,-2,1,-2,0.0581055,0.251465,0.859863,-4.75,1.5,-0.75,0.31156,-0.083739,-2.53194
2281,-5,-9,0,-7,-5,-5,-20,1,0.074707,0.271484,0.865234,1.5,2,-1.375,0.311929,-0.0829115,-2.53213
2281,-2,2,-21,0,0,-1,-3,-26,0.074707,0.271484,0.865234,1.5,2,-1.375,0.311929,-0.0829115,-2.53213
2282,1,1,21,-6,0,0,0,-1,0.074707,0.271484,0.865234,1.5,2,-1.375,0.311929,-0.0829115,-2.53213
2282,3,15,25,10,1,2,10,2,0.074707,0.271484,0.865234,1.5,2,-1.375,0.311929,-0.0829115,-2.53213
2303,-3,-9,-50,-7,-6,-3,-4,-5,0.0786133,0.29248,0.863281,5.25,2.4375,-1.875,0.314039,-0.0819708,-2.53252
2303,0,11,35,5,0,0,1,9,0.0786133,0.29248,0.863281,5.25,2.4375,-1.875,0.314039,-0.0819708,-2.53252
2304,1,-6,-36,-1,0,0,7,0,0.0786133,0.29248,0.863281,5.25,2.4375,-1.875,0.314039,-0.0819708,-2.53252
2304,-2,-3,-23,-8,-2,0,-13,-8,0.0786133,0.29248,0.863281,5.25,2.4375,-1.875,0.314039,-0.0819708,-2.53252
2310,2,7,16,0,0,0,4,6,0.0615234,0.291992,0.853027,3.9375,1.4375,-0.125,0.315856,-0.081151,-2.5324
2310,-4,-2,-11,-5,-2,0,5,5,0.0615234,0.291992,0.853027,3.9375,1.4375,-0.125,0.315856,-0.081151,-2.5324
2318,2,4,19,6,3,1,-4,-1,0.0615234,0.291992,0.853027,3.9375,1.4375,-0.125,0.315856,-0.081151,-2.5324
2318,1,0,1,-6,-2,0,0,1,0.0615234,0.291992,0.853027,3.9375,1.4375,-0.125,0.315856,-0.081151,-2.5324
2332,1,-1,11,6,1,1,3,2,0.0600586,0.277832,0.837891,-2.625,-0.3125,1.3125,0.314971,-0.0810665,-2.53198
2332,-6,-4,-2,-12,-5,-3,6,5,0.0600586,0.277832,0.837891,-2.625,-0.3125,1.3125,0.314971,-0.0810665,-2.53198
2333,1,1,8,7,3,-1,-1,-2,0.0600586,0.277832,0.837891,-2.625,-0.3125,1.3125,0.314971,-0.0810665,-2.53198
2333,-3,-18,37,3,1,2,-2,-2,0.0600586,0.277832,0.837891,-2.625,-0.3125,1.3125,0.314971,-0.0810665,-2.53198
2356,5,-2,-35,-9,-1,1,23,-1,0.0786133,0.262207,0.862305,-0.0625,-0.75,0.875,0.314814,-0.0811446,-2.53198
2356,-1,3,-11,6,-1,-2,-6,0,0.0786133,0.262207,0.862305,-0.0625,-0.75,0.875,0.314814,-0.0811446,-2.53198
2356,-4,-8,-15,-6,-3,1,0,3,0.0786133,0.262207,0.862305,-0.0625,-0.75,0.875,0.314814,-0.0811446,-2.53198
2356,2,9,34,1,-4,0,6,-1,0.0786133,0.262207,0.862305,-0.0625,-0.75,0.875,0.314814,-0.0811446,-2.53198
2370,-7,-10,-13,0,-2,-1,-10,-3,0.081543,0.279785,0.859863,3.5,-0.625,-0.625,0.31601,-0.0814959,-2.53219
2370,4,-4,-9,-4,-1,-1,2,0,0.081543,0.279785,0.859863,3.5,-0.625,-0.625,0.31601,-0.0814959,-2.53219
2378,1,-2,30,1,-4,-1,2,5,0.081543,0.279785,0.859863,3.5,-0.625,-0.625,0.31601,-0.0814959,-2.53219
2378,-1,-2,-62,-6,-1,-2,-8,0,0.081543,0.279785,0.859863,3.5,-0.625,-0.625,0.31601,-0.0814959,-2.53219
2393,1,0,23,2,1,0,-8,-3,0.0673828,0.29248,0.866699,2.4375,-0.75,-0.5625,0.317192,-0.0814451,-2.53242
2393,0,1,-30,-2,1,2,-3,7,0.0673828,0.29248,0.866699,2.4375,-0.75,-0.5625,0.317192,-0.0814451,-2.53242
2394,-3,-2,29,8,0,-2,-4,-4,0.0673828,0.29248,0.866699,2.4375,-0.75,-0.5625,0.317192,-0.0814451,-2.53242
2394,-1,6,5,-4,-2,-1,-3,-4,0.0673828,0.29248,0.866699,2.4375,-0.75,-0.5625,0.317192,-0.0814451,-2.53242
2416,-3,-4,-12,-3,-2,-2,1,2,0.065918,0.290527,0.861328,-0.9375,-0.75,-0.875,0.317191,-0.0814251,-2.53252
2416,-3,-6,8,1,-1,0,3,0,0.065918,0.290527,0.861328,-0.9375,-0.75,-0.875,0.317191,-0.0814251,-2.53252
2416,0,-2,-2,0,-1,0,-1,-3,0.065918,0.290527,0.861328,-0.9375,-0.75,-0.875,0.317191,-0.0814251,-2.53252
2416,2,-4,-10,-2,-1,-2,0,-1,0.065918,0.290527,0.861328,-0.9375,-0.75,-0.875,0.317191,-0.0814251,-2.53252
2430,-2,3,27,2,-3,-4,-3,0,0.0664062,0.279297,0.853516,-2.5,-1.5625,-0.125,0.316319,-0.0817565,-2.53276
2430,1,2,-14,-1,1,1,-2,1,0.0664062,0.279297,0.853516,-2.5,-1.5625,-0.125,0.316319,-0.0817565,-2.53276
2438,0,3,-5,-7,-2,0,1,0,0.0664062,0.279297,0.853516,-2.5,-1.5625,-0.125,0.316319,-0.0817565,-2.53276
2438,-1,-4,-8,1,-2,0,-2,3,0.0664062,0.279297,0.853516,-2.5,-1.5625,-0.125,0.316319,-0.0817565,-2.53276
2453,0,0,7,1,0,-1,2,-1,0.0610352,0.28418,0.86377,1.25,-1.5625,0,0.316786,-0.0818855,-2.53284
2453,5,12,14,11,3,-4,-23,0,0.0610352,0.28418,0.86377,1.25,-1.5625,0,0.316786,-0.0818855,-2.53284
2453,-4,-10,-14,-15,-5,5,23,0,0.0610352,0.28418,0.86377,1.25,-1.5625,0,0.316786,-0.0818855,-2.53284
2453,2,-6,-9,-8,-4,0,2,1,0.0610352,0.28418,0.86377,1.25,-1.5625,0,0.316786,-0.0818855,-2.53284
2476,-5,1,54,2,0,1,-1,-1,0.0678711,0.295898,0.868164,2.1875,-1.75,-0.5625,0.317844,-0.0822933,-2.53325
2476,2,-3,2,2,2,-1,2,-1,0.0678711,0.295898,0.868164,2.1875,-1.75,-0.5625,0.317844,-0.0822933,-2.53325
2477,3,-1,-14,3,-1,-5,-8,-1,0.0678711,0.295898,0.868164,2.1875,-1.75,-0.5625,0.317844,-0.0822933,-2.53325
2477,1,-1,5,-2,-1,0,1,24,0.0678711,0.295898,0.868164,2.1875,-1.75,-0.5625,0.317844,-0.0822933,-2.53325
2490,1,-1,-15,0,-1,0,-18,-7,0.0708008,0.291504,0.87207,-1.5625,-1.5,-0.4375,0.31751,-0.0825237,-2.53354
2490,6,2,10,1,0,2,10,3,0.0708008,0.291504,0.87207,-1.5625,-1.5,-0.4375,0.31751,-0.0825237,-2.53354
2497,-4,2,19,0,-2,-3,-6,-3,0.0708008,0.291504,0.87207,-1.5625,-1.5,-0.4375,0.31751,-0.0825237,-2.53354
2497,-2,-3,-45,-1,2,1,5,0,0.0708008,0.291504,0.87207,-1.5625,-1.5,-0.4375,0.31751,-0.0825237,-2.53354
2513,0,6,29,-2,-2,-3,-6,1,0.0898438,0.277832,0.862793,-2.5625,-0.75,-1.1875,0.316442,-0.0830089,-2.53399
2513,-3,5,2,2,2,1,3,-1,0.0898438,0.277832,0.862793,-2.5625,-0.75,-1.1875,0.316442,-0.0830089,-2.53399
2514,-6,-14,-55,-3,-1,1,-3,0,0.0898438,0.277832,0.862793,-2.5625,-0.75,-1.1875,0.316442,-0.0830089,-2.53399
2514,-1,3,19,1,-1,-4,-14,-10,0.0898438,0.277832,0.862793,-2.5625,-0.75,-1.1875,0.316442,-0.0830089,-2.53399
2537,-2,-3,-12,2,1,0,18,1,0.0917969,0.27832,0.856934,-0.5625,-0.375,-0.25,0.316528,-0.0831609,-2.53403
2537,-10,-4,6,-5,-4,-3,2,-5,0.0917969,0.27832,0.856934,-0.5625,-0.375,-0.25,0.316528,-0.0831609,-2.53403
2537,5,3,7,3,-1,-1,-1,0,0.0917969,0.27832,0.856934,-0.5625,-0.375,-0.25,0.316528,-0.0831609,-2.53403
2537,-4,-4,1,-4,0,0,0,-7,0.0917969,0.27832,0.856934,-0.5625,-0.375,-0.25,0.316528,-0.0831609,-2.53403
2559,2,0,-12,-4,0,0,-2,-1,0.0717773,0.267578,0.863281,-1.3125,0,-0.5,0.315659,-0.0829967,-2.53409
2559,-4,-4,-8,-3,-3,-4,2,2,0.0717773,0.267578,0.863281,-1.3125,0,-0.5,0.315659,-0.0829967,-2.53409
2559,2,5,23,3,1,-3,-3,13,0.0717773,0.267578,0.863281,-1.3125,0,-0.5,0.315659,-0.0829967,-2.53409
2559,-6,-5,-17,-3,-3,-11,-8,-45,0.0717773,0.267578,0.863281,-1.3125,0,-0.5,0.315659,-0.0829967,-2.53409
2581,1,1,1,0,0,15,-6,10,0.0776367,0.273438,0.85498,0.0625,0.3125,-1.375,0.315588,-0.0827643,-2.53453
2581,-2,-5,-5,-1,-1,-1,-5,0,0.0776367,0.273438,0.85498,0.0625,0.3125,-1.375,0.315588,-0.0827643,-2.53453
2581,1,1,-2,-2,0,-2,-8,-1,0.0776367,0.273438,0.85498,0.0625,0.3125,-1.375,0.315588,-0.0827643,-2.53453
2581,-4,3,28,8,0,-1,-1,7,0.0776367,0.273438,0.85498,0.0625,0.3125,-1.375,0.315588,-0.0827643,-2.53453
2596,-6,-1,-6,-2,-2,-4,2,-4,0.0878906,0.279785,0.861328,3.1875,1.375,-1.3125,0.316738,-0.0824441,-2.53481
2596,-4,-4,-3,2,0,-1,1,-7,0.0878906,0.279785,0.861328,3.1875,1.375,-1.3125,0.316738,-0.0824441,-2.53481
2597,-3,-5,-3,-7,-1,-1,-3,-1,0.0878906,0.279785,0.861328,3.1875,1.375,-1.3125,0.316738,-0.0824441,-2.53481
2597,6,-1,-5,-4,0,-2,-8,3,0.0878906,0.279785,0.861328,3.1875,1.375,-1.3125,0.316738,-0.0824441,-2.53481
2619,14,-1,-8,2,1,-3,2,-5,0.0800781,0.295898,0.862305,3.5,2.8125,0.3125,0.318258,-0.081705,-2.53437
2619,-12,-2,4,0,2,1,1,7,0.0800781,0.295898,0.862305,3.5,2.8125,0.3125,0.318258,-0.081705,-2.53437
2619,2,6,41,4,-2,-4,1,-6,0.0800781,0.295898,0.862305,3.5,2.8125,0.3125,0.318258,-0.081705,-2.53437
2619,0,-11,-72,-4,0,4,-2,3,0.0800781,0.295898,0.862305,3.5,2.8125,0.3125,0.318258,-0.081705,-2.53437
2633,3,-4,11,1,1,0,-2,1,0.0571289,0.291016,0.864746,0.1875,3,0.5,0.318409,-0.0804056,-2.53396
2633,7,4,17,6,0,-1,-2,4,0.0571289,0.291016,0.864746,0.1875,3,0.5,0.318409,-0.0804056,-2.53396
2634,0,7,13,5,0,-6,23,-33,0.0571289,0.291016,0.864746,0.1875,3,0.5,0.318409,-0.0804056,-2.53396
2634,-5,-5,11,-3,-7,-22,-15,-12,0.0571289,0.291016,0.864746,0.1875,3,0.5,0.318409,-0.0804056,-2.53396
2656,-2,1,-3,-2,5,34,18,8,0.0610352,0.304688,0.850098,1.25,0.5,0.1875,0.319336,-0.0799378,-2.53389
2656,1,-5,-24,-3,0,1,9,-1,0.0610352,0.304688,0.850098,1.25,0.5,0.1875,0.319336,-0.0799378,-2.53389
2656,-1,14,67,10,2,8,-3,7,0.0610352,0.304688,0.850098,1.25,0.5,0.1875,0.319336,-0.0799378,-2.53389
2656,5,-3,-48,-10,-5,-9,-18,3,0.0610352,0.304688,0.850098,1.25,0.5,0.1875,0.319336,-0.0799378,-2.53389
2678,-7,-11,-30,1,-5,-16,7,-7,0.0834961,0.308105,0.863281,-2.125,1.875,0.125,0.319202,-0.0795589,-2.53361
2678,2,0,0,-5,-3,1,4,2,0.0834961,0.308105,0.863281,-2.125,1.875,0.125,0.319202,-0.0795589,-2.53361
2679,-4,-3,-18,-3,-3,-6,-19,-1,0.0834961,0.308105,0.863281,-2.125,1.875,0.125,0.319202,-0.0795589,-2.53361
2679,4,6,27,-3,1,6,5,4,0.0834961,0.308105,0.863281,-2.125,1.875,0.125,0.319202,-0.0795589,-2.53361
2693,-4,5,22,9,0,-6,-13,1,0.0703125,0.288086,0.857422,-2.9375,1.6875,-0.3125,0.318197,-0.0789955,-2.53348
2693,-1,0,1,-2,2,0,2,-1,0.0703125,0.288086,0.857422,-2.9375,1.6875,-0.3125,0.318197,-0.0789955,-2.53348
2693,2,-3,-37,-5,-2,-3,-12,3,0.0703125,0.288086,0.857422,-2.9375,1.6875,-0.3125,0.318197,-0.0789955,-2.53348
2693,-6,-1,28,4,1,9,24,0,0.0703125,0.288086,0.857422,-2.9375,1.6875,-0.3125,0.318197,-0.0789955,-2.53348
2716,-7,-4,-12,-5,-5,-10,-3,-6,0.0546875,0.286621,0.848633,-5.1875,0.9375,0,0.316602,-0.0782464,-2.53335
2716,13,3,17,-2,-3,-8,-3,-1,0.0546875,0.286621,0.848633,-5.1875,0.9375,0,0.316602,-0.0782464,-2.53335
2717,-23,-10,-25,-7,0,-1,-5,-6,0.0546875,0.286621,0.848633,-5.1875,0.9375,0,0.316602,-0.0782464,-2.53335
2717,-5,-4,-6,6,0,0,-8,5,0.0546875,0.286621,0.848633,-5.1875,0.9375,0,0.316602,-0.0782464,-2.53335
2738,-2,3,25,-1,-1,6,-1,-3,0.0644531,0.270996,0.853516,-5.8125,0.25,-0.0625,0.314447,-0.0780756,-2.53335
2738,6,0,-8,0,-4,-13,2,-3,0.0644531,0.270996,0.853516,-5.8125,0.25,-0.0625,0.314447,-0.0780756,-2.53335
2739,-2,-7,-31,-8,-4,-3,-29,2,0.0644531,0.270996,0.853516,-5.8125,0.25,-0.0625,0.314447,-0.0780756,-2.53335
2739,4,9,26,5,3,9,6,5,0.0644531,0.270996,0.853516,-5.8125,0.25,-0.0625,0.314447,-0.0780756,-2.53335
2753,-2,-6,-25,-5,-4,-9,-5,-1,0.0761719,0.269531,0.867188,-0.8125,1.6875,-0.125,0.313967,-0.0775644,-2.5332
2753,-5,-2,27,1,-2,6,-2,0,0.0761719,0.269531,0.867188,-0.8125,1.6875,-0.125,0.313967,-0.0775644,-2.5332
2753,3,-9,-72,-7,-4,-2,9,3,0.0761719,0.269531,0.867188,-0.8125,1.6875,-0.125,0.313967,-0.0775644,-2.5332
2753,-5,-2,17,4,0,-4,3,1,0.0761719,0.269531,0.867188,-0.8125,1.6875,-0.125,0.313967,-0.0775644,-2.5332
2776,6,5,7,-2,0,-6,6,-1,0.0639648,0.282715,0.85791,-2.375,3.4375,-0.125,0.31318,-0.07633,-2.53289
2776,-10,1,0,-1,-1,2,-25,-5,0.0639648,0.282715,0.85791,-2.375,3.4375,-0.125,0.31318,-0.07633,-2.53289
2776,7,7,40,3,0,0,18,2,0.0639648,0.282715,0.85791,-2.375,3.4375,-0.125,0.31318,-0.07633,-2.53289
2776,-8,2,49,4,3,7,7,-2,0.0639648,0.282715,0.85791,-2.375,3.4375,-0.125,0.31318,-0.07633,-2.53289
2799,-1,-13,-44,-14,-5,-5,-3,1,0.0527344,0.275879,0.859863,-4.75,2.5625,-0.875,0.311506,-0.0750256,-2.53285
2799,-7,-9,-22,-6,0,-4,-3,-2,0.0527344,0.275879,0.859863,-4.75,2.5625,-0.875,0.311506,-0.0750256,-2.53285
2799,7,-1,-1,0,0,3,4,1,0.0527344,0.275879,0.859863,-4.75,2.5625,-0.875,0.311506,-0.0750256,-2.53285
2799,-3,-1,15,-5,-4,-3,30,-14,0.0527344,0.275879,0.859863,-4.75,2.5625,-0.875,0.311506,-0.0750256,-2.53285
2812,3,5,13,0,-6,-28,0,-14,0.0688477,0.275391,0.865723,-3.875,1.1875,-0.4375,0.310086,-0.0745802,-2.5328
2812,-3,-1,-13,-2,-5,1,-15,5,0.0688477,0.275391,0.865723,-3.875,1.1875,-0.4375,0.310086,-0.0745802,-2.5328
2813,2,-1,6,4,6,44,9,3,0.0688477,0.275391,0.865723,-3.875,1.1875,-0.4375,0.310086,-0.0745802,-2.5328
2813,-1,0,-8,-2,0,5,6,6,0.0688477,0.275391,0.865723,-3.875,1.1875,-0.4375,0.310086,-0.0745802,-2.5328
2836,15,10,9,6,3,2,-5,6,0.0766602,0.294434,0.867676,-4.4375,2.5,-0.5625,0.309015,-0.0738439,-2.53284
2836,-6,0,-9,-5,-12,-58,13,-11,0.0766602,0.294434,0.867676,-4.4375,2.5,-0.5625,0.309015,-0.0738439,-2.53284
2837,-39,-16,-3,-3,-6,-51,2,-26,0.0766602,0.294434,0.867676,-4.4375,2.5,-0.5625,0.309015,-0.0738439,-2.53284
2837,17,-2,-11,4,19,98,11,17,0.0766602,0.294434,0.867676,-4.4375,2.5,-0.5625,0.309015,-0.0738439,-2.53284
2859,-3,2,14,-2,-1,3,-8,2,0.0717773,0.298828,0.899902,-7.6875,5,-2.0625,0.306581,-0.0720118,-2.53292
2859,8,1,-2,1,4,18,3,1,0.0717773,0.298828,0.899902,-7.6875,5,-2.0625,0.306581,-0.0720118,-2.53292
2860,6,-5,-53,-7,-6,-46,7,12,0.0717773,0.298828,0.899902,-7.6875,5,-2.0625,0.306581,-0.0720118,-2.53292
2860,-5,7,-7,-4,-9,-49,-9,-10,0.0717773,0.298828,0.899902,-7.6875,5,-2.0625,0.306581,-0.0720118,-2.53292
2881,-2,1,12,2,1,-32,-22,-8,0.0717773,0.306641,0.92627,-8,11.125,0.875,0.304151,-0.0686328,-2.53147
2881,4,6,14,3,13,98,36,19,0.0717773,0.306641,0.92627,-8,11.125,0.875,0.304151,-0.0686328,-2.53147
2881,-19,-13,4,-9,-16,-51,-63,-21,0.0717773,0.306641,0.92627,-8,11.125,0.875,0.304151,-0.0686328,-2.53147
2881,9,19,-11,-4,-9,-33,12,11,0.0717773,0.306641,0.92627,-8,11.125,0.875,0.304151,-0.0686328,-2.53147
2903,-6,-12,2,6,13,75,-32,-10,0.101562,0.299316,0.925781,-6.1875,16.375,-0.9375,0.302124,-0.0639473,-2.53006
2903,-19,-8,3,2,-2,-6,13,-2,0.101562,0.299316,0.925781,-6.1875,16.375,-0.9375,0.302124,-0.0639473,-2.53006
2904,30,2,2,-4,-4,-14,-12,6,0.101562,0.299316,0.925781,-6.1875,16.375,-0.9375,0.302124,-0.0639473,-2.53006
2904,-3,-14,6,-8,-4,-8,-31,-15,0.101562,0.299316,0.925781,-6.1875,16.375,-0.9375,0.302124,-0.0639473,-2.53006
2926,-11,1,-4,-1,-11,-14,-19,-11,0.0947266,0.216797,0.953613,-7.125,24.125,-2.125,0.297814,-0.0566585,-2.52818
2926,3,6,13,2,-7,-48,-59,-22,0.0947266,0.216797,0.953613,-7.125,24.125,-2.125,0.297814,-0.0566585,-2.52818
2927,29,6,-25,2,5,-7,42,21,0.0947266,0.216797,0.953613,-7.125,24.125,-2.125,0.297814,-0.0566585,-2.52818
2927,-14,-20,-6,-5,-7,-9,49,25,0.0947266,0.216797,0.953613,-7.125,24.125,-2.125,0.297814,-0.0566585,-2.52818
2932,6,-3,-16,-13,-8,-8,57,8,-0.0209961,0.341309,0.887695,-3.25,20.75,-1.1875,0.298122,-0.0479552,-2.52659
2932,-9,-5,-7,-3,-4,-4,-88,-32,-0.0209961,0.341309,0.887695,-3.25,20.75,-1.1875,0.298122,-0.0479552,-2.52659
2933,-25,5,23,4,-10,-65,-33,13,-0.0209961,0.341309,0.887695,-3.25,20.75,-1.1875,0.298122,-0.0479552,-2.52659
2933,-3,6,-3,1,14,61,-26,12,-0.0209961,0.341309,0.887695,-3.25,20.75,-1.1875,0.298122,-0.0479552,-2.52659
2956,2,-12,6,6,-3,-70,96,-22,-0.0683594,0.293945,0.744629,-23.0625,9.0625,5.6875,0.291559,-0.0430602,-2.52369
2956,64,5,0,2,14,16,14,16,-0.0683594,0.293945,0.744629,-23.0625,9.0625,5.6875,0.291559,-0.0430602,-2.52369
2957,-16,10,16,6,25,127,91,15,-0.0683594,0.293945,0.744629,-23.0625,9.0625,5.6875,0.291559,-0.0430602,-2.52369
2957,-8,1,0,7,-5,-43,-14,9,-0.0683594,0.293945,0.744629,-23.0625,9.0625,5.6875,0.291559,-0.0430602,-2.52369
2978,-10,-4,-3,-8,-14,-47,-28,17,-0.0126953,0.168945,0.809082,-31.5625,3.4375,7.125,0.279037,-0.0415001,-2.52098
2978,-3,-5,1,4,5,-12,80,-32,-0.0126953,0.168945,0.809082,-31.5625,3.4375,7.125,0.279037,-0.0415001,-2.52098
2980,13,-6,16,11,3,-33,25,-48,-0.0126953,0.168945,0.809082,-31.5625,3.4375,7.125,0.279037,-0.0415001,-2.52098
2980,-52,-20,-13,-5,18,104,65,-7,-0.0126953,0.168945,0.809082,-31.5625,3.4375,7.125,0.279037,-0.0415001,-2.52098
2993,13,0,0,5,4,-26,60,58,0.125488,0.184082,0.915039,-17,4.375,-2.8125,0.271403,-0.0418134,-2.5214
2993,-38,-4,-6,-1,3,32,73,3,0.125488,0.184082,0.915039,-17,4.375,-2.8125,0.271403,-0.0418134,-2.5214
2993,24,14,-7,-9,-20,-65,-121,-12,0.125488,0.184082,0.915039,-17,4.375,-2.8125,0.271403,-0.0418134,-2.5214
2993,5,4,15,4,-14,-80,-24,-79,0.125488,0.184082,0.915039,-17,4.375,-2.8125,0.271403,-0.0418134,-2.5214
3016,26,10,7,8,19,79,19,4,0.185059,0.346191,0.892578,-17.0625,8.75,-9.875,0.267958,-0.0414895,-2.52408
3016,1,1,-8,1,3,12,-19,-10,0.185059,0.346191,0.892578,-17.0625,8.75,-9.875,0.267958,-0.0414895,-2.52408
3016,-56,-13,9,-2,19,100,9,53,0.185059,0.346191,0.892578,-17.0625,8.75,-9.875,0.267958,-0.0414895,-2.52408
3016,-9,5,-7,-6,-24,-128,-37,-48,0.185059,0.346191,0.892578,-17.0625,8.75,-9.875,0.267958,-0.0414895,-2.52408
3038,-8,-2,-6,-7,-13,-96,-9,13,0.0776367,0.291992,0.774902,-40.3125,8.25,-1.75,0.256122,-0.0396394,-2.52395
3038,28,-11,-8,-3,-14,-114,-125,-23,0.0776367,0.291992,0.774902,-40.3125,8.25,-1.75,0.256122,-0.0396394,-2.52395
3040,2,17,17,10,19,115,-19,-19,0.0776367,0.291992,0.774902,-40.3125,8.25,-1.75,0.256122,-0.0396394,-2.52395
3040,16,-11,-3,-1,-9,-61,-90,48,0.0776367,0.291992,0.774902,-40.3125,8.25,-1.75,0.256122,-0.0396394,-2.52395
3052,-18,-8,-8,2,4,6,-25,43,-0.00878906,0.162109,0.810547,-42.0625,1.1875,0.0625,0.240534,-0.0382746,-2.52373
3052,-11,2,0,0,14,94,-44,-4,-0.00878906,0.162109,0.810547,-42.0625,1.1875,0.0625,0.240534,-0.0382746,-2.52373
3061,24,-9,-17,-6,-16,-101,64,-45,-0.00878906,0.162109,0.810547,-42.0625,1.1875,0.0625,0.240534,-0.0382746,-2.52373
3061,-37,-3,1,-4,9,73,-8,-10,-0.00878906,0.162109,0.810547,-42.0625,1.1875,0.0625,0.240534,-0.0382746,-2.52373
3077,19,7,4,-6,-22,-59,-92,-77,0.0234375,0.178223,0.90918,-25.1875,-0.9375,-6.6875,0.230968,-0.0377582,-2.52602
3077,-38,-5,-1,4,1,-18,62,65,0.0234375,0.178223,0.90918,-25.1875,-0.9375,-6.6875,0.230968,-0.0377582,-2.52602
3079,-6,1,17,11,28,51,45,-2,0.0234375,0.178223,0.90918,-25.1875,-0.9375,-6.6875,0.230968,-0.0377582,-2.52602
3079,32,17,-7,-8,-21,-74,38,53,0.0234375,0.178223,0.90918,-25.1875,-0.9375,-6.6875,0.230968,-0.0377582,-2.52602
3099,15,-10,-9,2,13,79,56,69,0.0708008,0.200684,0.902344,-22.0625,-2.8125,-10.6875,0.223381,-0.0387372,-2.52995
3099,-16,-4,-6,-1,7,10,-18,-9,0.0708008,0.200684,0.902344,-22.0625,-2.8125,-10.6875,0.223381,-0.0387372,-2.52995
3100,3,-2,-2,-4,-14,-80,-59,-17,0.0708008,0.200684,0.902344,-22.0625,-2.8125,-10.6875,0.223381,-0.0387372,-2.52995
3100,13,-13,6,5,6,31,-11,11,0.0708008,0.200684,0.902344,-22.0625,-2.8125,-10.6875,0.223381,-0.0387372,-2.52995
3113,-31,9,-2,-2,39,79,51,-65,0.102539,0.237793,0.904297,-20.9375,-1.125,-8.1875,0.217013,-0.0399833,-2.53284
3113,17,22,1,-10,-32,-128,-46,-55,0.102539,0.237793,0.904297,-20.9375,-1.125,-8.1875,0.217013,-0.0399833,-2.53284
3114,40,-9,-11,-9,-12,-16,21,24,0.102539,0.237793,0.904297,-20.9375,-1.125,-8.1875,0.217013,-0.0399833,-2.53284
3114,5,-4,1,3,3,-51,-56,-30,0.102539,0.237793,0.904297,-20.9375,-1.125,-8.1875,0.217013,-0.0399833,-2.53284
3135,-23,-9,-6,-7,-20,-51,-27,-41,0.0478516,0.242188,0.929199,-24.5,3.625,-15.3125,0.209732,-0.0379095,-2.53772
3135,65,10,5,5,20,69,60,68,0.0478516,0.242188,0.929199,-24.5,3.625,-15.3125,0.209732,-0.0379095,-2.53772
3136,-14,8,8,2,-1,-34,-34,-57,0.0478516,0.242188,0.929199,-24.5,3.625,-15.3125,0.209732,-0.0379095,-2.53772
3136,-19,-8,-11,-10,-25,-77,9,-82,0.0478516,0.242188,0.929199,-24.5,3.625,-15.3125,0.209732,-0.0379095,-2.53772
3157,8,9,-4,-4,-13,-56,-30,38,-0.0561523,0.129883,0.911621,-26.875,3.5,-12.6875,0.199284,-0.0336891,-2.54189
3157,73,23,4,3,7,33,13,37,-0.0561523,0.129883,0.911621,-26.875,3.5,-12.6875,0.199284,-0.0336891,-2.54189
3159,-11,5,5,3,7,14,-2,-3,-0.0561523,0.129883,0.911621,-26.875,3.5,-12.6875,0.199284,-0.0336891,-2.54189
3159,42,3,8,1,-6,-34,-29,59,-0.0561523,0.129883,0.911621,-26.875,3.5,-12.6875,0.199284,-0.0336891,-2.54189
3181,-92,-28,-9,-5,-9,38,-68,-75,-0.0961914,0.106934,0.950684,-15.6875,5.125,-11.4375,0.19207,-0.0281509,-2.54533
3181,17,0,-3,1,26,69,50,-75,-0.0961914,0.106934,0.950684,-15.6875,5.125,-11.4375,0.19207,-0.0281509,-2.54533
3182,-25,-21,-5,-13,-28,-44,-3,51,-0.0961914,0.106934,0.950684,-15.6875,5.125,-11.4375,0.19207,-0.0281509,-2.54533
3182,23,21,11,9,5,-36,21,-110,-0.0961914,0.106934,0.950684,-15.6875,5.125,-11.4375,0.19207,-0.0281509,-2.54533
3196,38,-4,2,-4,-12,-55,-27,83,-0.102539,0.120117,0.884766,-9,4,-7.5,0.187747,-0.0232596,-2.5476
3196,-53,-18,-10,-13,-22,-101,9,40,-0.102539,0.120117,0.884766,-9,4,-7.5,0.187747,-0.0232596,-2.5476
3197,-17,-5,2,2,-6,-35,-15,-50,-0.102539,0.120117,0.884766,-9,4,-7.5,0.187747,-0.0232596,-2.5476
3197,-33,-8,2,4,34,75,93,-18,-0.102539,0.120117,0.884766,-9,4,-7.5,0.187747,-0.0232596,-2.5476
3218,50,22,-3,-4,-18,-66,7,-19,-0.0678711,0.15332,0.858398,-4.8125,0.5625,-0.25,0.1859,-0.0208924,-2.54764
3218,-6,-8,9,13,25,92,100,59,-0.0678711,0.15332,0.858398,-4.8125,0.5625,-0.25,0.1859,-0.0208924,-2.54764
3219,11,-6,-7,-6,-2,14,-8,-39,-0.0678711,0.15332,0.858398,-4.8125,0.5625,-0.25,0.1859,-0.0208924,-2.54764
3219,-24,-19,-21,-15,-42,-86,-111,53,-0.0678711,0.15332,0.858398,-4.8125,0.5625,-0.25,0.1859,-0.0208924,-2.54764
3232,9,11,13,15,43,124,18,-56,-0.000488281,0.172852,0.875488,-6.375,-4.0625,0.5,0.183955,-0.0218301,-2.54772
3232,-44,-28,-28,-28,-33,-76,-39,40,-0.000488281,0.172852,0.875488,-6.375,-4.0625,0.5,0.183955,-0.0218301,-2.54772
3240,27,17,8,7,9,-8,-8,-56,-0.000488281,0.172852,0.875488,-6.375,-4.0625,0.5,0.183955,-0.0218301,-2.54772
3240,-7,-15,-8,-5,12,127,35,61,-0.000488281,0.172852,0.875488,-6.375,-4.0625,0.5,0.183955,-0.0218301,-2.54772
3255,7,2,3,1,-4,6,-11,-57,0.0717773,0.137695,0.876465,-9.375,-7,3.6875,0.18008,-0.0257136,-2.54688
3255,-34,-9,-4,-9,-40,-128,-63,-30,0.0717773,0.137695,0.876465,-9.375,-7,3.6875,0.18008,-0.0257136,-2.54688
3257,10,4,-9,-2,10,-54,-15,70,0.0717773,0.137695,0.876465,-9.375,-7,3.6875,0.18008,-0.0257136,-2.54688
3257,41,30,2,9,34,5,-10,-14,0.0717773,0.137695,0.876465,-9.375,-7,3.6875,0.18008,-0.0257136,-2.54688
3278,27,-15,0,-12,-30,-120,-97,-19,0.0830078,0.104004,0.885742,-2.1875,-5.1875,3.1875,0.178028,-0.0291302,-2.5461
3278,-30,-6,3,8,20,69,28,-38,0.0830078,0.104004,0.885742,-2.1875,-5.1875,3.1875,0.178028,-0.0291302,-2.5461
3279,-27,-2,-9,-14,-29,-83,40,-36,0.0830078,0.104004,0.885742,-2.1875,-5.1875,3.1875,0.178028,-0.0291302,-2.5461
3279,29,-9,-4,-2,-16,16,41,70,0.0830078,0.104004,0.885742,-2.1875,-5.1875,3.1875,0.178028,-0.0291302,-2.5461
3291,-5,-5,3,7,22,94,51,-46,0.0634766,0.130371,0.919434,2.0625,-3.625,4.5625,0.177867,-0.0313969,-2.54465
3291,-15,0,4,1,-11,-43,-19,-18,0.0634766,0.130371,0.919434,2.0625,-3.625,4.5625,0.177867,-0.0313969,-2.54465
3300,29,1,-2,-3,-18,76,41,69,0.0634766,0.130371,0.919434,2.0625,-3.625,4.5625,0.177867,-0.0313969,-2.54465
3300,13,25,18,14,36,75,18,-54,0.0634766,0.130371,0.919434,2.0625,-3.625,4.5625,0.177867,-0.0313969,-2.54465
3316,-28,-5,-6,-5,-15,-63,-37,57,0.0478516,0.116699,0.91748,5.0625,-2.125,4.75,0.178453,-0.0328796,-2.54307
3316,-32,-19,-8,0,3,-31,-28,-14,0.0478516,0.116699,0.91748,5.0625,-2.125,4.75,0.178453,-0.0328796,-2.54307
3317,7,7,2,2,8,32,-17,24,0.0478516,0.116699,0.91748,5.0625,-2.125,4.75,0.178453,-0.0328796,-2.54307
3317,-11,-13,-15,-14,-28,-107,-79,-59,0.0478516,0.116699,0.91748,5.0625,-2.125,4.75,0.178453,-0.0328796,-2.54307
3346,12,3,-10,-4,7,47,37,-27,0.0693359,0.143555,0.921387,10.3125,0.875,4.0625,0.181395,-0.033806,-2.54158
3346,54,22,18,9,0,29,-36,-99,0.0693359,0.143555,0.921387,10.3125,0.875,4.0625,0.181395,-0.033806,-2.54158
3347,9,3,-3,2,7,-14,-2,-16,0.0693359,0.143555,0.921387,10.3125,0.875,4.0625,0.181395,-0.033806,-2.54158
3347,-14,-12,1,-4,-8,-18,-20,40,0.0693359,0.143555,0.921387,10.3125,0.875,4.0625,0.181395,-0.033806,-2.54158
3361,-38,1,-2,-2,-12,-49,14,38,0.0180664,0.185059,0.895996,13.875,3,3.6875,0.186501,-0.0327123,-2.54014
3361,40,22,13,10,20,55,70,71,0.0180664,0.185059,0.895996,13.875,3,3.6875,0.186501,-0.0327123,-2.54014
3362,-1,-18,-6,1,3,-52,-35,-54,0.0180664,0.185059,0.895996,13.875,3,3.6875,0.186501,-0.0327123,-2.54014
3362,-23,-1,-2,-9,-6,4,22,8,0.0180664,0.185059,0.895996,13.875,3,3.6875,0.186501,-0.0327123,-2.54014
3391,-45,-20,-16,-16,-44,-110,-72,-15,-0.0117188,0.223145,0.895996,9.75,2.4375,4.1875,0.191127,-0.0310971,-2.53861
3391,-19,-1,-4,-2,10,20,-25,78,-0.0117188,0.223145,0.895996,9.75,2.4375,4.1875,0.191127,-0.0310971,-2.53861
3391,-22,-1,-2,-1,20,122,21,-7,-0.0117188,0.223145,0.895996,9.75,2.4375,4.1875,0.191127,-0.0310971,-2.53861
3391,18,-4,-9,-4,-12,-43,14,88,-0.0117188,0.223145,0.895996,9.75,2.4375,4.1875,0.191127,-0.0310971,-2.53861
3398,1,7,6,6,15,44,-17,-19,-0.000976562,0.185547,0.912598,4.1875,2.1875,3.1875,0.192705,-0.0297961,-2.53731
3398,-5,-13,-3,-4,-16,-69,-78,-70,-0.000976562,0.185547,0.912598,4.1875,2.1875,3.1875,0.192705,-0.0297961,-2.53731
3399,-6,8,10,13,27,68,38,-53,-0.000976562,0.185547,0.912598,4.1875,2.1875,3.1875,0.192705,-0.0297961,-2.53731
3399,34,-10,-5,-4,-12,-12,8,6,-0.000976562,0.185547,0.912598,4.1875,2.1875,3.1875,0.192705,-0.0297961,-2.53731
3412,-31,-2,8,9,31,77,6,-23,0.00732422,0.165039,0.90625,4.375,3.3125,3.5,0.193897,-0.0285159,-2.53588
3412,-17,4,-6,-8,-19,-53,-28,-47,0.00732422,0.165039,0.90625,4.375,3.3125,3.5,0.193897,-0.0285159,-2.53588
3420,-11,-11,0,1,-18,-97,-4,2,0.0249023,0.192383,0.875,5.75,2.625,3.6875,0.196307,-0.0278724,-2.5345
3420,-48,-8,-6,1,16,63,10,-87,0.0249023,0.192383,0.875,5.75,2.625,3.6875,0.196307,-0.0278724,-2.5345
3436,42,18,14,15,48,113,70,15,0.0249023,0.192383,0.875,5.75,2.625,3.6875,0.196307,-0.0278724,-2.5345
3436,-42,-24,-27,-32,-69,-40,-84,-95,0.0249023,0.192383,0.875,5.75,2.625,3.6875,0.196307,-0.0278724,-2.5345
3438,-12,8,-1,-7,-5,-45,-93,-4,0.00683594,0.19043,0.899414,4.8125,2.875,4.0625,0.198241,-0.0267261,-2.53285
3438,24,8,5,6,17,-7,0,-25,0.00683594,0.19043,0.899414,4.8125,2.875,4.0625,0.198241,-0.0267261,-2.53285
3458,11,-4,0,-7,0,-3,67,40,0.00683594,0.19043,0.899414,4.8125,2.875,4.0625,0.198241,-0.0267261,-2.53285
3458,-4,-7,-7,-6,-19,-63,-5,54,0.00683594,0.19043,0.899414,4.8125,2.875,4.0625,0.198241,-0.0267261,-2.53285
3460,20,16,1,1,-6,-37,-28,-1,-0.00439453,0.163574,0.90332,1.375,2.375,4.375,0.198268,-0.0254944,-2.53115
3460,-14,-18,-6,-7,-24,-51,-56,-48,-0.00439453,0.163574,0.90332,1.375,2.375,4.375,0.198268,-0.0254944,-2.53115
3472,18,14,4,8,16,58,61,7,-0.00439453,0.163574,0.90332,1.375,2.375,4.375,0.198268,-0.0254944,-2.53115
3472,-7,1,0,2,6,-55,4,-11,-0.00439453,0.163574,0.90332,1.375,2.375,4.375,0.198268,-0.0254944,-2.53115
3481,44,6,3,1,12,114,35,52,0.0512695,0.154785,0.897461,5.0625,2.5625,3.5625,0.199301,-0.0255814,-2.52976
3481,-22,13,16,14,11,27,-10,8,0.0512695,0.154785,0.897461,5.0625,2.5625,3.5625,0.199301,-0.0255814,-2.52976
3496,1,2,-11,-20,-67,-128,-127,-112,0.0512695,0.154785,0.897461,5.0625,2.5625,3.5625,0.199301,-0.0255814,-2.52976
3496,33,-14,-6,7,33,54,98,95,0.0512695,0.154785,0.897461,5.0625,2.5625,3.5625,0.199301,-0.0255814,-2.52976
3497,1,1,1,2,13,36,16,-9,0.050293,0.208008,0.887207,7.8125,3.125,1.0625,0.202662,-0.0251681,-2.52916
3497,-23,7,5,-2,-16,-73,-37,-80,0.050293,0.208008,0.887207,7.8125,3.125,1.0625,0.202662,-0.0251681,-2.52916
3518,-10,-7,-5,3,4,1,-62,4,0.050293,0.208008,0.887207,7.8125,3.125,1.0625,0.202662,-0.0251681,-2.52916
3518,-7,3,-4,0,6,8,-15,-8,0.050293,0.208008,0.887207,7.8125,3.125,1.0625,0.202662,-0.0251681,-2.52916
3519,-3,-14,-10,-10,-34,-105,13,14,0.0112305,0.167969,0.852051,2.125,0,0.625,0.203236,-0.0249824,-2.52898
3519,0,12,3,5,13,29,69,20,0.0112305,0.167969,0.852051,2.125,0,0.625,0.203236,-0.0249824,-2.52898
3532,-12,-1,-1,-1,-3,-57,39,11,0.0112305,0.167969,0.852051,2.125,0,0.625,0.203236,-0.0249824,-2.52898
3532,39,2,7,8,11,-19,-1,39,0.0112305,0.167969,0.852051,2.125,0,0.625,0.203236,-0.0249824,-2.52898
3541,9,4,-4,-2,-11,-64,8,-2,-0.0288086,0.180176,0.915039,7.75,0.5,1.6875,0.205732,-0.0236596,-2.52832
3541,16,9,4,2,7,16,-19,-30,-0.0288086,0.180176,0.915039,7.75,0.5,1.6875,0.205732,-0.0236596,-2.52832
3556,22,2,4,3,5,-2,-6,67,-0.0288086,0.180176,0.915039,7.75,0.5,1.6875,0.205732,-0.0236596,-2.52832
3556,-51,-19,-16,-15,-32,-50,-33,-29,-0.0288086,0.180176,0.915039,7.75,0.5,1.6875,0.205732,-0.0236596,-2.52832
3558,-11,10,14,19,71,76,76,32,0.0200195,0.238281,0.902832,5,0.1875,-1.5,0.208608,-0.023483,-2.52888
3558,19,12,8,6,-2,-86,-47,-46,0.0200195,0.238281,0.902832,5,0.1875,-1.5,0.208608,-0.023483,-2.52888
3578,2,-1,-2,4,14,26,27,31,0.0200195,0.238281,0.902832,5,0.1875,-1.5,0.208608,-0.023483,-2.52888
3578,-27,4,3,-3,-6,-18,23,-16,0.0200195,0.238281,0.902832,5,0.1875,-1.5,0.208608,-0.023483,-2.52888
3580,-13,-13,-7,-7,-11,43,-2,27,0.0180664,0.235352,0.890625,-1.3125,0.0625,1.375,0.209257,-0.0234781,-2.52843
3580,-5,-2,-3,0,-4,12,-2,42,0.0180664,0.235352,0.890625,-1.3125,0.0625,1.375,0.209257,-0.0234781,-2.52843
3601,-25,4,13,20,54,127,-5,-34,0.0180664,0.235352,0.890625,-1.3125,0.0625,1.375,0.209257,-0.0234781,-2.52843
3601,27,-3,9,10,28,71,8,-49,0.0180664,0.235352,0.890625,-1.3125,0.0625,1.375,0.209257,-0.0234781,-2.52843
3609,-49,-3,-5,-10,-19,-48,-34,-13,0.0288086,0.182129,0.893555,-5.875,-1,0.3125,0.207059,-0.0239511,-2.52834
3609,-14,-22,-8,-11,-18,-28,22,84,0.0288086,0.182129,0.893555,-5.875,-1,0.3125,0.207059,-0.0239511,-2.52834
3624,-10,16,3,-1,-11,39,18,-2,0.0288086,0.182129,0.893555,-5.875,-1,0.3125,0.207059,-0.0239511,-2.52834
3624,13,-7,-1,-3,-9,-70,-31,12,0.0288086,0.182129,0.893555,-5.875,-1,0.3125,0.207059,-0.0239511,-2.52834
3625,35,8,12,9,19,90,15,-4,0.0107422,0.168457,0.911133,-2.875,0.3125,-0.0625,0.205495,-0.023586,-2.52829
3625,16,3,4,4,6,60,25,-27,0.0107422,0.168457,0.911133,-2.875,0.3125,-0.0625,0.205495,-0.023586,-2.52829
3638,-27,-23,-18,-19,-46,-128,-61,49,0.0107422,0.168457,0.911133,-2.875,0.3125,-0.0625,0.205495,-0.023586,-2.52829
3638,6,16,6,6,28,-7,30,-39,0.0107422,0.168457,0.911133,-2.875,0.3125,-0.0625,0.205495,-0.023586,-2.52829
3640,-23,8,-11,-10,-14,-6,38,102,0.0180664,0.177734,0.904297,-1,1.25,0.375,0.205019,-0.0230794,-2.52801
3640,27,-10,-1,0,-11,-54,7,-39,0.0180664,0.177734,0.904297,-1,1.25,0.375,0.205019,-0.0230794,-2.52801
3669,-50,2,3,8,23,35,24,-60,0.0180664,0.177734,0.904297,-1,1.25,0.375,0.205019,-0.0230794,-2.52801
3669,14,16,12,10,3,-56,-31,-40,0.0180664,0.177734,0.904297,-1,1.25,0.375,0.205019,-0.0230794,-2.52801
3670,32,2,-8,-10,-14,-24,-7,-8,0.0161133,0.180664,0.882812,-2.0625,1.0625,2.0625,0.20423,-0.0227821,-2.52724
3670,-16,-9,-10,-4,4,7,18,43,0.0161133,0.180664,0.882812,-2.0625,1.0625,2.0625,0.20423,-0.0227821,-2.52724
3691,14,-2,1,-2,-13,-62,-28,-34,0.0161133,0.180664,0.882812,-2.0625,1.0625,2.0625,0.20423,-0.0227821,-2.52724
3691,-22,-2,-9,-7,-4,93,23,21,0.0161133,0.180664,0.882812,-2.0625,1.0625,2.0625,0.20423,-0.0227821,-2.52724
3692,32,0,12,7,21,59,34,-50,-0.0102539,0.154297,0.886719,-1.5625,-0.0625,1.125,0.20289,-0.0221327,-2.52689
3692,0,7,0,-2,8,55,32,40,-0.0102539,0.154297,0.886719,-1.5625,-0.0625,1.125,0.20289,-0.0221327,-2.52689
3698,45,-3,-5,-8,-19,-69,-52,-2,-0.0102539,0.154297,0.886719,-1.5625,-0.0625,1.125,0.20289,-0.0221327,-2.52689
3698,-4,3,0,-7,-10,2,35,64,-0.0102539,0.154297,0.886719,-1.5625,-0.0625,1.125,0.20289,-0.0221327,-2.52689
3700,10,-8,-3,-3,-10,-29,-46,7,0.0336914,0.160156,0.912598,1.9375,-0.3125,-0.5,0.203012,-0.0225414,-2.52704
3700,12,-10,2,0,19,71,42,57,0.0336914,0.160156,0.912598,1.9375,-0.3125,-0.5,0.203012,-0.0225414,-2.52704
3721,4,8,0,-12,-28,-101,-20,1,0.0336914,0.160156,0.912598,1.9375,-0.3125,-0.5,0.203012,-0.0225414,-2.52704
3721,-31,-20,-17,-5,-11,-36,-2,-9,0.0336914,0.160156,0.912598,1.9375,-0.3125,-0.5,0.203012,-0.0225414,-2.52704
3722,-29,6,2,7,19,40,25,-98,0.0249023,0.209473,0.896484,3.4375,-0.125,0.6875,0.204798,-0.0226242,-2.52677
3722,35,-2,-5,-1,-2,-49,-78,-25,0.0249023,0.209473,0.896484,3.4375,-0.125,0.6875,0.204798,-0.0226242,-2.52677
3735,-2,0,-5,-4,1,45,45,-18,0.0249023,0.209473,0.896484,3.4375,-0.125,0.6875,0.204798,-0.0226242,-2.52677
3735,10,14,4,1,1,30,-7,-25,0.0249023,0.209473,0.896484,3.4375,-0.125,0.6875,0.204798,-0.0226242,-2.52677
3742,-8,1,4,4,3,5,-18,13,-0.00488281,0.187012,0.900879,-0.8125,-0.0625,2.3125,0.204439,-0.0222057,-2.52602
3742,15,17,8,0,-8,-30,-34,-48,-0.00488281,0.187012,0.900879,-0.8125,-0.0625,2.3125,0.204439,-0.0222057,-2.52602
3758,-18,-9,5,0,12,70,53,62,-0.00488281,0.187012,0.900879,-0.8125,-0.0625,2.3125,0.204439,-0.0222057,-2.52602
3758,-15,-7,5,0,-4,7,-14,-33,-0.00488281,0.187012,0.900879,-0.8125,-0.0625,2.3125,0.204439,-0.0222057,-2.52602
3760,-7,-6,-5,-2,-8,-22,-14,-8,0.0244141,0.160645,0.881348,-0.0625,-0.4375,0.8125,0.204283,-0.0222845,-2.52602
3760,31,17,8,3,7,16,34,67,0.0244141,0.160645,0.881348,-0.0625,-0.4375,0.8125,0.204283,-0.0222845,-2.52602
3780,-4,-23,-3,3,-1,-23,-27,-69,0.0244141,0.160645,0.881348,-0.0625,-0.4375,0.8125,0.204283,-0.0222845,-2.52602
3780,25,-10,-9,-7,-15,-35,-12,23,0.0244141,0.160645,0.881348,-0.0625,-0.4375,0.8125,0.204283,-0.0222845,-2.52602
3783,-23,9,5,0,-9,-69,21,-60,0.0249023,0.179199,0.895508,4.5625,0.5625,0.875,0.205714,-0.0222576,-2.52572
3783,-31,-20,-13,-2,12,54,35,-21,0.0249023,0.179199,0.895508,4.5625,0.5625,0.875,0.205714,-0.0222576,-2.52572
3796,45,-1,1,0,0,24,31,47,0.0249023,0.179199,0.895508,4.5625,0.5625,0.875,0.205714,-0.0222576,-2.52572
3796,-3,-7,2,2,8,46,45,55,0.0249023,0.179199,0.895508,4.5625,0.5625,0.875,0.205714,-0.0222576,-2.52572
3802,22,-2,-3,-6,-23,-88,-56,-90,-0.00976562,0.178711,0.935059,5.1875,2.1875,3.25,0.207075,-0.020903,-2.52439
3802,-20,-10,-7,-5,-1,-2,-22,-17,-0.00976562,0.178711,0.935059,5.1875,2.1875,3.25,0.207075,-0.020903,-2.52439
3819,13,3,-5,5,16,36,2,19,-0.00976562,0.178711,0.935059,5.1875,2.1875,3.25,0.207075,-0.020903,-2.52439
3819,22,12,5,-3,-10,-40,-34,-16,-0.00976562,0.178711,0.935059,5.1875,2.1875,3.25,0.207075,-0.020903,-2.52439
3820,-25,-6,-9,-1,1,3,20,92,-0.0292969,0.162598,0.905762,3.8125,2.6875,7.0625,0.207756,-0.0193446,-2.52172
3820,2,1,2,3,1,35,11,-36,-0.0292969,0.162598,0.905762,3.8125,2.6875,7.0625,0.207756,-0.0193446,-2.52172
3840,-66,-19,-11,-3,6,23,3,-60,-0.0292969,0.162598,0.905762,3.8125,2.6875,7.0625,0.207756,-0.0193446,-2.52172
3840,46,20,1,0,1,0,25,105,-0.0292969,0.162598,0.905762,3.8125,2.6875,7.0625,0.207756,-0.0193446,-2.52172
3848,11,-4,1,2,17,79,101,52,0.00585938,0.163086,0.912109,-11.4375,3.75,9.875,0.20309,-0.0184923,-2.51802
3848,-2,8,2,0,-9,-58,-16,-26,0.00585938,0.163086,0.912109,-11.4375,3.75,9.875,0.20309,-0.0184923,-2.51802
3855,33,27,5,2,-12,-30,11,-41,0.00585938,0.163086,0.912109,-11.4375,3.75,9.875,0.20309,-0.0184923,-2.51802
3855,-28,-9,-2,1,16,66,-32,-53,0.00585938,0.163086,0.912109,-11.4375,3.75,9.875,0.20309,-0.0184923,-2.51802
3869,-8,-5,1,0,-3,-10,-69,-34,0.00976562,0.162598,0.894043,-1.4375,4.0625,9.6875,0.202035,-0.0176197,-2.51446
3869,-21,-8,-9,-7,-28,-102,-11,-32,0.00976562,0.162598,0.894043,-1.4375,4.0625,9.6875,0.202035,-0.0176197,-2.51446
3877,8,17,3,0,-4,-38,-25,-36,0.00976562,0.162598,0.894043,-1.4375,4.0625,9.6875,0.202035,-0.0176197,-2.51446
3877,-21,1,-5,-1,7,23,28,-1,0.00976562,0.162598,0.894043,-1.4375,4.0625,9.6875,0.202035,-0.0176197,-2.51446
3885,45,-6,0,-1,-12,-43,-45,1,0.00195312,0.208496,0.887207,3.3125,3.6875,10.0625,0.203706,-0.0167464,-2.51077
3885,-46,-3,-1,-1,3,6,17,26,0.00195312,0.208496,0.887207,3.3125,3.6875,10.0625,0.203706,-0.0167464,-2.51077
3900,-9,22,3,-3,-16,-75,-36,55,0.00195312,0.208496,0.887207,3.3125,3.6875,10.0625,0.203706,-0.0167464,-2.51077
3900,-25,-24,-8,6,29,102,72,-11,0.00195312,0.208496,0.887207,3.3125,3.6875,10.0625,0.203706,-0.0167464,-2.51077
3902,-6,6,4,0,-1,-42,-59,-15,0.0209961,0.220703,0.88623,-1.8125,1.625,9.125,0.203982,-0.0169205,-2.50749
3902,6,16,2,2,-8,-37,50,-62,0.0209961,0.220703,0.88623,-1.8125,1.625,9.125,0.203982,-0.0169205,-2.50749
3915,68,5,10,20,54,89,37,89,0.0209961,0.220703,0.88623,-1.8125,1.625,9.125,0.203982,-0.0169205,-2.50749
3915,11,3,2,-3,-6,-59,-33,-80,0.0209961,0.220703,0.88623,-1.8125,1.625,9.125,0.203982,-0.0169205,-2.50749
3922,-39,-10,-4,-7,-16,-54,-38,30,0.059082,0.192871,0.869629,-3.75,-0.625,7.75,0.202925,-0.018782,-2.50491
3922,-15,-5,-6,-7,-7,-11,-5,-36,0.059082,0.192871,0.869629,-3.75,-0.625,7.75,0.202925,-0.018782,-2.50491
3946,4,-27,-9,-10,-15,-3,-46,-43,0.059082,0.192871,0.869629,-3.75,-0.625,7.75,0.202925,-0.018782,-2.50491
3946,-53,-17,4,2,-2,-25,-14,-22,0.059082,0.192871,0.869629,-3.75,-0.625,7.75,0.202925,-0.018782,-2.50491
3948,18,4,4,4,-2,-39,-36,-19,0.0512695,0.172363,0.890137,-1.625,-0.9375,5.6875,0.202093,-0.0202583,-2.50298
3948,17,14,9,6,24,69,-22,-34,0.0512695,0.172363,0.890137,-1.625,-0.9375,5.6875,0.202093,-0.0202583,-2.50298
3968,-37,-25,-10,-8,-12,-50,-49,-46,0.0512695,0.172363,0.890137,-1.625,-0.9375,5.6875,0.202093,-0.0202583,-2.50298
3968,22,16,2,-3,-2,3,30,-26,0.0512695,0.172363,0.890137,-1.625,-0.9375,5.6875,0.202093,-0.0202583,-2.50298
3970,12,-11,-11,-2,-16,-39,-10,73,0.0493164,0.180664,0.895508,-0.75,-0.6875,3.5,0.201854,-0.0214628,-2.50183
3970,-14,-27,-9,-1,11,68,50,13,0.0493164,0.180664,0.895508,-0.75,-0.6875,3.5,0.201854,-0.0214628,-2.50183
3975,-10,6,7,0,-1,-1,-4,28,0.0493164,0.180664,0.895508,-0.75,-0.6875,3.5,0.201854,-0.0214628,-2.50183
3975,15,8,-4,-8,-17,-52,-38,30,0.0493164,0.180664,0.895508,-0.75,-0.6875,3.5,0.201854,-0.0214628,-2.50183
3982,-52,-41,-4,-8,-7,20,32,-83,0.0463867,0.175781,0.903809,0.3125,0.25,2,0.201653,-0.0221169,-2.50111
3982,-2,5,1,-2,-4,-37,-10,22,0.0463867,0.175781,0.903809,0.3125,0.25,2,0.201653,-0.0221169,-2.50111
3998,30,4,-9,-3,-3,35,61,55,0.0463867,0.175781,0.903809,0.3125,0.25,2,0.201653,-0.0221169,-2.50111
3998,24,21,10,10,13,40,-19,-65,0.0463867,0.175781,0.903809,0.3125,0.25,2,0.201653,-0.0221169,-2.50111
4000,-27,2,1,-2,-10,-17,-5,17,0.0170898,0.182129,0.891602,0.5625,-0.5,0.375,0.201653,-0.0221169,-2.50111
4000,-10,-6,-7,1,28,74,32,-42,0.0170898,0.182129,0.891602,0.5625,-0.5,0.375,0.201653,-0.0221169,-2.50111
4021,-47,-32,-21,-18,-29,-82,3,-55,0.0170898,0.182129,0.891602,0.5625,-0.5,0.375,0.201653,-0.0221169,-2.50111
4021,31,9,-5,-2,1,32,51,83,0.0170898,0.182129,0.891602,0.5625,-0.5,0.375,0.201653,-0.0221169,-2.50111
4023,31,20,6,8,8,-38,-33,-1,0.0234375,0.1875,0.88623,2.1875,-1.375,-1.6875,0.202556,-0.0224757,-2.50179
4023,6,4,2,5,17,74,-20,-50,0.0234375,0.1875,0.88623,2.1875,-1.375,-1.6875,0.202556,-0.0224757,-2.50179
4035,6,8,7,6,-3,-14,-12,11,0.0234375,0.1875,0.88623,2.1875,-1.375,-1.6875,0.202556,-0.0224757,-2.50179
4035,23,2,4,0,2,-18,7,47,0.0234375,0.1875,0.88623,2.1875,-1.375,-1.6875,0.202556,-0.0224757,-2.50179
4042,-38,-17,-6,-4,-3,38,49,-30,0.0410156,0.196777,0.900391,2.25,-1.3125,-4.125,0.203706,-0.0232162,-2.5033
4042,-16,-12,-12,-14,-25,-104,-39,54,0.0410156,0.196777,0.900391,2.25,-1.3125,-4.125,0.203706,-0.0232162,-2.5033
4058,74,16,-1,-7,-11,-25,19,-18,0.0410156,0.196777,0.900391,2.25,-1.3125,-4.125,0.203706,-0.0232162,-2.5033
4058,10,3,10,6,5,25,19,-32,0.0410156,0.196777,0.900391,2.25,-1.3125,-4.125,0.203706,-0.0232162,-2.5033
4060,-23,-7,-7,-10,-2,-35,-34,34,0.0141602,0.177734,0.902832,-0.1875,-1.0625,-2.1875,0.20344,-0.0231766,-2.50406
4060,-42,-15,-6,-5,-9,18,-1,-32,0.0141602,0.177734,0.902832,-0.1875,-1.0625,-2.1875,0.20344,-0.0231766,-2.50406
4081,-5,-18,8,2,5,36,-8,5,0.0141602,0.177734,0.902832,-0.1875,-1.0625,-2.1875,0.20344,-0.0231766,-2.50406
4081,4,-8,-1,0,-1,6,-6,-26,0.0141602,0.177734,0.902832,-0.1875,-1.0625,-2.1875,0.20344,-0.0231766,-2.50406
4082,4,9,-1,-1,6,52,14,43,0.00488281,0.175293,0.900391,2.8125,0.0625,-2.5,0.204149,-0.0225467,-2.50491
4082,-11,0,-1,-2,-8,-1,11,1,0.00488281,0.175293,0.900391,2.8125,0.0625,-2.5,0.204149,-0.0225467,-2.50491
4095,-16,-3,-1,1,4,-7,-17,-14,0.00488281,0.175293,0.900391,2.8125,0.0625,-2.5,0.204149,-0.0225467,-2.50491
4095,-68,-18,-9,-3,-16,-60,-6,-53,0.00488281,0.175293,0.900391,2.8125,0.0625,-2.5,0.204149,-0.0225467,-2.50491
4111,40,11,15,16,23,82,12,-57,0.0336914,0.206543,0.88916,2.625,0.0625,-4.6875,0.205631,-0.0226083,-2.50646
4111,-1,1,6,1,-15,-88,-31,8,0.0336914,0.206543,0.88916,2.625,0.0625,-4.6875,0.205631,-0.0226083,-2.50646
4118,8,26,8,9,33,127,126,35,0.0336914,0.206543,0.88916,2.625,0.0625,-4.6875,0.205631,-0.0226083,-2.50646
4118,-16,7,3,9,16,6,-14,-42,0.0336914,0.206543,0.88916,2.625,0.0625,-4.6875,0.205631,-0.0226083,-2.50646
4120,57,-10,-10,-16,-19,-26,1,-16,0.0263672,0.216797,0.90332,-0.4375,0.5625,-2.875,0.206236,-0.0223201,-2.50745
4120,0,-1,-6,-3,-3,-58,-47,-50,0.0263672,0.216797,0.90332,-0.4375,0.5625,-2.875,0.206236,-0.0223201,-2.50745
4141,20,0,3,-1,-22,-76,-38,-16,0.0263672,0.216797,0.90332,-0.4375,0.5625,-2.875,0.206236,-0.0223201,-2.50745
4141,-6,-1,-2,-4,4,50,10,-42,0.0263672,0.216797,0.90332,-0.4375,0.5625,-2.875,0.206236,-0.0223201,-2.50745
4143,11,8,-5,-4,3,43,2,-23,-0.0078125,0.185059,0.903809,-2.875,1.5625,-0.6875,0.205096,-0.0210295,-2.50752
4143,25,9,7,5,8,22,-8,0,-0.0078125,0.185059,0.903809,-2.875,1.5625,-0.6875,0.205096,-0.0210295,-2.50752
4154,-31,-16,-12,-10,-18,-60,-34,-35,-0.0078125,0.185059,0.903809,-2.875,1.5625,-0.6875,0.205096,-0.0210295,-2.50752
4154,15,-5,-6,-8,-28,-121,-40,36,-0.0078125,0.185059,0.903809,-2.875,1.5625,-0.6875,0.205096,-0.0210295,-2.50752
4164,35,8,3,8,14,-8,60,92,0.0102539,0.197266,0.903809,-1.125,2.75,-0.625,0.204978,-0.0198244,-2.50758
4164,-27,4,1,-2,10,79,49,35,0.0102539,0.197266,0.903809,-1.125,2.75,-0.625,0.204978,-0.0198244,-2.50758
4179,-31,-21,-9,-1,-2,-49,-27,-2,0.0102539,0.197266,0.903809,-1.125,2.75,-0.625,0.204978,-0.0198244,-2.50758
4179,20,-6,-5,-4,-1,50,39,47,0.0102539,0.197266,0.903809,-1.125,2.75,-0.625,0.204978,-0.0198244,-2.50758
4180,8,-4,0,-2,-2,-8,21,8,0.0410156,0.215332,0.898438,-3.5,3.4375,-0.875,0.204421,-0.0191229,-2.50756
4180,9,-1,4,0,3,35,35,49,0.0410156,0.215332,0.898438,-3.5,3.4375,-0.875,0.204421,-0.0191229,-2.50756
4201,-3,-3,-4,-3,-3,-8,20,3,0.0410156,0.215332,0.898438,-3.5,3.4375,-0.875,0.204421,-0.0191229,-2.50756
4201,-46,-10,-8,-7,1,-24,-44,18,0.0410156,0.215332,0.898438,-3.5,3.4375,-0.875,0.204421,-0.0191229,-2.50756
4202,9,1,1,5,-2,10,5,-64,0.0126953,0.197754,0.894043,-5.875,3.4375,0.9375,0.202749,-0.0179841,-2.50705
4202,-5,-10,-15,-11,-12,15,45,70,0.0126953,0.197754,0.894043,-5.875,3.4375,0.9375,0.202749,-0.0179841,-2.50705
4223,-35,4,0,0,-5,-1,-34,-93,0.0126953,0.197754,0.894043,-5.875,3.4375,0.9375,0.202749,-0.0179841,-2.50705
4223,-20,-11,-11,-4,-8,-40,-21,75,0.0126953,0.197754,0.894043,-5.875,3.4375,0.9375,0.202749,-0.0179841,-2.50705
4225,11,16,3,1,-12,-62,-72,16,-0.00976562,0.167969,0.900879,-6.625,3.6875,1,0.200134,-0.0161561,-2.50641
4225,7,14,6,8,8,2,52,50,-0.00976562,0.167969,0.900879,-6.625,3.6875,1,0.200134,-0.0161561,-2.50641
4246,34,-20,-11,-6,26,85,82,62,-0.00976562,0.167969,0.900879,-6.625,3.6875,1,0.200134,-0.0161561,-2.50641
4246,9,5,6,4,7,23,0,-24,-0.00976562,0.167969,0.900879,-6.625,3.6875,1,0.200134,-0.0161561,-2.50641
4248,-39,-13,-6,-4,-1,15,35,50,0.019043,0.181641,0.899902,-4.8125,3.6875,0.3125,0.198459,-0.0149915,-2.5061
4248,41,35,21,11,0,-56,2,-37,0.019043,0.181641,0.899902,-4.8125,3.6875,0.3125,0.198459,-0.0149915,-2.5061
4261,31,8,-1,1,-4,-33,-38,-9,0.019043,0.181641,0.899902,-4.8125,3.6875,0.3125,0.198459,-0.0149915,-2.5061
4261,35,13,4,5,16,58,41,-4,0.019043,0.181641,0.899902,-4.8125,3.6875,0.3125,0.198459,-0.0149915,-2.5061
4262,-47,-10,-8,-5,1,62,13,-22,0.019043,0.180664,0.89502,-6.4375,3.4375,1.0625,0.196196,-0.0140581,-2.50538
4262,30,7,-2,-3,-21,-100,-65,-41,0.019043,0.180664,0.89502,-6.4375,3.4375,1.0625,0.196196,-0.0140581,-2.50538
4275,8,13,2,0,0,39,54,82,0.019043,0.180664,0.89502,-6.4375,3.4375,1.0625,0.196196,-0.0140581,-2.50538
4275,18,6,2,-6,-4,-41,-19,35,0.019043,0.180664,0.89502,-6.4375,3.4375,1.0625,0.196196,-0.0140581,-2.50538
4283,9,-7,-3,-2,-8,-103,-74,-25,-0.00195312,0.171387,0.888672,-5.875,2.5625,0.25,0.194128,-0.0128817,-2.50514
4283,5,-6,-5,-6,-2,21,-21,-5,-0.00195312,0.171387,0.888672,-5.875,2.5625,0.25,0.194128,-0.0128817,-2.50514
4306,-39,17,9,4,-2,-11,-1,19,-0.00195312,0.171387,0.888672,-5.875,2.5625,0.25,0.194128,-0.0128817,-2.50514
4306,4,-17,-9,-4,-17,-86,-19,-36,-0.00195312,0.171387,0.888672,-5.875,2.5625,0.25,0.194128,-0.0128817,-2.50514
4308,3,12,-2,-2,5,42,60,58,0.0126953,0.156738,0.891113,-4,1.5,-0.75,0.192383,-0.0122932,-2.50528
4308,27,1,0,4,3,-1,11,43,0.0126953,0.156738,0.891113,-4,1.5,-0.75,0.192383,-0.0122932,-2.50528
4321,-53,4,3,-2,-6,-69,-58,-55,0.0126953,0.156738,0.891113,-4,1.5,-0.75,0.192383,-0.0122932,-2.50528
4321,7,-23,-12,-6,-6,50,-2,15,0.0126953,0.156738,0.891113,-4,1.5,-0.75,0.192383,-0.0122932,-2.50528
4322,-32,-17,-3,-1,-2,-5,-9,22,0.00976562,0.163086,0.895508,-1.75,0.6875,-0.875,0.191459,-0.01196,-2.50559
4322,-33,-16,-6,-4,-2,11,-30,-33,0.00976562,0.163086,0.895508,-1.75,0.6875,-0.875,0.191459,-0.01196,-2.50559
4334,27,16,6,-2,-19,-105,-73,26,0.00976562,0.163086,0.895508,-1.75,0.6875,-0.875,0.191459,-0.01196,-2.50559
4334,-17,13,4,4,17,88,83,53,0.00976562,0.163086,0.895508,-1.75,0.6875,-0.875,0.191459,-0.01196,-2.50559
4344,-31,-17,-12,-6,-2,-13,10,-15,-0.0117188,0.181152,0.891113,-0.375,0.0625,-0.5,0.191498,-0.0118446,-2.50558
4344,-20,-7,-8,-9,-30,-93,-38,44,-0.0117188,0.181152,0.891113,-0.375,0.0625,-0.5,0.191498,-0.0118446,-2.50558
4359,-23,-25,-7,4,9,11,31,37,-0.0117188,0.181152,0.891113,-0.375,0.0625,-0.5,0.191498,-0.0118446,-2.50558
4359,-15,3,5,4,20,76,-8,-60,-0.0117188,0.181152,0.891113,-0.375,0.0625,-0.5,0.191498,-0.0118446,-2.50558
4360,22,-15,-3,1,3,-31,-44,33,0.0112305,0.157715,0.905762,-0.6875,0,-1.1875,0.190873,-0.0117329,-2.50592
4360,-47,-15,-9,-15,-33,-98,-29,46,0.0112305,0.157715,0.905762,-0.6875,0,-1.1875,0.190873,-0.0117329,-2.50592
4381,-49,-6,-10,-13,-10,16,-10,-67,0.0112305,0.157715,0.905762,-0.6875,0,-1.1875,0.190873,-0.0117329,-2.50592
4381,1,-38,-9,7,1,-22,-32,-104,0.0112305,0.157715,0.905762,-0.6875,0,-1.1875,0.190873,-0.0117329,-2.50592
4382,-39,19,9,2,-4,-20,0,-94,0.0209961,0.17334,0.897949,2,0.6875,-0.8125,0.191494,-0.0117851,-2.50615
4382,-5,-21,-13,-2,-1,-46,-54,-54,0.0209961,0.17334,0.897949,2,0.6875,-0.8125,0.191494,-0.0117851,-2.50615
4395,-4,-10,-5,4,20,95,43,26,0.0209961,0.17334,0.897949,2,0.6875,-0.8125,0.191494,-0.0117851,-2.50615
4395,44,22,4,-5,-6,-25,18,58,0.0209961,0.17334,0.897949,2,0.6875,-0.8125,0.191494,-0.0117851,-2.50615
4403,-24,10,2,-1,-22,-90,-71,-75,0.012207,0.202148,0.887207,1.3125,0.75,-0.75,0.192739,-0.0115275,-2.50639
4403,15,-22,1,15,42,111,85,-51,0.012207,0.202148,0.887207,1.3125,0.75,-0.75,0.192739,-0.0115275,-2.50639
4419,39,2,10,9,23,83,36,75,0.012207,0.202148,0.887207,1.3125,0.75,-0.75,0.192739,-0.0115275,-2.50639
4419,0,17,12,8,9,58,-7,26,0.012207,0.202148,0.887207,1.3125,0.75,-0.75,0.192739,-0.0115275,-2.50639
4420,16,1,1,1,-6,-21,36,-1,0.00732422,0.194824,0.895508,-1.75,-0.5,-0.875,0.192627,-0.0114637,-2.50667
4420,-17,16,7,1,0,9,-31,-5,0.00732422,0.194824,0.895508,-1.75,-0.5,-0.875,0.192627,-0.0114637,-2.50667
4441,21,10,4,-1,3,-13,33,1,0.00732422,0.194824,0.895508,-1.75,-0.5,-0.875,0.192627,-0.0114637,-2.50667
4441,-27,3,-8,-7,-15,-54,-21,5,0.00732422,0.194824,0.895508,-1.75,-0.5,-0.875,0.192627,-0.0114637,-2.50667
4443,3,-10,-1,-3,-7,-22,-23,-29,0.0151367,0.161133,0.902344,-2.8125,-0.3125,-0.875,0.191392,-0.0116704,-2.50702
4443,-37,-4,-2,-1,14,117,16,-99,0.0151367,0.161133,0.902344,-2.8125,-0.3125,-0.875,0.191392,-0.0116704,-2.50702
4454,3,-22,-11,-11,-21,-50,-35,-28,0.0151367,0.161133,0.902344,-2.8125,-0.3125,-0.875,0.191392,-0.0116704,-2.50702
4454,-21,1,-3,-6,-26,-125,-35,45,0.0151367,0.161133,0.902344,-2.8125,-0.3125,-0.875,0.191392,-0.0116704,-2.50702
4463,-25,-18,-8,2,20,96,46,-23,0.00927734,0.162109,0.903809,0.6875,1.25,-0.1875,0.191308,-0.0111214,-2.50705
4463,19,20,7,5,6,24,29,-59,0.00927734,0.162109,0.903809,0.6875,1.25,-0.1875,0.191308,-0.0111214,-2.50705
4478,-23,-1,6,4,-8,-44,-57,-32,0.00927734,0.162109,0.903809,0.6875,1.25,-0.1875,0.191308,-0.0111214,-2.50705
4478,30,2,0,1,3,34,82,38,0.00927734,0.162109,0.903809,0.6875,1.25,-0.1875,0.191308,-0.0111214,-2.50705
4480,19,15,7,4,-6,-44,-43,-86,0.00927734,0.19873,0.900879,1.5,1.3125,-0.625,0.192348,-0.0106863,-2.50706
4480,-10,-6,-2,-1,-2,11,4,28,0.00927734,0.19873,0.900879,1.5,1.3125,-0.625,0.192348,-0.0106863,-2.50706
4501,65,17,-5,-8,1,42,60,-28,0.00927734,0.19873,0.900879,1.5,1.3125,-0.625,0.192348,-0.0106863,-2.50706
4501,-15,-19,-5,6,5,-27,-46,-97,0.00927734,0.19873,0.900879,1.5,1.3125,-0.625,0.192348,-0.0106863,-2.50706
4502,-6,1,-5,-9,-17,-57,48,70,0.012207,0.177734,0.912109,-2.3125,1.0625,-0.9375,0.191579,-0.0102765,-2.50738
4502,39,29,9,0,2,8,-29,-7,0.012207,0.177734,0.912109,-2.3125,1.0625,-0.9375,0.191579,-0.0102765,-2.50738
4524,-18,-15,-6,-2,-19,-104,-37,-23,0.012207,0.177734,0.912109,-2.3125,1.0625,-0.9375,0.191579,-0.0102765,-2.50738
4524,-15,-2,6,3,1,-8,15,5,0.012207,0.177734,0.912109,-2.3125,1.0625,-0.9375,0.191579,-0.0102765,-2.50738
4525,46,-1,-8,-10,2,68,33,43,0.00585938,0.155273,0.905273,-1.25,2.25,-0.5,0.19072,-0.00934343,-2.50743
4525,5,-6,6,5,4,39,-2,6,0.00585938,0.155273,0.905273,-1.25,2.25,-0.5,0.19072,-0.00934343,-2.50743
4539,7,23,10,0,-19,-92,-76,-39,0.00585938,0.155273,0.905273,-1.25,2.25,-0.5,0.19072,-0.00934343,-2.50743
4539,31,8,2,4,20,54,59,39,0.00585938,0.155273,0.905273,-1.25,2.25,-0.5,0.19072,-0.00934343,-2.50743
4540,22,1,1,-1,4,23,22,4,0.00976562,0.182129,0.897949,1.625,2.8125,-1.25,0.191531,-0.00843369,-2.50758
4540,20,8,3,-1,-6,-51,-36,35,0.00976562,0.182129,0.897949,1.625,2.8125,-1.25,0.191531,-0.00843369,-2.50758
4561,6,2,3,6,14,51,4,8,0.00976562,0.182129,0.897949,1.625,2.8125,-1.25,0.191531,-0.00843369,-2.50758
4561,-22,7,-2,-2,1,-4,-42,-9,0.00976562,0.182129,0.897949,1.625,2.8125,-1.25,0.191531,-0.00843369,-2.50758
4562,-23,10,10,0,-1,-11,-19,-16,0.0146484,0.186035,0.895996,-0.5,2.75,-1.4375,0.191566,-0.00751283,-2.50788
4562,5,-38,-19,-8,-9,-7,36,-2,0.0146484,0.186035,0.895996,-0.5,2.75,-1.4375,0.191566,-0.00751283,-2.50788
4591,-1,1,2,8,11,59,44,-80,0.0146484,0.186035,0.895996,-0.5,2.75,-1.4375,0.191566,-0.00751283,-2.50788
4591,8,-11,-15,-16,-14,0,-7,9,0.0146484,0.186035,0.895996,-0.5,2.75,-1.4375,0.191566,-0.00751283,-2.50788
4592,-27,2,2,3,11,48,-17,-4,0.00585938,0.172852,0.898438,-1.0625,2.6875,-0.8125,0.191252,-0.00648952,-2.50805
4592,-40,-7,-3,-3,-16,-88,-53,-17,0.00585938,0.172852,0.898438,-1.0625,2.6875,-0.8125,0.191252,-0.00648952,-2.50805
4606,-25,-7,5,7,18,66,5,-66,0.00585938,0.172852,0.898438,-1.0625,2.6875,-0.8125,0.191252,-0.00648952,-2.50805
4606,2,25,10,4,-2,-6,-7,-42,0.00585938,0.172852,0.898438,-1.0625,2.6875,-0.8125,0.191252,-0.00648952,-2.50805
4607,-12,-26,-22,-15,-22,-52,-58,-29,-0.0112305,0.17041,0.893066,-0.625,2.25,-1.625,0.191008,-0.00521302,-2.5084
4607,40,-5,-5,-4,-4,-3,-2,29,-0.0112305,0.17041,0.893066,-0.625,2.25,-1.625,0.191008,-0.00521302,-2.5084
4621,3,3,-3,-4,-1,2,-2,34,-0.0112305,0.17041,0.893066,-0.625,2.25,-1.625,0.191008,-0.00521302,-2.5084
4621,-35,-11,-8,-9,-12,-54,-43,-52,-0.0112305,0.17041,0.893066,-0.625,2.25,-1.625,0.191008,-0.00521302,-2.5084
4622,-48,-13,-4,-1,-5,-31,-54,-62,0.00244141,0.177734,0.888184,-0.25,1.25,-1.875,0.191053,-0.00466199,-2.50894
4622,21,13,9,5,0,-4,47,73,0.00244141,0.177734,0.888184,-0.25,1.25,-1.875,0.191053,-0.00466199,-2.50894
4643,49,-17,-14,-14,-21,-47,-30,42,0.00244141,0.177734,0.888184,-0.25,1.25,-1.875,0.191053,-0.00466199,-2.50894
4643,-45,-11,-2,1,15,60,42,73,0.00244141,0.177734,0.888184,-0.25,1.25,-1.875,0.191053,-0.00466199,-2.50894
4645,-3,1,3,4,0,-13,24,96,0.00732422,0.182129,0.887207,-1.6875,0.4375,-1.1875,0.190701,-0.00451176,-2.50929
4645,-42,-7,-5,-3,7,5,2,-21,0.00732422,0.182129,0.887207,-1.6875,0.4375,-1.1875,0.190701,-0.00451176,-2.50929
4658,-34,-8,2,2,-1,-31,-22,11,0.00732422,0.182129,0.887207,-1.6875,0.4375,-1.1875,0.190701,-0.00451176,-2.50929
4658,45,29,13,2,-7,-37,-32,-68,0.00732422,0.182129,0.887207,-1.6875,0.4375,-1.1875,0.190701,-0.00451176,-2.50929
4660,-4,-31,-12,-7,-6,-3,-3,-23,-0.0170898,0.17334,0.888184,-1.9375,-0.3125,-0.5625,0.190076,-0.00402842,-2.5095
4660,5,6,4,2,-5,-16,0,-6,-0.0170898,0.17334,0.888184,-1.9375,-0.3125,-0.5625,0.190076,-0.00402842,-2.5095
4681,-1,21,6,6,18,42,-7,-47,-0.0170898,0.17334,0.888184,-1.9375,-0.3125,-0.5625,0.190076,-0.00402842,-2.5095
4681,-33,-35,-20,-14,-15,-38,-27,-40,-0.0170898,0.17334,0.888184,-1.9375,-0.3125,-0.5625,0.190076,-0.00402842,-2.5095
4683,-1,1,-1,3,10,10,32,-31,-0.00244141,0.166992,0.903809,-1.75,-1.125,-0.5625,0.189377,-0.00416051,-2.50977
4683,-1,9,11,12,21,72,93,4,-0.00244141,0.166992,0.903809,-1.75,-1.125,-0.5625,0.189377,-0.00416051,-2.50977
4702,8,-12,-12,-5,-5,-23,-11,-32,-0.00244141,0.166992,0.903809,-1.75,-1.125,-0.5625,0.189377,-0.00416051,-2.50977
4702,-1,7,3,0,-6,14,12,17,-0.00244141,0.166992,0.903809,-1.75,-1.125,-0.5625,0.189377,-0.00416051,-2.50977
4711,52,21,7,5,4,12,-13,13,0.00976562,0.173828,0.90332,-0.4375,-0.6875,-1,0.189339,-0.00427601,-2.50978
4711,-21,-13,-6,-8,-11,-46,-54,-48,0.00976562,0.173828,0.90332,-0.4375,-0.6875,-1,0.189339,-0.00427601,-2.50978
4717,17,5,5,-1,-14,-76,2,19,0.00976562,0.173828,0.90332,-0.4375,-0.6875,-1,0.189339,-0.00427601,-2.50978
4717,49,10,3,0,7,50,39,68,0.00976562,0.173828,0.90332,-0.4375,-0.6875,-1,0.189339,-0.00427601,-2.50978
4724,-15,7,-1,0,10,55,52,-10,-0.00439453,0.180176,0.900391,-0.6875,0,-0.0625,0.189495,-0.00419828,-2.50978
4724,20,8,1,-1,0,-3,-39,-51,-0.00439453,0.180176,0.900391,-0.6875,0,-0.0625,0.189495,-0.00419828,-2.50978
4741,30,-2,1,2,7,60,42,23,-0.00439453,0.180176,0.900391,-0.6875,0,-0.0625,0.189495,-0.00419828,-2.50978
4741,5,2,3,2,-14,-100,-63,-73,-0.00439453,0.180176,0.900391,-0.6875,0,-0.0625,0.189495,-0.00419828,-2.50978
4742,-49,8,2,-1,2,34,1,21,-0.00830078,0.174805,0.901855,-0.3125,0.4375,-0.125,0.189377,-0.00416051,-2.50977
4742,14,10,-2,0,-4,-26,32,12,-0.00830078,0.174805,0.901855,-0.3125,0.4375,-0.125,0.189377,-0.00416051,-2.50977
4764,-25,-24,-15,-3,3,46,31,13,-0.00830078,0.174805,0.901855,-0.3125,0.4375,-0.125,0.189377,-0.00416051,-2.50977
4764,44,-3,-2,-3,-10,-35,-19,64,-0.00830078,0.174805,0.901855,-0.3125,0.4375,-0.125,0.189377,-0.00416051,-2.50977
4765,1,16,9,8,16,48,27,-1,-0.0117188,0.169434,0.90332,-0.0625,0.375,0,0.189416,-0.00404501,-2.50976
4765,-15,11,3,3,10,39,-8,-46,-0.0117188,0.169434,0.90332,-0.0625,0.375,0,0.189416,-0.00404501,-2.50976
4778,1,-13,-11,-8,-24,-106,-30,9,-0.0117188,0.169434,0.90332,-0.0625,0.375,0,0.189416,-0.00404501,-2.50976
4778,23,17,5,7,13,61,29,-6,-0.0117188,0.169434,0.90332,-0.0625,0.375,0,0.189416,-0.00404501,-2.50976
4784,-18,-21,-9,-5,5,66,-13,2,0.0175781,0.181641,0.896484,1.0625,0.3125,-1.5,0.190001,-0.00418618,-2.51029
4784,18,0,4,1,-1,10,-18,17,0.0175781,0.181641,0.896484,1.0625,0.3125,-1.5,0.190001,-0.00418618,-2.51029
4801,-17,2,-1,-6,-14,-74,-26,-10,0.0175781,0.181641,0.896484,1.0625,0.3125,-1.5,0.190001,-0.00418618,-2.51029
4801,-17,-12,-7,-2,5,-10,28,7,0.0175781,0.181641,0.896484,1.0625,0.3125,-1.5,0.190001,-0.00418618,-2.51029
4802,28,8,0,0,-2,24,7,34,0.0195312,0.189941,0.88623,-0.125,0.6875,-0.75,0.190119,-0.00422393,-2.5103
4802,25,0,4,6,9,56,-3,-65,0.0195312,0.189941,0.88623,-0.125,0.6875,-0.75,0.190119,-0.00422393,-2.5103
4823,-24,7,2,2,14,63,40,69,0.0195312,0.189941,0.88623,-0.125,0.6875,-0.75,0.190119,-0.00422393,-2.5103
4823,-67,11,12,12,20,64,-26,-77,0.0195312,0.189941,0.88623,-0.125,0.6875,-0.75,0.190119,-0.00422393,-2.5103
4827,20,-16,-6,-6,-9,-21,-3,7,-0.0195312,0.171875,0.897461,-2.875,0.125,-0.0625,0.189148,-0.00364984,-2.5103
4827,-17,-30,-10,-6,-16,-71,-8,31,-0.0195312,0.171875,0.897461,-2.875,0.125,-0.0625,0.189148,-0.00364984,-2.5103
4838,0,14,8,6,18,50,48,27,-0.0195312,0.171875,0.897461,-2.875,0.125,-0.0625,0.189148,-0.00364984,-2.5103
4838,1,-11,-4,-1,-8,-20,28,49,-0.0195312,0.171875,0.897461,-2.875,0.125,-0.0625,0.189148,-0.00364984,-2.5103
4845,39,5,-4,-5,-15,-52,0,-10,-0.0131836,0.149902,0.89209,-1.125,-0.8125,-0.5,0.188294,-0.0034868,-2.51043
4845,-44,-7,-7,-5,4,21,3,2,-0.0131836,0.149902,0.89209,-1.125,-0.8125,-0.5,0.188294,-0.0034868,-2.51043
4861,6,22,9,2,-4,-22,-21,-87,-0.0131836,0.149902,0.89209,-1.125,-0.8125,-0.5,0.188294,-0.0034868,-2.51043
4861,-2,-37,-15,-9,-10,-22,-13,-41,-0.0131836,0.149902,0.89209,-1.125,-0.8125,-0.5,0.188294,-0.0034868,-2.51043
4862,3,13,11,13,19,31,24,11,0.00927734,0.169434,0.900391,0.75,-0.4375,-0.0625,0.188294,-0.0034868,-2.51043
4862,31,-1,-4,-5,-3,7,42,32,0.00927734,0.169434,0.900391,0.75,-0.4375,-0.0625,0.188294,-0.0034868,-2.51043
4891,-46,-3,2,0,-3,-7,-13,60,0.00927734,0.169434,0.900391,0.75,-0.4375,-0.0625,0.188294,-0.0034868,-2.51043
4891,-4,10,3,-1,-13,-73,-47,-69,0.00927734,0.169434,0.900391,0.75,-0.4375,-0.0625,0.188294,-0.0034868,-2.51043
4892,-34,-23,-11,-6,-12,-65,-67,-81,0.0209961,0.178711,0.897461,1.25,-0.25,0.5,0.188877,-0.00407415,-2.51032
4892,-25,-12,-16,-15,-11,14,-16,-85,0.0209961,0.178711,0.897461,1.25,-0.25,0.5,0.188877,-0.00407415,-2.51032
4897,2,-10,-12,-9,-4,21,9,63,0.0209961,0.178711,0.897461,1.25,-0.25,0.5,0.188877,-0.00407415,-2.51032
4897,-31,-20,-3,-3,4,28,-3,-15,0.0209961,0.178711,0.897461,1.25,-0.25,0.5,0.188877,-0.00407415,-2.51032
4904,53,22,11,-1,-12,-90,-66,-12,-0.00878906,0.169434,0.89502,0.875,-0.0625,1.3125,0.18923,-0.0038506,-2.50984
4904,-16,6,5,5,18,60,37,32,-0.00878906,0.169434,0.89502,0.875,-0.0625,1.3125,0.18923,-0.0038506,-2.50984
4921,39,17,-2,-8,-12,-9,28,30,-0.00878906,0.169434,0.89502,0.875,-0.0625,1.3125,0.18923,-0.0038506,-2.50984
4921,-32,-44,-13,-1,-11,-70,-25,30,-0.00878906,0.169434,0.89502,0.875,-0.0625,1.3125,0.18923,-0.0038506,-2.50984
4923,18,15,3,2,5,16,55,98,-0.0375977,0.160156,0.896484,1.75,-1,0.5,0.189567,-0.00319873,-2.50969
4923,14,-30,-13,2,-3,-19,-18,23,-0.0375977,0.160156,0.896484,1.75,-1,0.5,0.189567,-0.00319873,-2.50969
4944,-52,3,2,-4,-3,2,-36,-104,-0.0375977,0.160156,0.896484,1.75,-1,0.5,0.189567,-0.00319873,-2.50969
4944,64,47,18,4,-5,-19,-1,-15,-0.0375977,0.160156,0.896484,1.75,-1,0.5,0.189567,-0.00319873,-2.50969
4945,4,-8,-8,-2,1,15,-8,14,-0.0170898,0.166992,0.905273,2.625,-2.625,0.6875,0.190306,-0.00370864,-2.50958
4945,-4,6,6,2,-3,-24,-5,-9,-0.0170898,0.166992,0.905273,2.625,-2.625,0.6875,0.190306,-0.00370864,-2.50958
4958,27,-2,-2,0,-4,-5,27,18,-0.0170898,0.166992,0.905273,2.625,-2.625,0.6875,0.190306,-0.00370864,-2.50958
4958,12,6,-3,-9,-12,-88,-11,20,-0.0170898,0.166992,0.905273,2.625,-2.625,0.6875,0.190306,-0.00370864,-2.50958
4965,-43,-14,-2,-1,-4,-16,-2,-11,0.0078125,0.166504,0.900391,3.5,-2.5625,2.125,0.191284,-0.00472647,-2.50905
4965,24,31,8,-2,-4,-14,2,44,0.0078125,0.166504,0.900391,3.5,-2.5625,2.125,0.191284,-0.00472647,-2.50905
4981,19,-27,-8,0,7,35,-28,-39,0.0078125,0.166504,0.900391,3.5,-2.5625,2.125,0.191284,-0.00472647,-2.50905
4981,0,7,0,-7,-9,0,3,28,0.0078125,0.166504,0.900391,3.5,-2.5625,2.125,0.191284,-0.00472647,-2.50905
4982,-16,-5,-2,-2,0,1,-5,-30,0.0336914,0.172852,0.895508,4.4375,-2,2.3125,0.192846,-0.00633302,-2.50842
4982,-63,-16,-8,-9,-11,-38,-12,38,0.0336914,0.172852,0.895508,4.4375,-2,2.3125,0.192846,-0.00633302,-2.50842
5003,25,2,4,5,5,8,6,-16,0.0336914,0.172852,0.895508,4.4375,-2,2.3125,0.192846,-0.00633302,-2.50842
5003,15,13,6,2,6,1,-7,70,0.0336914,0.172852,0.895508,4.4375,-2,2.3125,0.192846,-0.00633302,-2.50842
5004,9,-17,-9,-1,4,55,21,-12,0.015625,0.202637,0.907227,5.9375,-1.1875,1.3125,0.195476,-0.00698272,-2.50793
5004,5,-2,-5,-3,0,8,4,-44,0.015625,0.202637,0.907227,5.9375,-1.1875,1.3125,0.195476,-0.00698272,-2.50793
5017,14,12,7,4,4,4,-18,18,0.015625,0.202637,0.907227,5.9375,-1.1875,1.3125,0.195476,-0.00698272,-2.50793
5017,0,-4,-4,-4,-4,34,-3,-45,0.015625,0.202637,0.907227,5.9375,-1.1875,1.3125,0.195476,-0.00698272,-2.50793
5033,28,10,5,-1,-5,1,9,26,-0.00732422,0.203125,0.903809,3.4375,-1.25,1.3125,0.197223,-0.00719663,-2.50766
5033,18,6,6,2,-1,-34,-30,-55,-0.00732422,0.203125,0.903809,3.4375,-1.25,1.3125,0.197223,-0.00719663,-2.50766
5041,-10,0,-4,-2,6,-2,2,-1,-0.00732422,0.203125,0.903809,3.4375,-1.25,1.3125,0.197223,-0.00719663,-2.50766
5041,15,-11,0,4,13,56,60,52,-0.00732422,0.203125,0.903809,3.4375,-1.25,1.3125,0.197223,-0.00719663,-2.50766
5043,10,13,5,3,14,32,29,40,0.00683594,0.194336,0.904297,2.0625,-1,1.0625,0.19827,-0.00757928,-2.50727
5043,71,22,2,0,-1,12,43,89,0.00683594,0.194336,0.904297,2.0625,-1,1.0625,0.19827,-0.00757928,-2.50727
5064,-15,-10,-1,1,2,28,25,25,0.00683594,0.194336,0.904297,2.0625,-1,1.0625,0.19827,-0.00757928,-2.50727
5064,-49,1,-1,1,-1,-19,-21,-72,0.00683594,0.194336,0.904297,2.0625,-1,1.0625,0.19827,-0.00757928,-2.50727
5065,-12,0,3,-3,-17,-91,-15,-29,0.0253906,0.212402,0.907227,2.5,0.8125,0.3125,0.19979,-0.00770325,-2.50717
5065,2,-12,-7,-1,10,39,-14,-61,0.0253906,0.212402,0.907227,2.5,0.8125,0.3125,0.19979,-0.00770325,-2.50717
5077,-22,-4,-8,-6,4,43,56,49,0.0253906,0.212402,0.907227,2.5,0.8125,0.3125,0.19979,-0.00770325,-2.50717
5077,22,14,6,-3,-5,2,5,47,0.0253906,0.212402,0.907227,2.5,0.8125,0.3125,0.19979,-0.00770325,-2.50717
5086,1,-4,-7,-2,1,24,22,-10,0.00878906,0.197754,0.899902,-1.5625,1,0.375,0.199623,-0.00741167,-2.50693
5086,0,-6,-5,-1,-1,-14,-29,35,0.00878906,0.197754,0.899902,-1.5625,1,0.375,0.199623,-0.00741167,-2.50693
5101,11,-1,1,-1,-7,-41,-36,-84,0.00878906,0.197754,0.899902,-1.5625,1,0.375,0.199623,-0.00741167,-2.50693
5101,-36,-16,-10,-3,1,25,47,37,0.00878906,0.197754,0.899902,-1.5625,1,0.375,0.199623,-0.00741167,-2.50693
5102,-21,17,2,-5,-7,-18,-19,-46,0.0195312,0.159668,0.893555,-1.875,1.375,-0.3125,0.198498,-0.00729763,-2.50696
5102,-32,-13,-5,-3,-20,-70,-38,17,0.0195312,0.159668,0.893555,-1.875,1.375,-0.3125,0.198498,-0.00729763,-2.50696
5123,30,5,1,8,22,65,31,61,0.0195312,0.159668,0.893555,-1.875,1.375,-0.3125,0.198498,-0.00729763,-2.50696
5123,-1,3,3,3,5,0,-14,-44,0.0195312,0.159668,0.893555,-1.875,1.375,-0.3125,0.198498,-0.00729763,-2.50696
5125,-3,-3,4,7,8,-32,-7,-64,0.0161133,0.177246,0.902832,2.1875,2.4375,-2.125,0.199116,-0.00654204,-2.5075
5125,19,9,-2,0,7,43,28,51,0.0161133,0.177246,0.902832,2.1875,2.4375,-2.125,0.199116,-0.00654204,-2.5075
5146,-49,-4,6,-1,-15,-49,-50,-40,0.0161133,0.177246,0.902832,2.1875,2.4375,-2.125,0.199116,-0.00654204,-2.5075
5146,14,-8,-8,-10,-12,-19,-5,2,0.0161133,0.177246,0.902832,2.1875,2.4375,-2.125,0.199116,-0.00654204,-2.5075
5147,-29,-14,-2,1,-14,-52,-39,-38,0.00195312,0.191406,0.899414,0.625,2.625,-1.375,0.19962,-0.00538752,-2.5078
5147,6,-4,-7,-6,-1,45,12,10,0.00195312,0.191406,0.899414,0.625,2.625,-1.375,0.19962,-0.00538752,-2.5078
5161,-22,-3,-1,-2,-11,-55,-25,-66,0.00195312,0.191406,0.899414,0.625,2.625,-1.375,0.19962,-0.00538752,-2.5078
5161,-1,3,0,4,11,32,44,5,0.00195312,0.191406,0.899414,0.625,2.625,-1.375,0.19962,-0.00538752,-2.5078
5162,2,-15,-5,-6,-3,29,3,12,0.00195312,0.17041,0.904785,-2.0625,2.6875,0.25,0.198642,-0.00445488,-2.50746
5162,28,1,9,5,-1,-38,16,6,0.00195312,0.17041,0.904785,-2.0625,2.6875,0.25,0.198642,-0.00445488,-2.50746
5184,-10,-1,3,5,-3,-47,-29,-13,0.00195312,0.17041,0.904785,-2.0625,2.6875,0.25,0.198642,-0.00445488,-2.50746
5184,-3,1,0,-3,-10,54,20,-12,0.00195312,0.17041,0.904785,-2.0625,2.6875,0.25,0.198642,-0.00445488,-2.50746
5185,15,8,-2,4,23,93,55,54,0.00244141,0.180664,0.900879,3,3.1875,-2.3125,0.199687,-0.00319779,-2.50797
5185,-50,-11,4,6,12,19,29,-36,0.00244141,0.180664,0.900879,3,3.1875,-2.3125,0.199687,-0.00319779,-2.50797
5197,40,-6,-11,-14,-30,-73,-47,44,0.00244141,0.180664,0.900879,3,3.1875,-2.3125,0.199687,-0.00319779,-2.50797
5197,-12,10,9,7,1,7,1,-29,0.00244141,0.180664,0.900879,3,3.1875,-2.3125,0.199687,-0.00319779,-2.50797
5206,-12,1,0,3,9,-3,21,33,-0.0112305,0.20459,0.889648,2.875,2.9375,-1.9375,0.201307,-0.00174891,-2.50839
5206,0,9,11,10,28,101,53,61,-0.0112305,0.20459,0.889648,2.875,2.9375,-1.9375,0.201307,-0.00174891,-2.50839
5221,11,-3,-13,-11,-15,-48,3,55,-0.0112305,0.20459,0.889648,2.875,2.9375,-1.9375,0.201307,-0.00174891,-2.50839
5221,-3,-4,1,0,-4,-42,-44,-6,-0.0112305,0.20459,0.889648,2.875,2.9375,-1.9375,0.201307,-0.00174891,-2.50839
5223,-8,0,-3,-11,-23,-61,-11,-24,-0.012207,0.186035,0.879883,0.1875,1.8125,-0.5,0.201505,-0.00077235,-2.50851
5223,-24,-17,-4,2,-4,-64,-76,-47,-0.012207,0.186035,0.879883,0.1875,1.8125,-0.5,0.201505,-0.00077235,-2.50851
5244,-19,5,5,6,13,27,28,11,-0.012207,0.186035,0.879883,0.1875,1.8125,-0.5,0.201505,-0.00077235,-2.50851
5244,61,17,0,0,7,5,-14,-11,-0.012207,0.186035,0.879883,0.1875,1.8125,-0.5,0.201505,-0.00077235,-2.50851
5245,16,21,7,3,10,25,14,62,0.00341797,0.201172,0.881348,1.125,1.625,-1.25,0.202314,-0.000233747,-2.50878
5245,-52,-22,-17,-20,-40,-121,-83,-58,0.00341797,0.201172,0.881348,1.125,1.625,-1.25,0.202314,-0.000233747,-2.50878
5257,-31,-1,1,0,14,90,44,-26,0.00341797,0.201172,0.881348,1.125,1.625,-1.25,0.202314,-0.000233747,-2.50878
5257,26,13,4,-1,-9,-72,-20,40,0.00341797,0.201172,0.881348,1.125,1.625,-1.25,0.202314,-0.000233747,-2.50878
5266,13,15,8,6,3,2,3,29,-0.0107422,0.214844,0.884766,-0.8125,1.0625,-0.75,0.20293,0.000484288,-2.50893
5266,-36,-33,-14,-10,-12,4,-10,-50,-0.0107422,0.214844,0.884766,-0.8125,1.0625,-0.75,0.20293,0.000484288,-2.50893
5281,18,26,14,10,17,45,-2,-76,-0.0107422,0.214844,0.884766,-0.8125,1.0625,-0.75,0.20293,0.000484288,-2.50893
5281,-35,-15,-6,0,3,-20,-36,-3,-0.0107422,0.214844,0.884766,-0.8125,1.0625,-0.75,0.20293,0.000484288,-2.50893
5283,3,-10,1,-2,-8,-38,12,13,-0.0170898,0.188965,0.88916,-5.75,-0.8125,-0.25,0.201028,0.000608556,-2.50912
5283,32,19,-3,-5,6,75,-8,-55,-0.0170898,0.188965,0.88916,-5.75,-0.8125,-0.25,0.201028,0.000608556,-2.50912
5303,8,-7,-3,-4,-3,-31,-6,8,-0.0170898,0.188965,0.88916,-5.75,-0.8125,-0.25,0.201028,0.000608556,-2.50912
5303,-25,10,1,-2,-5,-25,-30,-61,-0.0170898,0.188965,0.88916,-5.75,-0.8125,-0.25,0.201028,0.000608556,-2.50912
5305,-33,-15,-6,5,8,-51,22,-11,0.0107422,0.169922,0.890137,-3.9375,-0.625,-0.3125,0.199471,0.000231311,-2.50926
5305,-21,32,17,13,18,48,54,18,0.0107422,0.169922,0.890137,-3.9375,-0.625,-0.3125,0.199471,0.000231311,-2.50926
5317,-25,-35,-6,1,-3,-2,12,47,0.0107422,0.169922,0.890137,-3.9375,-0.625,-0.3125,0.199471,0.000231311,-2.50926
5317,-18,-12,-13,-11,-15,-44,-9,65,0.0107422,0.169922,0.890137,-3.9375,-0.625,-0.3125,0.199471,0.000231311,-2.50926
5333,-41,-22,-12,-14,-20,7,-48,-19,0.0131836,0.196777,0.900879,-2.625,0.0625,-1,0.198968,-9.03532e-05,-2.50956
5333,-12,9,8,3,-11,-47,45,5,0.0131836,0.196777,0.900879,-2.625,0.0625,-1,0.198968,-9.03532e-05,-2.50956
5341,12,7,6,14,33,96,36,-20,0.0131836,0.196777,0.900879,-2.625,0.0625,-1,0.198968,-9.03532e-05,-2.50956
5341,-4,1,2,1,-2,8,19,37,0.0131836,0.196777,0.900879,-2.625,0.0625,-1,0.198968,-9.03532e-05,-2.50956
5342,29,-15,-2,1,9,41,44,51,-0.0219727,0.172363,0.906738,-4.25,0.3125,0.5625,0.197259,0.000572205,-2.50931
5342,6,0,-3,-12,-19,-39,-77,-35,-0.0219727,0.172363,0.906738,-4.25,0.3125,0.5625,0.197259,0.000572205,-2.50931
5364,12,2,1,1,-8,-46,-23,-62,-0.0219727,0.172363,0.906738,-4.25,0.3125,0.5625,0.197259,0.000572205,-2.50931
5364,-24,-21,-9,1,14,77,31,-49,-0.0219727,0.172363,0.906738,-4.25,0.3125,0.5625,0.197259,0.000572205,-2.50931
5365,29,15,7,0,-2,3,-39,-82,-0.0151367,0.14502,0.904297,-2.0625,0.6875,-0.125,0.19579,0.00118609,-2.50938
5365,6,-5,-1,3,2,-2,-7,-73,-0.0151367,0.14502,0.904297,-2.0625,0.6875,-0.125,0.19579,0.00118609,-2.50938
5377,-27,-2,-5,-7,-18,-92,-34,12,-0.0151367,0.14502,0.904297,-2.0625,0.6875,-0.125,0.19579,0.00118609,-2.50938
5377,4,2,5,3,6,28,-30,-26,-0.0151367,0.14502,0.904297,-2.0625,0.6875,-0.125,0.19579,0.00118609,-2.50938
5386,-4,2,-6,-1,-7,-33,9,8,0.0263672,0.193359,0.891113,1.75,0.75,-1.3125,0.196682,0.000802673,-2.50975
5386,35,0,-5,-5,-2,-3,36,120,0.0263672,0.193359,0.891113,1.75,0.75,-1.3125,0.196682,0.000802673,-2.50975
5401,-32,0,2,5,20,58,32,52,0.0263672,0.193359,0.891113,1.75,0.75,-1.3125,0.196682,0.000802673,-2.50975
5401,0,-16,-9,-14,-19,-33,-18,48,0.0263672,0.193359,0.891113,1.75,0.75,-1.3125,0.196682,0.000802673,-2.50975
5403,48,-5,0,4,0,-1,-44,23,0.00537109,0.198242,0.897949,-1.75,0.3125,-0.8125,0.196557,0.00086315,-2.50993
5403,30,6,3,5,1,-39,-1,62,0.00537109,0.198242,0.897949,-1.75,0.3125,-0.8125,0.196557,0.00086315,-2.50993
5423,47,23,0,-5,-9,-9,20,67,0.00537109,0.198242,0.897949,-1.75,0.3125,-0.8125,0.196557,0.00086315,-2.50993
5423,-2,14,13,7,5,28,16,-71,0.00537109,0.198242,0.897949,-1.75,0.3125,-0.8125,0.196557,0.00086315,-2.50993
5425,-3,1,-4,-8,-4,25,-8,4,-0.027832,0.15918,0.899902,-2.5625,0,-0.0625,0.195244,0.00155433,-2.51
5425,-8,-8,-3,-5,-13,-66,-47,-74,-0.027832,0.15918,0.899902,-2.5625,0,-0.0625,0.195244,0.00155433,-2.51
5437,-12,1,-4,-4,10,82,3,-105,-0.027832,0.15918,0.899902,-2.5625,0,-0.0625,0.195244,0.00155433,-2.51
5437,-8,-6,-1,-1,-1,-35,14,53,-0.027832,0.15918,0.899902,-2.5625,0,-0.0625,0.195244,0.00155433,-2.51
5446,-34,-14,-7,-3,-8,-34,-22,-47,-0.0224609,0.166992,0.905762,1.1875,0.875,-0.5625,0.195388,0.00242298,-2.51011
5446,-6,4,5,2,9,21,60,-18,-0.0224609,0.166992,0.905762,1.1875,0.875,-0.5625,0.195388,0.00242298,-2.51011
5461,-36,-9,-2,-6,-17,-39,-37,-30,-0.0224609,0.166992,0.905762,1.1875,0.875,-0.5625,0.195388,0.00242298,-2.51011
5461,83,31,10,11,21,52,2,-28,-0.0224609,0.166992,0.905762,1.1875,0.875,-0.5625,0.195388,0.00242298,-2.51011
5463,-15,17,9,7,10,25,10,-14,0,0.195312,0.891113,1.0625,0.6875,0.125,0.196202,0.00252801,-2.50995
5463,11,-11,-11,-12,-21,-20,-22,56,0,0.195312,0.891113,1.0625,0.6875,0.125,0.196202,0.00252801,-2.50995
5483,-5,-6,-5,0,-8,-42,8,37,0,0.195312,0.891113,1.0625,0.6875,0.125,0.196202,0.00252801,-2.50995
5483,-36,-16,-6,-6,-4,-4,2,0,0,0.195312,0.891113,1.0625,0.6875,0.125,0.196202,0.00252801,-2.50995
5485,-40,-3,4,3,6,35,-9,-38,0.0078125,0.194824,0.882324,-0.5625,-0.3125,0.8125,0.19632,0.0024903,-2.50996
5485,14,-11,-3,1,-1,-35,-14,34,0.0078125,0.194824,0.882324,-0.5625,-0.3125,0.8125,0.19632,0.0024903,-2.50996
5506,52,-7,-13,-13,-24,-53,-24,-22,0.0078125,0.194824,0.882324,-0.5625,-0.3125,0.8125,0.19632,0.0024903,-2.50996
5506,34,7,4,5,3,12,25,-15,0.0078125,0.194824,0.882324,-0.5625,-0.3125,0.8125,0.19632,0.0024903,-2.50996
5507,26,2,-3,1,6,26,28,5,0.000488281,0.166992,0.891602,-1.4375,-1.0625,0.375,0.195661,0.00205248,-2.50987
5507,-19,-5,-6,-8,-15,-52,-15,26,0.000488281,0.166992,0.891602,-1.4375,-1.0625,0.375,0.195661,0.00205248,-2.50987
5520,50,23,20,12,15,39,-50,-62,0.000488281,0.166992,0.891602,-1.4375,-1.0625,0.375,0.195661,0.00205248,-2.50987
5520,-21,-9,-9,-5,-2,25,36,32,0.000488281,0.166992,0.891602,-1.4375,-1.0625,0.375,0.195661,0.00205248,-2.50987
5523,-58,-18,-4,-5,-3,18,10,-45,-0.00976562,0.16748,0.902344,1.4375,-0.4375,0.1875,0.195817,0.00213023,-2.50987
5523,2,-1,-1,1,-3,1,-9,-12,-0.00976562,0.16748,0.902344,1.4375,-0.4375,0.1875,0.195817,0.00213023,-2.50987
5543,2,4,-2,-12,-14,-65,34,58,-0.00976562,0.16748,0.902344,1.4375,-0.4375,0.1875,0.195817,0.00213023,-2.50987
5543,14,-27,-18,-3,7,13,-8,-20,-0.00976562,0.16748,0.902344,1.4375,-0.4375,0.1875,0.195817,0.00213023,-2.50987
5545,17,-5,-3,-3,-7,5,5,37,-0.00732422,0.197754,0.904297,1.9375,0.0625,0.3125,0.197023,0.00223741,-2.50973
5545,44,23,14,13,15,-15,16,-6,-0.00732422,0.197754,0.904297,1.9375,0.0625,0.3125,0.197023,0.00223741,-2.50973
5565,-32,-3,-2,-4,2,85,60,5,-0.00732422,0.197754,0.904297,1.9375,0.0625,0.3125,0.197023,0.00223741,-2.50973
5565,25,18,9,3,4,10,-12,-113,-0.00732422,0.197754,0.904297,1.9375,0.0625,0.3125,0.197023,0.00223741,-2.50973
5568,-1,-9,-14,-15,-28,-122,-88,14,0.0131836,0.182129,0.90332,-0.875,0.25,0.4375,0.196984,0.00212194,-2.50974
5568,-16,-10,-1,3,14,81,66,-49,0.0131836,0.182129,0.90332,-0.875,0.25,0.4375,0.196984,0.00212194,-2.50974
5581,-11,7,7,4,2,-13,-39,-25,0.0131836,0.182129,0.90332,-0.875,0.25,0.4375,0.196984,0.00212194,-2.50974
5581,-40,2,3,-1,-4,-46,-53,-11,0.0131836,0.182129,0.90332,-0.875,0.25,0.4375,0.196984,0.00212194,-2.50974
5583,43,1,1,3,2,12,-20,-34,-0.00927734,0.17334,0.896484,0.0625,0.375,0.75,0.196984,0.00212194,-2.50974
5583,15,14,3,3,4,38,-23,-33,-0.00927734,0.17334,0.896484,0.0625,0.375,0.75,0.196984,0.00212194,-2.50974
5602,-28,-36,-19,-10,-7,-17,18,3,-0.00927734,0.17334,0.896484,0.0625,0.375,0.75,0.196984,0.00212194,-2.50974
5602,11,10,10,5,0,14,1,-32,-0.00927734,0.17334,0.896484,0.0625,0.375,0.75,0.196984,0.00212194,-2.50974
5610,-41,10,6,-4,-7,-33,-2,-27,0.00927734,0.177734,0.897461,1.375,0.5,-0.9375,0.197368,0.00214701,-2.50994
5610,-54,-17,-14,-11,-17,-47,-14,25,0.00927734,0.177734,0.897461,1.375,0.5,-0.9375,0.197368,0.00214701,-2.50994
5633,58,15,8,13,14,25,-13,-125,0.00927734,0.177734,0.897461,1.375,0.5,-0.9375,0.197368,0.00214701,-2.50994
5633,-53,-10,-5,-8,-8,-19,-6,67,0.00927734,0.177734,0.897461,1.375,0.5,-0.9375,0.197368,0.00214701,-2.50994
5635,44,11,6,2,11,79,43,-41,0.0078125,0.195801,0.896484,2.25,0.75,-0.875,0.198532,0.00218836,-2.51029
5635,29,5,-3,-1,2,-18,-4,1,0.0078125,0.195801,0.896484,2.25,0.75,-0.875,0.198532,0.00218836,-2.51029
5640,-4,-13,-1,-3,5,2,26,70,0.0078125,0.195801,0.896484,2.25,0.75,-0.875,0.198532,0.00218836,-2.51029
5640,-14,-6,-9,-7,-5,34,-34,-57,0.0078125,0.195801,0.896484,2.25,0.75,-0.875,0.198532,0.00218836,-2.51029
5654,1,12,7,1,0,-16,-28,32,-0.00927734,0.198242,0.889648,0.375,0.5,-0.25,0.198688,0.00226613,-2.51029
5654,-28,8,4,4,-1,-8,-12,-58,-0.00927734,0.198242,0.889648,0.375,0.5,-0.25,0.198688,0.00226613,-2.51029
5663,12,-7,0,5,13,16,-2,17,-0.00927734,0.198242,0.889648,0.375,0.5,-0.25,0.198688,0.00226613,-2.51029
5663,64,11,0,0,-4,-20,6,-22,-0.00927734,0.198242,0.889648,0.375,0.5,-0.25,0.198688,0.00226613,-2.51029
5664,-7,-7,-1,-1,4,8,24,112,-0.00341797,0.179199,0.889648,-0.9375,0.0625,-0.875,0.198688,0.00226613,-2.51029
5664,-36,-12,1,1,0,-33,-36,-78,-0.00341797,0.179199,0.889648,-0.9375,0.0625,-0.875,0.198688,0.00226613,-2.51029
5685,-5,10,0,-8,-16,-49,-50,2,-0.00341797,0.179199,0.889648,-0.9375,0.0625,-0.875,0.198688,0.00226613,-2.51029
5685,1,-3,1,0,-4,17,15,13,-0.00341797,0.179199,0.889648,-0.9375,0.0625,-0.875,0.198688,0.00226613,-2.51029
5688,-42,-6,-6,1,14,14,31,33,-0.0136719,0.187988,0.889648,0.125,-0.5,-0.125,0.198726,0.0023816,-2.51028
5688,93,23,14,8,12,45,21,35,-0.0136719,0.187988,0.889648,0.125,-0.5,-0.125,0.198726,0.0023816,-2.51028
5701,-5,28,5,-3,-10,-8,23,-27,-0.0136719,0.187988,0.889648,0.125,-0.5,-0.125,0.198726,0.0023816,-2.51028
5701,-25,-49,-21,-4,-1,-26,28,15,-0.0136719,0.187988,0.889648,0.125,-0.5,-0.125,0.198726,0.0023816,-2.51028
5707,2,-17,-10,-9,-13,-44,-34,4,-0.0136719,0.185547,0.898926,-0.875,-0.625,-0.3125,0.198726,0.0023816,-2.51028
5707,0,15,12,5,5,12,-31,-55,-0.0136719,0.185547,0.898926,-0.875,-0.625,-0.3125,0.198726,0.0023816,-2.51028
5723,16,-1,-1,0,3,24,1,-40,-0.0136719,0.185547,0.898926,-0.875,-0.625,-0.3125,0.198726,0.0023816,-2.51028
5723,-13,3,-3,-2,-12,-79,-18,-2,-0.0136719,0.185547,0.898926,-0.875,-0.625,-0.3125,0.198726,0.0023816,-2.51028
5724,-12,-23,-12,-11,-9,11,-3,23,-0.00439453,0.174805,0.907715,-1.5,-0.5625,1.125,0.198022,0.0021855,-2.50987
5724,-10,8,9,9,22,96,49,1,-0.00439453,0.174805,0.907715,-1.5,-0.5625,1.125,0.198022,0.0021855,-2.50987
5746,-22,-6,-5,-6,-10,-15,-19,23,-0.00439453,0.174805,0.907715,-1.5,-0.5625,1.125,0.198022,0.0021855,-2.50987
5746,-59,3,1,-2,1,2,10,18,-0.00439453,0.174805,0.907715,-1.5,-0.5625,1.125,0.198022,0.0021855,-2.50987
5748,3,1,0,2,-6,-18,-18,-128,0.000488281,0.185059,0.893066,0.9375,-0.125,0.6875,0.19814,0.00214778,-2.50988
5748,-50,-26,-16,-12,-3,32,33,66,0.000488281,0.185059,0.893066,0.9375,-0.125,0.6875,0.19814,0.00214778,-2.50988
