0,-3,-9,1,-2,-2,-1,-1,-1,0.0888672,0.787598,0.447754,-2.5625,1.4375,-7.3125,1.05696,-0.102117,-2.45131
0,-4,-7,-4,-1,0,-1,0,0,0.0888672,0.787598,0.447754,-2.5625,1.4375,-7.3125,1.05696,-0.102117,-2.45131
2,0,-13,2,1,0,-2,0,1,0.0888672,0.787598,0.447754,-2.5625,1.4375,-7.3125,1.05696,-0.102117,-2.45131
2,-4,17,2,-3,-2,-2,-2,2,0.0888672,0.787598,0.447754,-2.5625,1.4375,-7.3125,1.05696,-0.102117,-2.45131
3,0,-18,-4,-1,0,0,-1,-1,0.0888672,0.787598,0.447754,-2.5625,1.4375,-7.3125,1.05696,-0.102117,-2.45131
3,-2,-20,-9,-2,-1,0,-1,-1,0.0888672,0.787598,0.447754,-2.5625,1.4375,-7.3125,1.05696,-0.102117,-2.45131
4,3,-7,2,-2,-1,-1,-2,-3,0.0888672,0.787598,0.447754,-2.5625,1.4375,-7.3125,1.05696,-0.102117,-2.45131
4,1,-1,-3,2,0,-1,1,1,0.0888672,0.787598,0.447754,-2.5625,1.4375,-7.3125,1.05696,-0.102117,-2.45131
12,-1,-4,-4,3,0,-1,0,-1,0.0800781,0.786621,0.433105,-1.8125,1.5,-8.5625,1.05676,-0.0989873,-2.45242
12,4,18,4,1,-1,-1,-2,-2,0.0800781,0.786621,0.433105,-1.8125,1.5,-8.5625,1.05676,-0.0989873,-2.45242
19,-5,-27,-12,-2,-2,-2,-2,0,0.0800781,0.786621,0.433105,-1.8125,1.5,-8.5625,1.05676,-0.0989873,-2.45242
19,-1,-48,-10,-5,-4,-2,-5,-4,0.0800781,0.786621,0.433105,-1.8125,1.5,-8.5625,1.05676,-0.0989873,-2.45242
38,8,11,11,3,3,0,0,2,0.0625,0.797852,0.438477,-1.3125,1.5625,-8.75,1.05653,-0.0954647,-2.45342
38,0,-19,-20,0,2,-1,1,-1,0.0625,0.797852,0.438477,-1.3125,1.5625,-8.75,1.05653,-0.0954647,-2.45342
42,-2,25,5,-2,-3,-1,0,-1,0.0625,0.797852,0.438477,-1.3125,1.5625,-8.75,1.05653,-0.0954647,-2.45342
42,2,21,1,-3,-1,-2,-1,-3,0.0625,0.797852,0.438477,-1.3125,1.5625,-8.75,1.05653,-0.0954647,-2.45342
49,-5,-39,-10,-2,-2,-1,-2,0,0.0458984,0.798828,0.432617,-2,1.25,-8.125,1.05639,-0.0918282,-2.45447
49,-6,8,9,1,-2,0,-1,-1,0.0458984,0.798828,0.432617,-2,1.25,-8.125,1.05639,-0.0918282,-2.45447
64,9,1,-6,1,0,1,0,-1,0.0458984,0.798828,0.432617,-2,1.25,-8.125,1.05639,-0.0918282,-2.45447
64,-2,17,15,1,0,-1,1,2,0.0458984,0.798828,0.432617,-2,1.25,-8.125,1.05639,-0.0918282,-2.45447
74,-1,31,3,-3,-3,-2,-2,-3,0.0458984,0.785645,0.429199,-3.4375,0.5,-6.8125,1.05568,-0.0888871,-2.45544
74,-4,5,5,-2,-4,-1,0,-3,0.0458984,0.785645,0.429199,-3.4375,0.5,-6.8125,1.05568,-0.0888871,-2.45544
95,-1,1,-5,-1,-1,0,0,-1,0.0458984,0.785645,0.429199,-3.4375,0.5,-6.8125,1.05568,-0.0888871,-2.45544
95,2,2,5,2,-1,1,-1,0,0.0458984,0.785645,0.429199,-3.4375,0.5,-6.8125,1.05568,-0.0888871,-2.45544
127,-16,-14,4,-10,-8,-7,-6,-6,0.0668945,0.786621,0.442383,0.6875,-0.3125,-4.75,1.05568,-0.0852503,-2.45732
127,-20,11,1,0,0,0,-1,-1,0.0668945,0.786621,0.442383,0.6875,-0.3125,-4.75,1.05568,-0.0852503,-2.45732
128,8,-18,-11,-5,-4,-2,-4,-4,0.0668945,0.786621,0.442383,0.6875,-0.3125,-4.75,1.05568,-0.0852503,-2.45732
128,9,24,5,-1,-2,-2,1,2,0.0668945,0.786621,0.442383,0.6875,-0.3125,-4.75,1.05568,-0.0852503,-2.45732
139,0,-32,-6,2,3,0,1,3,0.0766602,0.769043,0.435059,0.6875,-1.4375,-3.8125,1.05608,-0.0844238,-2.45848
139,23,58,7,-1,-3,-1,0,2,0.0766602,0.769043,0.435059,0.6875,-1.4375,-3.8125,1.05608,-0.0844238,-2.45848
140,-3,4,3,2,3,-1,1,1,0.0766602,0.769043,0.435059,0.6875,-1.4375,-3.8125,1.05608,-0.0844238,-2.45848
140,-18,-56,-3,-3,0,-2,-4,-4,0.0766602,0.769043,0.435059,0.6875,-1.4375,-3.8125,1.05608,-0.0844238,-2.45848
141,8,17,-16,0,-2,-1,-2,-1,0.0766602,0.769043,0.435059,0.6875,-1.4375,-3.8125,1.05608,-0.0844238,-2.45848
141,-4,-28,-10,-5,-3,0,0,-2,0.0766602,0.769043,0.435059,0.6875,-1.4375,-3.8125,1.05608,-0.0844238,-2.45848
147,-14,3,-8,5,2,2,2,-1,0.0708008,0.783691,0.45166,-2.1875,-2.9375,-3.5,1.05516,-0.0836467,-2.45992
147,9,26,34,2,-1,1,0,1,0.0708008,0.783691,0.45166,-2.1875,-2.9375,-3.5,1.05516,-0.0836467,-2.45992
154,6,29,17,-4,-3,-2,-2,-3,0.0708008,0.783691,0.45166,-2.1875,-2.9375,-3.5,1.05516,-0.0836467,-2.45992
154,2,-61,-16,0,1,2,1,-1,0.0708008,0.783691,0.45166,-2.1875,-2.9375,-3.5,1.05516,-0.0836467,-2.45992
176,-13,-8,-18,-10,-8,-5,-4,-6,0.0727539,0.796387,0.448242,-1,-4,-2.3125,1.05509,-0.0835403,-2.46158
176,-3,-14,-10,0,-2,-3,-1,-2,0.0727539,0.796387,0.448242,-1,-4,-2.3125,1.05509,-0.0835403,-2.46158
177,-4,-15,5,4,2,0,0,0,0.0727539,0.796387,0.448242,-1,-4,-2.3125,1.05509,-0.0835403,-2.46158
177,-2,2,2,4,2,0,0,1,0.0727539,0.796387,0.448242,-1,-4,-2.3125,1.05509,-0.0835403,-2.46158
199,17,41,17,2,0,0,1,1,0.0820312,0.800293,0.425293,-5.25,-5,-2.6875,1.05409,-0.0837742,-2.46359
199,-1,13,3,-7,-6,-4,-4,-4,0.0820312,0.800293,0.425293,-5.25,-5,-2.6875,1.05409,-0.0837742,-2.46359
200,2,-50,-5,-1,-1,1,-1,0,0.0820312,0.800293,0.425293,-5.25,-5,-2.6875,1.05409,-0.0837742,-2.46359
200,-4,4,-3,-2,-2,-3,0,-1,0.0820312,0.800293,0.425293,-5.25,-5,-2.6875,1.05409,-0.0837742,-2.46359
214,4,-12,6,1,3,2,1,2,0.0610352,0.788086,0.447266,-6.1875,-5.625,-2.125,1.05209,-0.0837223,-2.46567
214,-4,-18,-26,-5,-3,-3,-4,-3,0.0610352,0.788086,0.447266,-6.1875,-5.625,-2.125,1.05209,-0.0837223,-2.46567
215,8,81,8,4,4,1,3,3,0.0610352,0.788086,0.447266,-6.1875,-5.625,-2.125,1.05209,-0.0837223,-2.46567
215,-16,-21,7,-3,-5,-2,-3,-5,0.0610352,0.788086,0.447266,-6.1875,-5.625,-2.125,1.05209,-0.0837223,-2.46567
237,-1,42,4,-3,-4,-1,-2,-1,0.0854492,0.79834,0.46875,-1.5625,-5.5625,-5.9375,1.05156,-0.0831488,-2.46833
237,-3,22,-4,3,1,2,6,0,0.0854492,0.79834,0.46875,-1.5625,-5.5625,-5.9375,1.05156,-0.0831488,-2.46833
237,-1,-2,3,-1,-3,-4,-3,-2,0.0854492,0.79834,0.46875,-1.5625,-5.5625,-5.9375,1.05156,-0.0831488,-2.46833
237,6,7,-1,0,0,1,-1,2,0.0854492,0.79834,0.46875,-1.5625,-5.5625,-5.9375,1.05156,-0.0831488,-2.46833
259,1,22,7,1,-2,-1,-1,1,0.0898438,0.823242,0.471191,3.9375,-1.4375,-10.5,1.05313,-0.0804518,-2.47063
259,1,-15,7,-5,-1,2,-1,0,0.0898438,0.823242,0.471191,3.9375,-1.4375,-10.5,1.05313,-0.0804518,-2.47063
260,-6,-23,-17,2,1,1,-1,-3,0.0898438,0.823242,0.471191,3.9375,-1.4375,-10.5,1.05313,-0.0804518,-2.47063
260,-2,-20,-8,-2,-2,-2,1,0,0.0898438,0.823242,0.471191,3.9375,-1.4375,-10.5,1.05313,-0.0804518,-2.47063
282,-4,-30,-6,-4,-2,-4,-4,-3,0.0576172,0.839355,0.470703,-3.125,0.25,-10.75,1.05223,-0.0767239,-2.47231
282,1,10,2,-2,-3,-2,-3,1,0.0576172,0.839355,0.470703,-3.125,0.25,-10.75,1.05223,-0.0767239,-2.47231
282,0,-7,4,2,4,0,2,1,0.0576172,0.839355,0.470703,-3.125,0.25,-10.75,1.05223,-0.0767239,-2.47231
282,22,46,15,-2,-2,-2,-3,-1,0.0576172,0.839355,0.470703,-3.125,0.25,-10.75,1.05223,-0.0767239,-2.47231
298,-26,-16,-29,-8,-3,-3,-2,-3,0.0756836,0.808594,0.456543,-9.0625,-0.375,-12.9375,1.04942,-0.0731278,-2.47467
298,0,-3,-1,1,0,1,-1,-2,0.0756836,0.808594,0.456543,-9.0625,-0.375,-12.9375,1.04942,-0.0731278,-2.47467
304,1,17,1,-6,-6,-2,-2,0,0.0756836,0.808594,0.456543,-9.0625,-0.375,-12.9375,1.04942,-0.0731278,-2.47467
304,2,0,6,1,-2,-2,-4,0,0.0756836,0.808594,0.456543,-9.0625,-0.375,-12.9375,1.04942,-0.0731278,-2.47467
327,6,-6,11,2,4,1,1,4,0.0625,0.783691,0.45459,-10.8125,2.5,-14.6875,1.04576,-0.0682656,-2.47638
327,-2,5,-7,-2,-1,-3,0,0,0.0625,0.783691,0.45459,-10.8125,2.5,-14.6875,1.04576,-0.0682656,-2.47638
328,-6,-3,-1,-1,-1,0,-3,-3,0.0625,0.783691,0.45459,-10.8125,2.5,-14.6875,1.04576,-0.0682656,-2.47638
328,-3,15,4,1,2,-2,1,0,0.0625,0.783691,0.45459,-10.8125,2.5,-14.6875,1.04576,-0.0682656,-2.47638
334,7,-97,-8,2,0,-1,-1,0,0.0322266,0.755859,0.44873,-9.6875,3.4375,-14.125,1.04233,-0.0628545,-2.47796
334,-4,60,5,0,-1,0,-2,-5,0.0322266,0.755859,0.44873,-9.6875,3.4375,-14.125,1.04233,-0.0628545,-2.47796
334,-6,39,13,-5,-5,-2,-4,-3,0.0322266,0.755859,0.44873,-9.6875,3.4375,-14.125,1.04233,-0.0628545,-2.47796
334,-2,-48,-25,-9,-4,-5,-2,-2,0.0322266,0.755859,0.44873,-9.6875,3.4375,-14.125,1.04233,-0.0628545,-2.47796
372,4,38,11,1,-1,-1,2,1,0.0385742,0.733887,0.456543,-6.8125,1.5,-13.1875,1.03963,-0.0583274,-2.47976
372,3,-16,-10,7,3,1,0,1,0.0385742,0.733887,0.456543,-6.8125,1.5,-13.1875,1.03963,-0.0583274,-2.47976
373,-5,-7,-3,1,-1,1,1,-2,0.0385742,0.733887,0.456543,-6.8125,1.5,-13.1875,1.03963,-0.0583274,-2.47976
373,1,25,6,2,1,3,-1,1,0.0385742,0.733887,0.456543,-6.8125,1.5,-13.1875,1.03963,-0.0583274,-2.47976
379,-3,-1,2,-6,-4,-3,-4,-2,0.03125,0.761719,0.448242,-3.9375,1.125,-11.5,1.03829,-0.0542424,-2.48138
379,-5,-27,-8,-5,-1,-2,-2,-3,0.03125,0.761719,0.448242,-3.9375,1.125,-11.5,1.03829,-0.0542424,-2.48138
380,0,7,8,4,2,1,2,-1,0.03125,0.761719,0.448242,-3.9375,1.125,-11.5,1.03829,-0.0542424,-2.48138
380,-13,-13,-24,-4,1,-1,-2,-4,0.03125,0.761719,0.448242,-3.9375,1.125,-11.5,1.03829,-0.0542424,-2.48138
396,6,-17,-9,0,-3,-3,2,-2,0.0141602,0.789551,0.423828,-5.4375,-1,-6,1.03734,-0.0519078,-2.48281
396,-2,-29,-7,-8,-4,-3,-2,-4,0.0141602,0.789551,0.423828,-5.4375,-1,-6,1.03734,-0.0519078,-2.48281
396,-1,-5,-11,-7,-3,-1,-2,0,0.0141602,0.789551,0.423828,-5.4375,-1,-6,1.03734,-0.0519078,-2.48281
396,7,29,16,1,-1,-1,1,1,0.0141602,0.789551,0.423828,-5.4375,-1,-6,1.03734,-0.0519078,-2.48281
417,1,29,11,1,0,2,-1,1,0.027832,0.771973,0.437012,-10.3125,-3.4375,0.8125,1.03437,-0.0522262,-2.48375
417,1,26,12,-2,-6,-3,-2,-1,0.027832,0.771973,0.437012,-10.3125,-3.4375,0.8125,1.03437,-0.0522262,-2.48375
417,5,-23,-24,-3,-2,-2,-2,0,0.027832,0.771973,0.437012,-10.3125,-3.4375,0.8125,1.03437,-0.0522262,-2.48375
417,-11,-23,10,1,-3,-2,-1,-3,0.027832,0.771973,0.437012,-10.3125,-3.4375,0.8125,1.03437,-0.0522262,-2.48375
439,8,27,0,1,1,2,-1,-1,0.0263672,0.722656,0.459473,-18.25,-4.5625,6.875,1.02748,-0.0545836,-2.48389
439,-1,-23,3,4,1,0,-2,-1,0.0263672,0.722656,0.459473,-18.25,-4.5625,6.875,1.02748,-0.0545836,-2.48389
440,-5,-7,14,3,1,-1,2,1,0.0263672,0.722656,0.459473,-18.25,-4.5625,6.875,1.02748,-0.0545836,-2.48389
440,2,39,12,2,3,0,-1,2,0.0263672,0.722656,0.459473,-18.25,-4.5625,6.875,1.02748,-0.0545836,-2.48389
453,-21,-90,-31,-13,-10,-4,-4,-8,0.0161133,0.693848,0.486328,-9.625,-7.4375,10.375,1.02282,-0.0582892,-2.48405
453,-1,10,3,0,-5,-1,-1,-1,0.0161133,0.693848,0.486328,-9.625,-7.4375,10.375,1.02282,-0.0582892,-2.48405
455,3,17,-2,-3,2,2,1,-1,0.0161133,0.693848,0.486328,-9.625,-7.4375,10.375,1.02282,-0.0582892,-2.48405
455,-1,-12,-7,1,3,1,2,2,0.0161133,0.693848,0.486328,-9.625,-7.4375,10.375,1.02282,-0.0582892,-2.48405
477,14,13,6,2,2,-2,0,0,0.0390625,0.682617,0.480957,0.25,-11.3125,13.5,1.02172,-0.0640334,-2.48491
477,1,13,3,-2,-2,-1,0,1,0.0390625,0.682617,0.480957,0.25,-11.3125,13.5,1.02172,-0.0640334,-2.48491
477,-3,-19,6,4,-2,-3,-1,-3,0.0390625,0.682617,0.480957,0.25,-11.3125,13.5,1.02172,-0.0640334,-2.48491
477,-13,-15,-20,-2,2,3,0,-7,0.0390625,0.682617,0.480957,0.25,-11.3125,13.5,1.02172,-0.0640334,-2.48491
499,10,8,-9,2,3,1,0,1,0.0571289,0.739258,0.489258,-1.4375,-12,16.8125,1.02039,-0.0710704,-2.48536
499,-2,49,11,-2,-1,-2,-1,-2,0.0571289,0.739258,0.489258,-1.4375,-12,16.8125,1.02039,-0.0710704,-2.48536
500,0,0,9,-1,-5,-4,-2,-2,0.0571289,0.739258,0.489258,-1.4375,-12,16.8125,1.02039,-0.0710704,-2.48536
500,-4,-38,-14,-5,-4,-2,-1,-1,0.0571289,0.739258,0.489258,-1.4375,-12,16.8125,1.02039,-0.0710704,-2.48536
514,-11,19,4,-2,-3,0,-1,0,0.0678711,0.746094,0.505371,-1.625,-12.375,19.4375,1.01888,-0.0790316,-2.4854
514,-1,-16,-1,5,3,0,0,1,0.0678711,0.746094,0.505371,-1.625,-12.375,19.4375,1.01888,-0.0790316,-2.4854
515,4,7,-21,-3,0,0,0,2,0.0678711,0.746094,0.505371,-1.625,-12.375,19.4375,1.01888,-0.0790316,-2.4854
515,13,42,17,-4,-7,-1,-1,1,0.0678711,0.746094,0.505371,-1.625,-12.375,19.4375,1.01888,-0.0790316,-2.4854
538,-23,-35,-7,1,6,1,0,-3,0.108398,0.758789,0.500488,-2.875,-10.625,18.8125,1.01716,-0.0872627,-2.48501
538,8,15,13,2,1,-1,-1,0,0.108398,0.758789,0.500488,-2.875,-10.625,18.8125,1.01716,-0.0872627,-2.48501
539,-2,-27,38,4,-8,-6,-4,-2,0.108398,0.758789,0.500488,-2.875,-10.625,18.8125,1.01716,-0.0872627,-2.48501
539,-9,-23,-49,2,5,0,-1,-3,0.108398,0.758789,0.500488,-2.875,-10.625,18.8125,1.01716,-0.0872627,-2.48501
559,18,31,3,1,-1,-1,5,6,0.119141,0.780273,0.477539,-0.625,-6.25,17.1875,1.01705,-0.0943808,-2.48381
559,-1,-35,-19,-7,-1,-2,-3,-3,0.119141,0.780273,0.477539,-0.625,-6.25,17.1875,1.01705,-0.0943808,-2.48381
559,-6,16,5,0,1,1,0,0,0.119141,0.780273,0.477539,-0.625,-6.25,17.1875,1.01705,-0.0943808,-2.48381
559,-4,-8,-2,-3,-4,-4,-1,-2,0.119141,0.780273,0.477539,-0.625,-6.25,17.1875,1.01705,-0.0943808,-2.48381
582,13,42,40,4,-2,-2,-2,1,0.105469,0.763184,0.42627,0.5,-4.6875,16.5,1.01802,-0.100483,-2.48219
582,0,-94,-53,2,6,4,3,5,0.105469,0.763184,0.42627,0.5,-4.6875,16.5,1.01802,-0.100483,-2.48219
583,-7,80,29,-9,-7,-5,-6,-9,0.105469,0.763184,0.42627,0.5,-4.6875,16.5,1.01802,-0.100483,-2.48219
583,-6,-13,10,0,-3,1,-2,-2,0.105469,0.763184,0.42627,0.5,-4.6875,16.5,1.01802,-0.100483,-2.48219
605,-5,2,-6,-1,0,2,-1,0,0.0986328,0.768555,0.505859,-10.625,-3.9375,19.6875,1.01344,-0.107086,-2.47973
605,1,1,-9,-1,-2,0,1,1,0.0986328,0.768555,0.505859,-10.625,-3.9375,19.6875,1.01344,-0.107086,-2.47973
605,5,-23,-26,1,2,1,1,3,0.0986328,0.768555,0.505859,-10.625,-3.9375,19.6875,1.01344,-0.107086,-2.47973
605,0,14,15,-3,-2,-2,-2,-2,0.0986328,0.768555,0.505859,-10.625,-3.9375,19.6875,1.01344,-0.107086,-2.47973
619,-8,12,9,0,-4,-3,-1,-7,0.0717773,0.72168,0.468262,-6,-3.25,19.6875,1.0106,-0.112894,-2.47686
619,4,0,2,3,1,1,2,-1,0.0717773,0.72168,0.468262,-6,-3.25,19.6875,1.0106,-0.112894,-2.47686
619,-1,-15,-17,-1,2,1,-1,-1,0.0717773,0.72168,0.468262,-6,-3.25,19.6875,1.0106,-0.112894,-2.47686
619,5,12,8,-1,-1,-2,-2,0,0.0717773,0.72168,0.468262,-6,-3.25,19.6875,1.0106,-0.112894,-2.47686
633,0,-18,-18,-5,-1,-1,1,0,0.101562,0.777832,0.486816,6.0625,-1.6875,15.125,1.01246,-0.117541,-2.47458
633,1,20,20,7,1,0,0,1,0.101562,0.777832,0.486816,6.0625,-1.6875,15.125,1.01246,-0.117541,-2.47458
649,-18,-49,-30,-11,-9,-3,-2,-6,0.101562,0.777832,0.486816,6.0625,-1.6875,15.125,1.01246,-0.117541,-2.47458
649,-1,-4,4,0,1,1,1,-1,0.101562,0.777832,0.486816,6.0625,-1.6875,15.125,1.01246,-0.117541,-2.47458
656,1,8,0,0,1,0,-2,-3,0.0996094,0.83252,0.519043,5.6875,0.375,12.75,1.01415,-0.120791,-2.47203
656,-10,29,-1,-5,-5,-4,-1,-1,0.0996094,0.83252,0.519043,5.6875,0.375,12.75,1.01415,-0.120791,-2.47203
657,12,7,10,-1,1,1,1,3,0.0996094,0.83252,0.519043,5.6875,0.375,12.75,1.01415,-0.120791,-2.47203
657,-2,-26,13,2,-2,-4,-1,-1,0.0996094,0.83252,0.519043,5.6875,0.375,12.75,1.01415,-0.120791,-2.47203
679,-8,-62,-26,-6,-3,-4,-3,-5,0.0976562,0.765625,0.495605,-2.9375,-2.125,12.6875,1.01259,-0.124584,-2.47024
679,-2,27,3,-1,0,-1,-1,-1,0.0976562,0.765625,0.495605,-2.9375,-2.125,12.6875,1.01259,-0.124584,-2.47024
679,1,-10,-6,1,2,1,0,1,0.0976562,0.765625,0.495605,-2.9375,-2.125,12.6875,1.01259,-0.124584,-2.47024
679,3,8,2,-3,-4,0,-1,1,0.0976562,0.765625,0.495605,-2.9375,-2.125,12.6875,1.01259,-0.124584,-2.47024
693,-2,36,26,6,5,0,-1,1,0.137207,0.727539,0.480957,-10.625,-4.1875,9.375,1.00836,-0.128692,-2.46972
693,-2,-17,-9,-4,-1,0,-2,-4,0.137207,0.727539,0.480957,-10.625,-4.1875,9.375,1.00836,-0.128692,-2.46972
700,-1,-44,-9,0,-2,0,-1,-1,0.137207,0.727539,0.480957,-10.625,-4.1875,9.375,1.00836,-0.128692,-2.46972
700,9,12,-2,1,2,0,1,0,0.137207,0.727539,0.480957,-10.625,-4.1875,9.375,1.00836,-0.128692,-2.46972
716,-6,37,8,-5,-6,-2,-1,-3,0.150879,0.796387,0.46875,0.8125,-4.5,7.1875,1.00932,-0.132275,-2.46971
716,0,-9,-9,-5,-4,-3,-1,-2,0.150879,0.796387,0.46875,0.8125,-4.5,7.1875,1.00932,-0.132275,-2.46971
717,-1,-41,-15,-2,2,-3,-1,-1,0.150879,0.796387,0.46875,0.8125,-4.5,7.1875,1.00932,-0.132275,-2.46971
717,-7,-15,2,2,1,0,-1,-2,0.150879,0.796387,0.46875,0.8125,-4.5,7.1875,1.00932,-0.132275,-2.46971
739,-8,-45,-14,0,1,-1,1,0,0.143555,0.804688,0.449707,1.9375,-4.0625,7.875,1.01108,-0.135794,-2.46961
739,17,2,5,-1,-1,0,-1,1,0.143555,0.804688,0.449707,1.9375,-4.0625,7.875,1.01108,-0.135794,-2.46961
740,-3,49,4,-5,-4,-2,-1,-3,0.143555,0.804688,0.449707,1.9375,-4.0625,7.875,1.01108,-0.135794,-2.46961
740,0,-3,-5,-1,-1,1,-1,0,0.143555,0.804688,0.449707,1.9375,-4.0625,7.875,1.01108,-0.135794,-2.46961
753,-1,4,5,-1,-1,0,-2,-2,0.145996,0.783691,0.453613,-8.75,-6,5.1875,1.00906,-0.139012,-2.47058
753,-4,-17,7,3,3,2,1,2,0.145996,0.783691,0.453613,-8.75,-6,5.1875,1.00906,-0.139012,-2.47058
761,10,31,5,6,3,0,2,3,0.145996,0.783691,0.453613,-8.75,-6,5.1875,1.00906,-0.139012,-2.47058
761,-12,-31,-7,-4,-2,-5,-1,-3,0.145996,0.783691,0.453613,-8.75,-6,5.1875,1.00906,-0.139012,-2.47058
777,6,30,12,-1,-1,-2,-3,0,0.164062,0.736816,0.462402,-5.8125,-6.6875,2.375,1.0072,-0.141822,-2.47203
777,-6,-54,-23,-8,-5,-5,-3,-2,0.164062,0.736816,0.462402,-5.8125,-6.6875,2.375,1.0072,-0.141822,-2.47203
777,-4,37,0,-1,1,1,-1,1,0.164062,0.736816,0.462402,-5.8125,-6.6875,2.375,1.0072,-0.141822,-2.47203
777,0,-36,-11,-5,-3,-1,-2,-2,0.164062,0.736816,0.462402,-5.8125,-6.6875,2.375,1.0072,-0.141822,-2.47203
799,-4,-5,-2,2,0,0,-1,0,0.150391,0.732422,0.499512,0.1875,-7.3125,1.25,1.00689,-0.144176,-2.4739
799,2,-12,4,2,1,0,-1,0,0.150391,0.732422,0.499512,0.1875,-7.3125,1.25,1.00689,-0.144176,-2.4739
800,-6,18,4,-1,-1,-3,-2,-3,0.150391,0.732422,0.499512,0.1875,-7.3125,1.25,1.00689,-0.144176,-2.4739
800,3,-8,1,-2,-2,0,-2,2,0.150391,0.732422,0.499512,0.1875,-7.3125,1.25,1.00689,-0.144176,-2.4739
813,5,40,3,-2,0,0,0,-1,0.122559,0.756348,0.503906,3.5,-6.9375,-0.8125,1.00788,-0.144912,-2.47607
813,-6,-14,0,-2,-2,0,-1,-3,0.122559,0.756348,0.503906,3.5,-6.9375,-0.8125,1.00788,-0.144912,-2.47607
820,10,14,-5,0,0,0,0,0,0.122559,0.756348,0.503906,3.5,-6.9375,-0.8125,1.00788,-0.144912,-2.47607
820,-1,22,13,0,-2,-2,0,-1,0.122559,0.756348,0.503906,3.5,-6.9375,-0.8125,1.00788,-0.144912,-2.47607
838,1,-47,-15,-2,-4,-1,1,-2,0.097168,0.772949,0.492188,5.0625,-7.3125,-0.1875,1.0097,-0.145416,-2.47816
838,-20,27,0,-2,1,-1,-1,-4,0.097168,0.772949,0.492188,5.0625,-7.3125,-0.1875,1.0097,-0.145416,-2.47816
839,0,-10,2,1,-1,0,0,-1,0.097168,0.772949,0.492188,5.0625,-7.3125,-0.1875,1.0097,-0.145416,-2.47816
839,0,18,-3,0,-1,-1,-2,-4,0.097168,0.772949,0.492188,5.0625,-7.3125,-0.1875,1.0097,-0.145416,-2.47816
859,0,-7,8,2,-1,1,0,1,0.111816,0.75,0.48877,0.3125,-6.8125,-1.1875,1.00978,-0.145814,-2.48035
859,-2,3,3,0,-3,-4,-1,0,0.111816,0.75,0.48877,0.3125,-6.8125,-1.1875,1.00978,-0.145814,-2.48035
860,-3,-21,-5,-1,0,-1,-1,-2,0.111816,0.75,0.48877,0.3125,-6.8125,-1.1875,1.00978,-0.145814,-2.48035
860,-4,0,2,3,-1,-1,1,-1,0.111816,0.75,0.48877,0.3125,-6.8125,-1.1875,1.00978,-0.145814,-2.48035
882,7,9,5,0,2,1,1,0,0.141602,0.751465,0.480957,1.6875,-5.8125,-2.375,1.01054,-0.146442,-2.48259
882,3,-11,-7,-1,-3,-2,-1,0,0.141602,0.751465,0.480957,1.6875,-5.8125,-2.375,1.01054,-0.146442,-2.48259
882,-13,-18,-5,0,1,-2,1,0,0.141602,0.751465,0.480957,1.6875,-5.8125,-2.375,1.01054,-0.146442,-2.48259
882,-4,40,15,-1,0,-2,0,1,0.141602,0.751465,0.480957,1.6875,-5.8125,-2.375,1.01054,-0.146442,-2.48259
905,0,-17,-11,-7,-6,-5,-5,-6,0.150391,0.768066,0.479492,12.3125,-3,-5,1.01498,-0.145945,-2.48434
905,-7,-20,-11,-5,0,0,-2,-4,0.150391,0.768066,0.479492,12.3125,-3,-5,1.01498,-0.145945,-2.48434
905,3,1,-3,0,-1,0,-3,-3,0.150391,0.768066,0.479492,12.3125,-3,-5,1.01498,-0.145945,-2.48434
905,0,-10,1,2,-1,1,-1,1,0.150391,0.768066,0.479492,12.3125,-3,-5,1.01498,-0.145945,-2.48434
927,-3,19,6,4,-1,0,1,3,0.154785,0.764648,0.477539,17.9375,-2.25,-8.0625,1.02145,-0.144558,-2.4864
927,1,26,4,-3,-4,-1,-3,-3,0.154785,0.764648,0.477539,17.9375,-2.25,-8.0625,1.02145,-0.144558,-2.4864
927,2,-22,0,-1,0,-1,-1,-1,0.154785,0.764648,0.477539,17.9375,-2.25,-8.0625,1.02145,-0.144558,-2.4864
927,-1,27,-1,0,3,0,-1,-1,0.154785,0.764648,0.477539,17.9375,-2.25,-8.0625,1.02145,-0.144558,-2.4864
934,-1,3,-8,-2,-1,-4,-5,-4,0.15918,0.762695,0.437012,10.75,-3.4375,-9.0625,1.02603,-0.143214,-2.48914
934,3,-1,4,-2,0,0,1,0,0.15918,0.762695,0.437012,10.75,-3.4375,-9.0625,1.02603,-0.143214,-2.48914
949,-2,5,7,2,-3,-2,-1,0,0.15918,0.762695,0.437012,10.75,-3.4375,-9.0625,1.02603,-0.143214,-2.48914
949,5,7,-1,0,-4,-3,-1,-2,0.15918,0.762695,0.437012,10.75,-3.4375,-9.0625,1.02603,-0.143214,-2.48914
957,-5,-44,-8,0,1,1,0,0,0.144043,0.775879,0.453125,9.3125,-4.5625,-6.8125,1.03002,-0.142399,-2.49187
957,-1,3,0,1,1,0,0,-1,0.144043,0.775879,0.453125,9.3125,-4.5625,-6.8125,1.03002,-0.142399,-2.49187
958,5,27,4,0,-2,2,-1,1,0.144043,0.775879,0.453125,9.3125,-4.5625,-6.8125,1.03002,-0.142399,-2.49187
958,4,7,4,-2,-3,-2,-1,-2,0.144043,0.775879,0.453125,9.3125,-4.5625,-6.8125,1.03002,-0.142399,-2.49187
979,-7,-39,-10,-3,-5,-1,0,0,0.130859,0.807617,0.480469,14,-4,-8.1875,1.03521,-0.140613,-2.49446
979,2,20,8,2,1,1,0,-1,0.130859,0.807617,0.480469,14,-4,-8.1875,1.03521,-0.140613,-2.49446
979,0,-13,-3,-1,0,-2,1,1,0.130859,0.807617,0.480469,14,-4,-8.1875,1.03521,-0.140613,-2.49446
979,2,9,-8,-1,-1,-4,-2,0,0.130859,0.807617,0.480469,14,-4,-8.1875,1.03521,-0.140613,-2.49446
1002,-1,38,15,-2,-1,0,-2,-1,0.111816,0.796875,0.480469,10.875,-2.6875,-12.125,1.03921,-0.137107,-2.49747
1002,-3,-10,-6,-1,0,0,-2,-3,0.111816,0.796875,0.480469,10.875,-2.6875,-12.125,1.03921,-0.137107,-2.49747
1002,-7,5,8,0,0,0,0,1,0.111816,0.796875,0.480469,10.875,-2.6875,-12.125,1.03921,-0.137107,-2.49747
1002,5,6,0,-3,-1,1,0,-2,0.111816,0.796875,0.480469,10.875,-2.6875,-12.125,1.03921,-0.137107,-2.49747
1018,-2,-30,-26,-5,-6,-4,-2,-5,0.0966797,0.773438,0.446777,3.4375,-4.125,-11.5625,1.041,-0.133754,-2.5008
1018,2,35,2,0,-1,-1,0,1,0.0966797,0.773438,0.446777,3.4375,-4.125,-11.5625,1.041,-0.133754,-2.5008
1018,-11,-19,-7,-4,-1,-3,-2,-3,0.0966797,0.773438,0.446777,3.4375,-4.125,-11.5625,1.041,-0.133754,-2.5008
1018,-3,1,7,0,0,-2,0,1,0.0966797,0.773438,0.446777,3.4375,-4.125,-11.5625,1.041,-0.133754,-2.5008
1039,-3,13,3,1,0,0,-2,-2,0.12207,0.780273,0.44873,4.4375,-5.125,-11.3125,1.04308,-0.131242,-2.50432
1039,0,10,8,0,3,0,-2,-2,0.12207,0.780273,0.44873,4.4375,-5.125,-11.3125,1.04308,-0.131242,-2.50432
1039,2,-25,-10,-2,-2,1,0,-3,0.12207,0.780273,0.44873,4.4375,-5.125,-11.3125,1.04308,-0.131242,-2.50432
1039,-2,-22,-4,-2,-2,-1,0,0,0.12207,0.780273,0.44873,4.4375,-5.125,-11.3125,1.04308,-0.131242,-2.50432
1069,0,20,-1,-4,-1,-2,0,0,0.125488,0.779785,0.459473,5.125,-4.25,-11.4375,1.04521,-0.128746,-2.50763
1069,0,-36,-10,5,3,-1,2,1,0.125488,0.779785,0.459473,5.125,-4.25,-11.4375,1.04521,-0.128746,-2.50763
1070,6,33,20,-5,-4,-2,-4,-5,0.125488,0.779785,0.459473,5.125,-4.25,-11.4375,1.04521,-0.128746,-2.50763
1070,-2,3,0,3,-1,1,-1,-2,0.125488,0.779785,0.459473,5.125,-4.25,-11.4375,1.04521,-0.128746,-2.50763
1078,-4,-46,-12,-3,-3,1,0,1,0.132324,0.780273,0.450684,6.5,-4.5,-12.5625,1.04791,-0.126282,-2.51126
1078,5,5,4,-1,-3,-3,0,1,0.132324,0.780273,0.450684,6.5,-4.5,-12.5625,1.04791,-0.126282,-2.51126
1079,0,-19,-10,-1,0,-1,0,1,0.132324,0.780273,0.450684,6.5,-4.5,-12.5625,1.04791,-0.126282,-2.51126
1079,-17,-5,-6,-2,-1,0,-2,-1,0.132324,0.780273,0.450684,6.5,-4.5,-12.5625,1.04791,-0.126282,-2.51126
1099,7,32,15,4,0,-1,-1,0,0.144043,0.785645,0.439941,5.625,-3.6875,-12.5,1.05042,-0.12392,-2.51448
1099,-3,-31,-7,-3,-2,-1,-3,-1,0.144043,0.785645,0.439941,5.625,-3.6875,-12.5,1.05042,-0.12392,-2.51448
1115,-9,-12,-8,0,-1,1,-2,-2,0.144043,0.785645,0.439941,5.625,-3.6875,-12.5,1.05042,-0.12392,-2.51448
1115,8,3,-1,-2,-1,-1,-1,-1,0.144043,0.785645,0.439941,5.625,-3.6875,-12.5,1.05042,-0.12392,-2.51448
1121,-6,14,1,1,1,0,1,1,0.128418,0.804199,0.429199,-0.6875,-2.625,-10.4375,1.05123,-0.121592,-2.51721
1121,6,3,5,-3,-2,-2,-2,-1,0.128418,0.804199,0.429199,-0.6875,-2.625,-10.4375,1.05123,-0.121592,-2.51721
1122,-3,18,-3,-1,-2,-2,2,-1,0.128418,0.804199,0.429199,-0.6875,-2.625,-10.4375,1.05123,-0.121592,-2.51721
1122,5,-5,-1,-1,1,0,0,1,0.128418,0.804199,0.429199,-0.6875,-2.625,-10.4375,1.05123,-0.121592,-2.51721
1144,-6,-16,-2,-3,-2,-1,-1,-2,0.110352,0.798828,0.433594,-2.9375,-1.3125,-9.875,1.05096,-0.11887,-2.51937
1144,0,17,2,0,-3,-2,1,-2,0.110352,0.798828,0.433594,-2.9375,-1.3125,-9.875,1.05096,-0.11887,-2.51937
1145,1,-12,-2,0,1,0,0,-1,0.110352,0.798828,0.433594,-2.9375,-1.3125,-9.875,1.05096,-0.11887,-2.51937
1145,-1,-21,-4,4,-1,0,-1,1,0.110352,0.798828,0.433594,-2.9375,-1.3125,-9.875,1.05096,-0.11887,-2.51937
1167,6,49,1,-1,-2,-1,-2,-1,0.0952148,0.774902,0.428223,-2.875,1.0625,-8.4375,1.05047,-0.115965,-2.52053
1167,-6,17,15,-1,1,0,-1,-1,0.0952148,0.774902,0.428223,-2.875,1.0625,-8.4375,1.05047,-0.115965,-2.52053
1168,3,21,-4,-2,1,-1,-1,-2,0.0952148,0.774902,0.428223,-2.875,1.0625,-8.4375,1.05047,-0.115965,-2.52053
1168,-10,-25,-8,-5,-3,-3,-2,-5,0.0952148,0.774902,0.428223,-2.875,1.0625,-8.4375,1.05047,-0.115965,-2.52053
1182,-3,-3,-1,0,2,-3,0,1,0.0854492,0.790527,0.443848,-3.125,2.5625,-6.375,1.04956,-0.11317,-2.52098
1182,-1,-5,-8,1,-5,-2,-3,-1,0.0854492,0.790527,0.443848,-3.125,2.5625,-6.375,1.04956,-0.11317,-2.52098
1182,-1,-2,3,0,0,0,-1,1,0.0854492,0.790527,0.443848,-3.125,2.5625,-6.375,1.04956,-0.11317,-2.52098
1182,5,7,8,0,0,0,-1,1,0.0854492,0.790527,0.443848,-3.125,2.5625,-6.375,1.04956,-0.11317,-2.52098
1205,1,-22,-12,-4,-2,-1,-1,0,0.0717773,0.790039,0.449707,-5.1875,4.3125,-3.125,1.04785,-0.110723,-2.52013
1205,-3,12,4,-4,-1,0,0,0,0.0717773,0.790039,0.449707,-5.1875,4.3125,-3.125,1.04785,-0.110723,-2.52013
1206,0,-13,-2,-1,0,-2,0,-6,0.0717773,0.790039,0.449707,-5.1875,4.3125,-3.125,1.04785,-0.110723,-2.52013
1206,-8,-1,-1,-2,-3,-3,-1,0,0.0717773,0.790039,0.449707,-5.1875,4.3125,-3.125,1.04785,-0.110723,-2.52013
1228,27,7,6,3,1,-2,0,1,0.0722656,0.784668,0.450195,-9.6875,5.375,0.3125,1.04443,-0.10934,-2.51846
1228,-10,3,-6,-1,-2,0,-2,-6,0.0722656,0.784668,0.450195,-9.6875,5.375,0.3125,1.04443,-0.10934,-2.51846
1228,-4,-61,-12,-3,-3,-2,-1,1,0.0722656,0.784668,0.450195,-9.6875,5.375,0.3125,1.04443,-0.10934,-2.51846
1228,5,13,-3,0,-1,0,1,1,0.0722656,0.784668,0.450195,-9.6875,5.375,0.3125,1.04443,-0.10934,-2.51846
1241,-12,6,10,2,1,-1,-1,-3,0.0917969,0.773438,0.459473,-11.5625,7.125,1.6875,1.03995,-0.108367,-2.51592
1241,7,9,-2,0,1,-1,1,1,0.0917969,0.773438,0.459473,-11.5625,7.125,1.6875,1.03995,-0.108367,-2.51592
1242,-2,2,-5,-1,-1,-1,0,0,0.0917969,0.773438,0.459473,-11.5625,7.125,1.6875,1.03995,-0.108367,-2.51592
1242,-2,7,4,-2,0,-2,-2,-2,0.0917969,0.773438,0.459473,-11.5625,7.125,1.6875,1.03995,-0.108367,-2.51592
1264,0,-13,-6,0,-4,-3,-1,-1,0.0966797,0.764648,0.453125,-11,9.8125,4.375,1.03582,-0.107903,-2.51224
1264,-5,-8,-6,-7,-4,-2,-3,1,0.0966797,0.764648,0.453125,-11,9.8125,4.375,1.03582,-0.107903,-2.51224
1265,10,10,5,9,2,1,0,0,0.0966797,0.764648,0.453125,-11,9.8125,4.375,1.03582,-0.107903,-2.51224
1265,-3,-3,-2,-2,-1,0,1,-1,0.0966797,0.764648,0.453125,-11,9.8125,4.375,1.03582,-0.107903,-2.51224
1279,-10,-9,2,1,1,1,1,-1,0.0883789,0.76709,0.460938,-8,11,6.0625,1.03244,-0.107683,-2.50779
1279,0,9,1,-4,-3,-2,-2,-1,0.0883789,0.76709,0.460938,-8,11,6.0625,1.03244,-0.107683,-2.50779
1287,-28,-12,1,-2,-1,-1,-2,-5,0.0883789,0.76709,0.460938,-8,11,6.0625,1.03244,-0.107683,-2.50779
1287,16,7,-9,-3,-2,-1,0,-2,0.0883789,0.76709,0.460938,-8,11,6.0625,1.03244,-0.107683,-2.50779
1302,1,-6,2,2,2,1,0,1,0.102539,0.768066,0.47998,-4.6875,11.75,6.5625,1.02979,-0.107617,-2.50294
1302,-6,-4,0,1,-2,-2,-1,1,0.102539,0.768066,0.47998,-4.6875,11.75,6.5625,1.02979,-0.107617,-2.50294
1302,-3,4,5,-2,-3,0,-1,0,0.102539,0.768066,0.47998,-4.6875,11.75,6.5625,1.02979,-0.107617,-2.50294
1302,-2,-7,-3,-1,-2,0,0,1,0.102539,0.768066,0.47998,-4.6875,11.75,6.5625,1.02979,-0.107617,-2.50294
1325,-4,7,-1,-1,-4,-2,0,-1,0.105957,0.755371,0.479492,-5.75,11.6875,7.75,1.02688,-0.108067,-2.49807
1325,31,-10,9,10,9,3,2,4,0.105957,0.755371,0.479492,-5.75,11.6875,7.75,1.02688,-0.108067,-2.49807
1326,-29,61,-10,-9,-6,-6,-4,-9,0.105957,0.755371,0.479492,-5.75,11.6875,7.75,1.02688,-0.108067,-2.49807
1326,-3,7,5,0,-1,-1,-2,-2,0.105957,0.755371,0.479492,-5.75,11.6875,7.75,1.02688,-0.108067,-2.49807
1338,5,-8,-7,-2,-1,-2,-1,0,0.105957,0.754395,0.490723,-5.5625,11.6875,8.75,1.02365,-0.108708,-2.4929
1338,2,21,0,0,-2,-1,-1,1,0.105957,0.754395,0.490723,-5.5625,11.6875,8.75,1.02365,-0.108708,-2.4929
1347,17,-1,6,3,-1,2,2,2,0.105957,0.754395,0.490723,-5.5625,11.6875,8.75,1.02365,-0.108708,-2.4929
1347,-10,-20,-6,-2,-1,0,0,-1,0.105957,0.754395,0.490723,-5.5625,11.6875,8.75,1.02365,-0.108708,-2.4929
1362,-8,-10,9,-1,-2,-1,-3,-4,0.111328,0.742676,0.484863,-4.9375,11.9375,7.9375,1.02072,-0.109277,-2.48771
1362,-9,-12,-9,-2,-1,0,-6,-5,0.111328,0.742676,0.484863,-4.9375,11.9375,7.9375,1.02072,-0.109277,-2.48771
1363,22,-10,1,-2,1,-2,2,-1,0.111328,0.742676,0.484863,-4.9375,11.9375,7.9375,1.02072,-0.109277,-2.48771
1363,-6,-1,-3,-3,-1,-1,-1,-2,0.111328,0.742676,0.484863,-4.9375,11.9375,7.9375,1.02072,-0.109277,-2.48771
1384,-4,2,6,0,2,0,2,2,0.108398,0.736328,0.495605,-1.8125,10.75,8.625,1.01879,-0.110067,-2.48284
1384,-7,-29,-10,-4,-4,-1,-2,-4,0.108398,0.736328,0.495605,-1.8125,10.75,8.625,1.01879,-0.110067,-2.48284
1385,3,-2,1,-3,-2,-1,0,1,0.108398,0.736328,0.495605,-1.8125,10.75,8.625,1.01879,-0.110067,-2.48284
1385,8,-5,-3,2,1,-1,-1,2,0.108398,0.736328,0.495605,-1.8125,10.75,8.625,1.01879,-0.110067,-2.48284
1399,1,12,-4,0,-1,-2,-2,-1,0.116211,0.737305,0.500488,2.9375,9.9375,5.125,1.01837,-0.110298,-2.47882
1399,-6,8,0,-1,-2,-1,1,0,0.116211,0.737305,0.500488,2.9375,9.9375,5.125,1.01837,-0.110298,-2.47882
1407,2,4,-1,-2,-3,0,-1,1,0.116211,0.737305,0.500488,2.9375,9.9375,5.125,1.01837,-0.110298,-2.47882
1407,-3,-10,1,-1,0,-1,0,-2,0.116211,0.737305,0.500488,2.9375,9.9375,5.125,1.01837,-0.110298,-2.47882
1422,-3,8,-2,0,1,1,-3,-1,0.123535,0.76709,0.490723,3.1875,8.6875,2.375,1.01878,-0.109894,-2.47569
1422,-8,-10,-4,-1,-3,-8,-3,-7,0.123535,0.76709,0.490723,3.1875,8.6875,2.375,1.01878,-0.109894,-2.47569
1422,6,-19,2,1,0,-3,7,6,0.123535,0.76709,0.490723,3.1875,8.6875,2.375,1.01878,-0.109894,-2.47569
1422,-13,23,2,-1,1,-2,-3,-3,0.123535,0.76709,0.490723,3.1875,8.6875,2.375,1.01878,-0.109894,-2.47569
1445,2,-4,1,-4,-4,-2,-2,-1,0.102051,0.776855,0.486328,2.0625,7.4375,1.9375,1.01907,-0.109191,-2.47299
1445,0,18,-5,-3,-3,1,-4,0,0.102051,0.776855,0.486328,2.0625,7.4375,1.9375,1.01907,-0.109191,-2.47299
1445,2,4,3,2,-1,-1,-3,-1,0.102051,0.776855,0.486328,2.0625,7.4375,1.9375,1.01907,-0.109191,-2.47299
1445,3,-6,0,1,-3,-3,-1,0,0.102051,0.776855,0.486328,2.0625,7.4375,1.9375,1.01907,-0.109191,-2.47299
1467,-3,-16,4,5,4,2,1,3,0.090332,0.766602,0.483398,1,6.5,-0.125,1.01906,-0.107794,-2.47109
1467,-8,-9,-9,-4,-2,0,0,-7,0.090332,0.766602,0.483398,1,6.5,-0.125,1.01906,-0.107794,-2.47109
1467,-6,27,-5,-4,-2,0,-4,-3,0.090332,0.766602,0.483398,1,6.5,-0.125,1.01906,-0.107794,-2.47109
1467,4,2,-4,-2,-1,2,3,2,0.090332,0.766602,0.483398,1,6.5,-0.125,1.01906,-0.107794,-2.47109
1482,8,2,0,-1,-3,-1,0,0,0.0834961,0.732422,0.47998,5.375,4.375,-2.0625,1.02019,-0.106167,-2.47008
1482,4,2,7,3,2,0,2,5,0.0834961,0.732422,0.47998,5.375,4.375,-2.0625,1.02019,-0.106167,-2.47008
1482,-1,-16,-4,-1,-1,-1,-2,-1,0.0834961,0.732422,0.47998,5.375,4.375,-2.0625,1.02019,-0.106167,-2.47008
1482,1,0,-5,-3,-2,-1,-2,-1,0.0834961,0.732422,0.47998,5.375,4.375,-2.0625,1.02019,-0.106167,-2.47008
1505,-1,4,5,0,1,-2,0,-3,0.0737305,0.72998,0.45166,4.25,0.4375,-3.0625,1.02161,-0.104779,-2.4706
1505,-8,-11,-5,0,0,1,1,-2,0.0737305,0.72998,0.45166,4.25,0.4375,-3.0625,1.02161,-0.104779,-2.4706
1505,7,-12,6,-2,-3,0,-1,-1,0.0737305,0.72998,0.45166,4.25,0.4375,-3.0625,1.02161,-0.104779,-2.4706
1505,-3,23,-4,-2,-3,-1,-1,-4,0.0737305,0.72998,0.45166,4.25,0.4375,-3.0625,1.02161,-0.104779,-2.4706
1527,-4,14,-6,-2,-2,-2,-2,-3,0.0556641,0.756836,0.461914,6.625,-2.625,-0.75,1.02394,-0.104154,-2.47141
1527,1,-4,-2,0,0,0,0,2,0.0556641,0.756836,0.461914,6.625,-2.625,-0.75,1.02394,-0.104154,-2.47141
1528,-3,-19,0,1,1,-2,-2,-1,0.0556641,0.756836,0.461914,6.625,-2.625,-0.75,1.02394,-0.104154,-2.47141
1528,2,-13,2,-1,1,-2,-1,1,0.0556641,0.756836,0.461914,6.625,-2.625,-0.75,1.02394,-0.104154,-2.47141
1541,-3,17,1,-1,-2,0,0,-2,0.0532227,0.781738,0.462891,9.875,-5.5625,-0.4375,1.02777,-0.104003,-2.47311
1541,7,8,7,1,0,-1,-2,0,0.0532227,0.781738,0.462891,9.875,-5.5625,-0.4375,1.02777,-0.104003,-2.47311
1542,1,34,4,-2,-2,-1,-1,-1,0.0532227,0.781738,0.462891,9.875,-5.5625,-0.4375,1.02777,-0.104003,-2.47311
1542,-5,-21,-9,-3,-1,0,-1,-3,0.0532227,0.781738,0.462891,9.875,-5.5625,-0.4375,1.02777,-0.104003,-2.47311
1565,3,-7,-8,0,-1,-1,-2,1,0.0532227,0.791504,0.453613,7.5625,-5,0.6875,1.031,-0.104101,-2.47452
1565,-9,-11,-1,-1,0,-2,1,-3,0.0532227,0.791504,0.453613,7.5625,-5,0.6875,1.031,-0.104101,-2.47452
1565,-1,-13,1,4,1,0,-1,-1,0.0532227,0.791504,0.453613,7.5625,-5,0.6875,1.031,-0.104101,-2.47452
1565,1,2,6,-1,-2,-1,-1,0,0.0532227,0.791504,0.453613,7.5625,-5,0.6875,1.031,-0.104101,-2.47452
1587,-2,-15,-17,-6,-2,-1,-2,-1,0.0561523,0.769043,0.453125,7.5,-4.625,3.25,1.03377,-0.104946,-2.47536
1587,0,37,18,-1,0,-1,0,-3,0.0561523,0.769043,0.453125,7.5,-4.625,3.25,1.03377,-0.104946,-2.47536
1588,-1,-5,-7,-2,0,-4,-3,-3,0.0561523,0.769043,0.453125,7.5,-4.625,3.25,1.03377,-0.104946,-2.47536
1588,-1,5,1,3,0,0,-1,0,0.0561523,0.769043,0.453125,7.5,-4.625,3.25,1.03377,-0.104946,-2.47536
1602,-2,-6,3,-2,0,-1,0,0,0.0664062,0.759277,0.456055,8.375,-4.375,5.625,1.03661,-0.106736,-2.4756
1602,8,-2,-2,2,1,-1,1,0,0.0664062,0.759277,0.456055,8.375,-4.375,5.625,1.03661,-0.106736,-2.4756
1602,-6,0,-5,-4,-3,-2,0,1,0.0664062,0.759277,0.456055,8.375,-4.375,5.625,1.03661,-0.106736,-2.4756
1602,4,-6,-4,1,-3,-2,-2,1,0.0664062,0.759277,0.456055,8.375,-4.375,5.625,1.03661,-0.106736,-2.4756
1624,0,0,11,1,3,-1,-1,-2,0.0898438,0.785645,0.463379,11.375,-2.125,5.3125,1.04046,-0.108506,-2.47528
1624,1,-2,-2,1,-2,-2,-2,2,0.0898438,0.785645,0.463379,11.375,-2.125,5.3125,1.04046,-0.108506,-2.47528
1626,-6,-1,-3,-4,-2,-1,-2,-3,0.0898438,0.785645,0.463379,11.375,-2.125,5.3125,1.04046,-0.108506,-2.47528
1626,3,-6,0,3,0,-1,-1,0,0.0898438,0.785645,0.463379,11.375,-2.125,5.3125,1.04046,-0.108506,-2.47528
1647,-1,-10,-4,-1,-4,-3,-2,-1,0.0952148,0.812988,0.449707,11.3125,0.0625,5.5625,1.04482,-0.109982,-2.47431
1647,1,15,1,-6,-2,-3,-2,-1,0.0952148,0.812988,0.449707,11.3125,0.0625,5.5625,1.04482,-0.109982,-2.47431
1647,3,27,-9,-1,-1,-1,-2,0,0.0952148,0.812988,0.449707,11.3125,0.0625,5.5625,1.04482,-0.109982,-2.47431
1647,-2,-17,2,-3,-3,-2,0,-3,0.0952148,0.812988,0.449707,11.3125,0.0625,5.5625,1.04482,-0.109982,-2.47431
1661,0,-1,1,1,0,2,-1,0,0.115234,0.804199,0.430176,10.25,0.125,5.3125,1.04902,-0.111919,-2.47346
1661,-8,-38,-4,-1,0,1,-1,-1,0.115234,0.804199,0.430176,10.25,0.125,5.3125,1.04902,-0.111919,-2.47346
1662,12,6,7,0,-1,1,0,1,0.115234,0.804199,0.430176,10.25,0.125,5.3125,1.04902,-0.111919,-2.47346
1662,-1,32,-4,-2,1,0,0,-1,0.115234,0.804199,0.430176,10.25,0.125,5.3125,1.04902,-0.111919,-2.47346
1685,-3,-5,-4,0,0,1,1,-1,0.141602,0.803223,0.444336,9.0625,0.625,4.8125,1.05242,-0.11412,-2.4724
1685,-3,-3,2,2,-1,0,0,-1,0.141602,0.803223,0.444336,9.0625,0.625,4.8125,1.05242,-0.11412,-2.4724
1685,-2,-9,-8,-2,-1,-1,-1,0,0.141602,0.803223,0.444336,9.0625,0.625,4.8125,1.05242,-0.11412,-2.4724
1685,-12,-6,-1,-4,-3,-2,-2,-2,0.141602,0.803223,0.444336,9.0625,0.625,4.8125,1.05242,-0.11412,-2.4724
1707,4,4,5,0,-2,-3,-1,-2,0.159668,0.802246,0.439941,6.8125,0.8125,2.75,1.0549,-0.116054,-2.47167
1707,-2,-2,-6,-1,-2,1,-1,0,0.159668,0.802246,0.439941,6.8125,0.8125,2.75,1.0549,-0.116054,-2.47167
1708,-4,-10,-4,0,-2,-1,-1,-2,0.159668,0.802246,0.439941,6.8125,0.8125,2.75,1.0549,-0.116054,-2.47167
1708,-4,6,10,-2,-2,1,-2,-4,0.159668,0.802246,0.439941,6.8125,0.8125,2.75,1.0549,-0.116054,-2.47167
1722,-3,23,-6,-2,-1,-1,0,-1,0.141602,0.814941,0.433594,3.1875,1.6875,0.9375,1.05654,-0.116922,-2.47099
1722,11,7,-8,-2,-1,0,0,-3,0.141602,0.814941,0.433594,3.1875,1.6875,0.9375,1.05654,-0.116922,-2.47099
1722,-13,-3,11,3,1,-1,0,0,0.141602,0.814941,0.433594,3.1875,1.6875,0.9375,1.05654,-0.116922,-2.47099
1722,-5,-45,-21,-5,-3,-2,0,-3,0.141602,0.814941,0.433594,3.1875,1.6875,0.9375,1.05654,-0.116922,-2.47099
1760,-1,-1,-1,-1,-2,-2,-1,-1,0.118652,0.819824,0.42334,-0.6875,4.125,-0.75,1.05707,-0.116257,-2.47
1760,2,-3,3,-1,-2,-2,-1,0,0.118652,0.819824,0.42334,-0.6875,4.125,-0.75,1.05707,-0.116257,-2.47
1761,0,-5,-3,-2,0,-2,-1,-1,0.118652,0.819824,0.42334,-0.6875,4.125,-0.75,1.05707,-0.116257,-2.47
1761,3,1,3,1,-3,0,0,2,0.118652,0.819824,0.42334,-0.6875,4.125,-0.75,1.05707,-0.116257,-2.47
1767,-6,1,1,-5,1,0,-2,-2,0.11084,0.802246,0.428223,-5,4.375,-1.5,1.05571,-0.115273,-2.46906
1767,-9,-13,-7,-2,0,-1,-1,-2,0.11084,0.802246,0.428223,-5,4.375,-1.5,1.05571,-0.115273,-2.46906
1768,0,6,4,2,2,2,0,-1,0.11084,0.802246,0.428223,-5,4.375,-1.5,1.05571,-0.115273,-2.46906
1768,4,-14,-1,-1,0,-1,-2,-1,0.11084,0.802246,0.428223,-5,4.375,-1.5,1.05571,-0.115273,-2.46906
1782,2,-5,-6,3,-3,0,0,-2,0.109863,0.793457,0.435059,-4.5,5.375,-1.875,1.05436,-0.11393,-2.4677
1782,2,18,-3,-3,-4,-1,-1,0,0.109863,0.793457,0.435059,-4.5,5.375,-1.875,1.05436,-0.11393,-2.4677
1783,1,-4,2,-3,-1,0,-1,-2,0.109863,0.793457,0.435059,-4.5,5.375,-1.875,1.05436,-0.11393,-2.4677
1783,6,17,4,4,2,1,-1,0,0.109863,0.793457,0.435059,-4.5,5.375,-1.875,1.05436,-0.11393,-2.4677
1805,-2,0,-16,-4,-1,0,-1,-1,0.0839844,0.797363,0.4375,-2.3125,6.75,-2.875,1.0537,-0.111447,-2.46621
1805,-1,-5,12,-2,-1,-2,-1,-2,0.0839844,0.797363,0.4375,-2.3125,6.75,-2.875,1.0537,-0.111447,-2.46621
1805,-4,10,-10,-6,-2,0,-3,-2,0.0839844,0.797363,0.4375,-2.3125,6.75,-2.875,1.0537,-0.111447,-2.46621
1805,5,30,5,1,0,-2,1,1,0.0839844,0.797363,0.4375,-2.3125,6.75,-2.875,1.0537,-0.111447,-2.46621
1827,-8,-29,0,-1,-1,-1,0,-1,0.0600586,0.789551,0.446777,-3.4375,6.6875,-3.4375,1.05238,-0.108257,-2.46474
1827,-1,-19,-19,-1,0,0,-1,0,0.0600586,0.789551,0.446777,-3.4375,6.6875,-3.4375,1.05238,-0.108257,-2.46474
1828,-3,12,16,1,-1,0,-1,-1,0.0600586,0.789551,0.446777,-3.4375,6.6875,-3.4375,1.05238,-0.108257,-2.46474
1828,-2,-26,-9,-4,-3,-1,0,-2,0.0600586,0.789551,0.446777,-3.4375,6.6875,-3.4375,1.05238,-0.108257,-2.46474
1842,1,5,11,2,-4,-2,-1,-1,0.0581055,0.773926,0.444336,-3.875,4.375,-1.5625,1.05097,-0.106152,-2.46367
1842,2,6,-4,2,4,3,0,0,0.0581055,0.773926,0.444336,-3.875,4.375,-1.5625,1.05097,-0.106152,-2.46367
1842,-4,15,-6,-1,-2,-1,0,-1,0.0581055,0.773926,0.444336,-3.875,4.375,-1.5625,1.05097,-0.106152,-2.46367
1842,3,8,3,2,2,-1,-1,-1,0.0581055,0.773926,0.444336,-3.875,4.375,-1.5625,1.05097,-0.106152,-2.46367
1864,0,-6,0,-1,0,-2,-1,-2,0.0795898,0.773438,0.444824,-2.25,2.5,-0.25,1.04997,-0.105287,-2.46295
1864,-2,-4,2,-1,-2,-1,1,1,0.0795898,0.773438,0.444824,-2.25,2.5,-0.25,1.04997,-0.105287,-2.46295
1866,5,-10,-3,-1,-3,-1,-2,0,0.0795898,0.773438,0.444824,-2.25,2.5,-0.25,1.04997,-0.105287,-2.46295
1866,1,0,4,0,1,-1,-1,0,0.0795898,0.773438,0.444824,-2.25,2.5,-0.25,1.04997,-0.105287,-2.46295
1887,-2,-3,-7,-3,-1,-1,-1,-2,0.0922852,0.769043,0.445801,-1.3125,1.9375,-0.4375,1.04947,-0.104849,-2.46241
1887,-2,49,6,-6,-4,-2,-3,-4,0.0922852,0.769043,0.445801,-1.3125,1.9375,-0.4375,1.04947,-0.104849,-2.46241
1889,-5,-11,-5,-2,0,-2,-2,-1,0.101562,0.769531,0.449219,-2.0625,1.5625,0.1875,1.04849,-0.104788,-2.46185
1889,-2,6,-2,-2,-2,-1,-1,-2,0.101562,0.769531,0.449219,-2.0625,1.5625,0.1875,1.04849,-0.104788,-2.46185
1901,-5,-7,2,-1,3,0,0,1,0.101562,0.769531,0.449219,-2.0625,1.5625,0.1875,1.04849,-0.104788,-2.46185
1901,5,-9,-1,-1,-2,-3,-2,-1,0.101562,0.769531,0.449219,-2.0625,1.5625,0.1875,1.04849,-0.104788,-2.46185
1910,-2,-5,-1,-2,-4,0,1,-1,0.0991211,0.769043,0.463379,0.8125,1.1875,0.0625,1.0483,-0.104693,-2.4614
1910,-4,-3,-9,0,-1,-1,-3,-1,0.0991211,0.769043,0.463379,0.8125,1.1875,0.0625,1.0483,-0.104693,-2.4614
1925,-5,7,4,1,-1,-4,-3,1,0.0991211,0.769043,0.463379,0.8125,1.1875,0.0625,1.0483,-0.104693,-2.4614
1925,-1,-3,-5,0,0,-2,-1,-1,0.0991211,0.769043,0.463379,0.8125,1.1875,0.0625,1.0483,-0.104693,-2.4614
1926,1,-3,-5,0,-2,-1,0,-1,0.0883789,0.763184,0.457031,2.75,0.0625,-0.1875,1.04898,-0.10452,-2.4614
1926,-2,6,8,-2,-1,1,-1,-1,0.0883789,0.763184,0.457031,2.75,0.0625,-0.1875,1.04898,-0.10452,-2.4614
1947,-2,-1,-2,-1,-2,1,-1,-3,0.0883789,0.763184,0.457031,2.75,0.0625,-0.1875,1.04898,-0.10452,-2.4614
1947,-4,-9,0,-1,-3,0,1,1,0.0883789,0.763184,0.457031,2.75,0.0625,-0.1875,1.04898,-0.10452,-2.4614
1949,2,-17,-1,0,2,1,0,0,0.09375,0.771973,0.44043,2.25,-1.75,-0.3125,1.04984,-0.104794,-2.46196
1949,-1,-2,3,0,0,1,1,0,0.09375,0.771973,0.44043,2.25,-1.75,-0.3125,1.04984,-0.104794,-2.46196
1969,1,5,-1,-3,0,0,-2,-1,0.09375,0.771973,0.44043,2.25,-1.75,-0.3125,1.04984,-0.104794,-2.46196
1969,-3,0,5,0,-1,-2,-1,-1,0.09375,0.771973,0.44043,2.25,-1.75,-0.3125,1.04984,-0.104794,-2.46196
1971,2,-27,-12,-3,-3,-3,-2,-1,0.0942383,0.793457,0.442871,2,-1.875,0.125,1.05086,-0.105165,-2.4625
1971,-1,-3,-3,-2,-2,-2,0,-1,0.0942383,0.793457,0.442871,2,-1.875,0.125,1.05086,-0.105165,-2.4625
1992,1,2,-4,1,0,-1,0,-2,0.0942383,0.793457,0.442871,2,-1.875,0.125,1.05086,-0.105165,-2.4625
1992,3,-3,2,2,-1,1,2,0,0.0942383,0.793457,0.442871,2,-1.875,0.125,1.05086,-0.105165,-2.4625
1993,-6,-23,3,-1,0,-1,1,-1,0.0908203,0.801758,0.445801,1.875,-1.3125,1.0625,1.05176,-0.105533,-2.46269
1993,2,17,0,-2,-1,-2,-3,-1,0.0908203,0.801758,0.445801,1.875,-1.3125,1.0625,1.05176,-0.105533,-2.46269
2008,3,-7,-2,-4,-4,-2,-1,0,0.0908203,0.801758,0.445801,1.875,-1.3125,1.0625,1.05176,-0.105533,-2.46269
2008,-6,-3,-5,-1,-3,-3,-3,0,0.0908203,0.801758,0.445801,1.875,-1.3125,1.0625,1.05176,-0.105533,-2.46269
2009,6,12,3,0,-1,0,0,-2,0.0742188,0.790039,0.44043,1.1875,-1.25,0.75,1.05249,-0.105477,-2.46301
2009,-7,-23,-1,-3,-3,-1,-2,-1,0.0742188,0.790039,0.44043,1.1875,-1.25,0.75,1.05249,-0.105477,-2.46301
2021,-1,4,1,1,1,-1,0,0,0.0742188,0.790039,0.44043,1.1875,-1.25,0.75,1.05249,-0.105477,-2.46301
2021,1,2,-2,-3,-1,-2,-1,-1,0.0742188,0.790039,0.44043,1.1875,-1.25,0.75,1.05249,-0.105477,-2.46301
2037,6,31,13,3,-1,-2,0,2,0.0742188,0.775879,0.430176,-0.375,-2.125,-0.1875,1.05262,-0.105284,-2.46369
2037,-9,-23,-11,-5,-4,-3,-2,-6,0.0742188,0.775879,0.430176,-0.375,-2.125,-0.1875,1.05262,-0.105284,-2.46369
2044,-3,-4,0,1,1,1,-1,-3,0.0742188,0.775879,0.430176,-0.375,-2.125,-0.1875,1.05262,-0.105284,-2.46369
2044,-4,-7,-3,-2,0,1,-1,-1,0.0742188,0.775879,0.430176,-0.375,-2.125,-0.1875,1.05262,-0.105284,-2.46369
2046,6,11,0,2,1,0,-1,2,0.0991211,0.785156,0.432617,1,-3.375,0.1875,1.05343,-0.106013,-2.46472
2046,3,6,-2,0,0,-1,-2,-2,0.0991211,0.785156,0.432617,1,-3.375,0.1875,1.05343,-0.106013,-2.46472
2067,-1,-12,-5,-1,-1,-1,-1,1,0.0991211,0.785156,0.432617,1,-3.375,0.1875,1.05343,-0.106013,-2.46472
2067,0,6,4,-1,-1,-1,-1,-1,0.0991211,0.785156,0.432617,1,-3.375,0.1875,1.05343,-0.106013,-2.46472
2069,-4,-4,-7,-1,-1,-3,-2,-2,0.0986328,0.807129,0.443359,0.9375,-3.3125,1,1.05423,-0.106877,-2.4655
2069,0,6,0,2,0,-1,0,1,0.0986328,0.807129,0.443359,0.9375,-3.3125,1,1.05423,-0.106877,-2.4655
2080,25,8,3,1,-3,-2,-1,2,0.0986328,0.807129,0.443359,0.9375,-3.3125,1,1.05423,-0.106877,-2.4655
2080,-25,-14,-15,-5,2,-1,-3,-5,0.0986328,0.807129,0.443359,0.9375,-3.3125,1,1.05423,-0.106877,-2.4655
2090,-3,-5,-6,-5,-2,1,-1,-1,0.0976562,0.806641,0.450195,-0.4375,-2.625,0.5625,1.05423,-0.10751,-2.46621
2090,2,6,3,-1,-1,0,0,-1,0.0976562,0.806641,0.450195,-0.4375,-2.625,0.5625,1.05423,-0.10751,-2.46621
2105,0,9,0,-3,0,0,1,1,0.0976562,0.806641,0.450195,-0.4375,-2.625,0.5625,1.05423,-0.10751,-2.46621
2105,6,0,3,-1,0,-1,0,2,0.0976562,0.806641,0.450195,-0.4375,-2.625,0.5625,1.05423,-0.10751,-2.46621
2106,-5,-8,9,3,0,-2,2,0,0.101562,0.775391,0.443848,-4.6875,-2.4375,1.375,1.05265,-0.108361,-2.46675
2106,-3,-3,-3,2,2,0,1,-4,0.101562,0.775391,0.443848,-4.6875,-2.4375,1.375,1.05265,-0.108361,-2.46675
2127,-2,15,5,-1,-1,1,0,0,0.101562,0.775391,0.443848,-4.6875,-2.4375,1.375,1.05265,-0.108361,-2.46675
2127,-1,-10,2,1,-2,-1,-1,-1,0.101562,0.775391,0.443848,-4.6875,-2.4375,1.375,1.05265,-0.108361,-2.46675
2129,-5,-10,-9,-3,-1,-1,-2,0,0.104492,0.783203,0.451172,-2.9375,-1.6875,1,1.05162,-0.109121,-2.46707
2129,4,1,7,1,-1,-1,-2,3,0.104492,0.783203,0.451172,-2.9375,-1.6875,1,1.05162,-0.109121,-2.46707
2141,-5,-8,-1,-1,0,-1,-2,-2,0.104492,0.783203,0.451172,-2.9375,-1.6875,1,1.05162,-0.109121,-2.46707
2141,-5,14,-2,-2,0,-1,-3,-3,0.104492,0.783203,0.451172,-2.9375,-1.6875,1,1.05162,-0.109121,-2.46707
2149,9,0,0,0,2,0,0,-1,0.102539,0.775391,0.456543,0.3125,-2.0625,-0.125,1.05152,-0.109618,-2.46767
2149,3,5,-2,-1,0,-2,0,1,0.102539,0.775391,0.456543,0.3125,-2.0625,-0.125,1.05152,-0.109618,-2.46767
2165,-11,-5,-5,-5,-2,-2,-3,-7,0.102539,0.775391,0.456543,0.3125,-2.0625,-0.125,1.05152,-0.109618,-2.46767
2165,0,-5,1,1,0,0,0,4,0.102539,0.775391,0.456543,0.3125,-2.0625,-0.125,1.05152,-0.109618,-2.46767
2166,-2,-3,-4,-2,-2,-1,-1,-3,0.10791,0.770996,0.449219,-2.0625,-2.8125,-0.25,1.05071,-0.110254,-2.46855
2166,-3,-6,9,1,2,-1,-1,-1,0.10791,0.770996,0.449219,-2.0625,-2.8125,-0.25,1.05071,-0.110254,-2.46855
2188,-4,7,-9,0,0,-1,1,2,0.10791,0.770996,0.449219,-2.0625,-2.8125,-0.25,1.05071,-0.110254,-2.46855
2188,2,20,1,-1,-1,-1,0,-3,0.10791,0.770996,0.449219,-2.0625,-2.8125,-0.25,1.05071,-0.110254,-2.46855
2189,0,6,0,1,0,0,-3,0,0.101562,0.782715,0.454102,-1.875,-2.6875,0.3125,1.04999,-0.110753,-2.46927
2189,2,-6,-5,-3,-1,-3,0,2,0.101562,0.782715,0.454102,-1.875,-2.6875,0.3125,1.04999,-0.110753,-2.46927
2201,4,5,3,0,-3,-1,-1,1,0.101562,0.782715,0.454102,-1.875,-2.6875,0.3125,1.04999,-0.110753,-2.46927
2201,3,-9,1,-2,-2,-1,0,-3,0.101562,0.782715,0.454102,-1.875,-2.6875,0.3125,1.04999,-0.110753,-2.46927
2210,-2,5,-4,-1,-1,0,0,-2,0.0942383,0.780273,0.441406,-4.0625,-2.8125,1.1875,1.04893,-0.111479,-2.46989
2210,-13,0,-4,-2,-2,-1,-2,-4,0.0942383,0.780273,0.441406,-4.0625,-2.8125,1.1875,1.04893,-0.111479,-2.46989
2224,12,-5,-1,0,-2,0,-1,0,0.0942383,0.780273,0.441406,-4.0625,-2.8125,1.1875,1.04893,-0.111479,-2.46989
2224,1,-10,1,-2,-2,-1,0,0,0.0942383,0.780273,0.441406,-4.0625,-2.8125,1.1875,1.04893,-0.111479,-2.46989
2227,-1,-5,0,-3,-4,0,-2,-2,0.106445,0.785156,0.439941,-3,-2.6875,-0.1875,1.04817,-0.112018,-2.47073
2227,0,-15,-9,3,1,2,-1,0,0.106445,0.785156,0.439941,-3,-2.6875,-0.1875,1.04817,-0.112018,-2.47073
2247,-6,22,-7,-2,0,0,-2,-3,0.106445,0.785156,0.439941,-3,-2.6875,-0.1875,1.04817,-0.112018,-2.47073
2247,4,-14,6,4,3,1,0,1,0.106445,0.785156,0.439941,-3,-2.6875,-0.1875,1.04817,-0.112018,-2.47073
2248,1,12,-4,-1,1,0,0,7,0.105957,0.800781,0.444336,-0.875,-1.0625,-1.4375,1.04827,-0.111841,-2.47132
2248,9,15,4,-3,-2,-3,1,4,0.105957,0.800781,0.444336,-0.875,-1.0625,-1.4375,1.04827,-0.111841,-2.47132
2268,-5,-32,-2,3,-1,0,-2,-9,0.105957,0.800781,0.444336,-0.875,-1.0625,-1.4375,1.04827,-0.111841,-2.47132
2268,4,20,-5,-2,-2,0,-1,0,0.105957,0.800781,0.444336,-0.875,-1.0625,-1.4375,1.04827,-0.111841,-2.47132
2277,-16,-24,0,-4,-4,-3,-2,-7,0.0913086,0.796387,0.44873,0.25,-1.625,-1.5625,1.0486,-0.111384,-2.47203
2277,0,4,1,-3,-2,0,-1,3,0.0913086,0.796387,0.44873,0.25,-1.625,-1.5625,1.0486,-0.111384,-2.47203
2292,-1,6,-5,-3,-2,-4,-1,2,0.0913086,0.796387,0.44873,0.25,-1.625,-1.5625,1.0486,-0.111384,-2.47203
2292,0,-10,-1,1,0,-7,-2,-2,0.0913086,0.796387,0.44873,0.25,-1.625,-1.5625,1.0486,-0.111384,-2.47203
2294,4,-2,1,1,1,2,1,4,0.0991211,0.785156,0.443359,-2.4375,-1.0625,-2.75,1.04807,-0.110824,-2.47293
2294,3,6,3,-3,-1,-3,-1,-4,0.0991211,0.785156,0.443359,-2.4375,-1.0625,-2.75,1.04807,-0.110824,-2.47293
2315,3,1,8,-2,-1,1,0,1,0.0991211,0.785156,0.443359,-2.4375,-1.0625,-2.75,1.04807,-0.110824,-2.47293
2315,-7,-32,-8,-4,-3,0,-2,-4,0.0991211,0.785156,0.443359,-2.4375,-1.0625,-2.75,1.04807,-0.110824,-2.47293
2316,1,32,-3,-1,1,-2,0,1,0.0869141,0.777344,0.456543,-2.4375,-1.75,-0.9375,1.04716,-0.110507,-2.47365
2316,-7,-11,3,0,-1,4,-1,-2,0.0869141,0.777344,0.456543,-2.4375,-1.75,-0.9375,1.04716,-0.110507,-2.47365
2321,20,22,7,2,0,-6,-1,3,0.0869141,0.777344,0.456543,-2.4375,-1.75,-0.9375,1.04716,-0.110507,-2.47365
2321,-8,-6,1,0,-4,-3,-1,1,0.0869141,0.777344,0.456543,-2.4375,-1.75,-0.9375,1.04716,-0.110507,-2.47365
2337,3,-23,2,1,1,-1,0,-1,0.09375,0.768066,0.472168,0.25,-2.1875,-1.1875,1.04665,-0.110333,-2.47436
2337,-13,4,-20,-9,-9,1,-2,-4,0.09375,0.768066,0.472168,0.25,-2.1875,-1.1875,1.04665,-0.110333,-2.47436
2345,0,8,3,-2,-5,-13,-1,7,0.09375,0.768066,0.472168,0.25,-2.1875,-1.1875,1.04665,-0.110333,-2.47436
2345,-1,16,-9,-5,0,1,-5,-7,0.09375,0.768066,0.472168,0.25,-2.1875,-1.1875,1.04665,-0.110333,-2.47436
2346,-1,6,8,-1,-4,8,-2,-1,0.103516,0.756836,0.446777,3.0625,-1.9375,-2,1.04759,-0.110234,-2.47538
2346,1,-11,0,4,0,-4,1,-3,0.103516,0.756836,0.446777,3.0625,-1.9375,-2,1.04759,-0.110234,-2.47538
2367,-8,-29,3,-2,-1,-2,-1,3,0.103516,0.756836,0.446777,3.0625,-1.9375,-2,1.04759,-0.110234,-2.47538
2367,8,29,13,2,1,-4,1,0,0.103516,0.756836,0.446777,3.0625,-1.9375,-2,1.04759,-0.110234,-2.47538
2369,-1,1,-2,0,2,-5,-2,-2,0.119141,0.786621,0.449219,6.75,1.75,-2.9375,1.05008,-0.109603,-2.47527
2369,1,-15,-9,-3,2,-1,-2,4,0.119141,0.786621,0.449219,6.75,1.75,-2.9375,1.05008,-0.109603,-2.47527
2381,-11,-6,-3,0,-2,0,-5,-23,0.119141,0.786621,0.449219,6.75,1.75,-2.9375,1.05008,-0.109603,-2.47527
2381,11,13,14,4,2,0,1,-1,0.119141,0.786621,0.449219,6.75,1.75,-2.9375,1.05008,-0.109603,-2.47527
2389,-1,-32,-15,-3,-1,-2,0,4,0.100098,0.780273,0.457031,18.125,0.0625,-6.6875,1.05618,-0.107526,-2.47638
2389,2,7,-1,3,-1,1,1,4,0.100098,0.780273,0.457031,18.125,0.0625,-6.6875,1.05618,-0.107526,-2.47638
2404,-2,1,-2,-2,0,2,0,4,0.100098,0.780273,0.457031,18.125,0.0625,-6.6875,1.05618,-0.107526,-2.47638
2404,-4,-5,-1,-3,-3,1,1,0,0.100098,0.780273,0.457031,18.125,0.0625,-6.6875,1.05618,-0.107526,-2.47638
2407,-1,6,2,-1,-2,-1,-1,-3,0.112305,0.79541,0.447266,10.125,-0.1875,-3.9375,1.05977,-0.106818,-2.47705
2407,4,6,-3,0,0,-1,0,-2,0.112305,0.79541,0.447266,10.125,-0.1875,-3.9375,1.05977,-0.106818,-2.47705
2427,-11,-23,-8,-6,-1,2,-2,-2,0.112305,0.79541,0.447266,10.125,-0.1875,-3.9375,1.05977,-0.106818,-2.47705
2427,-5,-21,-14,0,-1,4,-1,-1,0.112305,0.79541,0.447266,10.125,-0.1875,-3.9375,1.05977,-0.106818,-2.47705
2429,5,-13,14,-1,-1,-5,0,3,0.103027,0.802246,0.436523,-2.0625,-1.4375,-2.25,1.05944,-0.106459,-2.47793
2429,-6,52,-3,-5,-3,-5,-4,-6,0.103027,0.802246,0.436523,-2.0625,-1.4375,-2.25,1.05944,-0.106459,-2.47793
2450,-14,-39,-14,-6,-5,-2,-1,0,0.103027,0.802246,0.436523,-2.0625,-1.4375,-2.25,1.05944,-0.106459,-2.47793
2450,-2,2,-4,1,0,2,-1,3,0.103027,0.802246,0.436523,-2.0625,-1.4375,-2.25,1.05944,-0.106459,-2.47793
2451,2,-15,-4,1,2,2,2,-3,0.081543,0.77832,0.438965,-3.4375,-1.4375,-0.125,1.0582,-0.106344,-2.47833
2451,4,-2,-3,-2,1,0,-1,-2,0.081543,0.77832,0.438965,-3.4375,-1.4375,-0.125,1.0582,-0.106344,-2.47833
2472,8,12,18,7,3,8,3,7,0.081543,0.77832,0.438965,-3.4375,-1.4375,-0.125,1.0582,-0.106344,-2.47833
2472,6,32,-14,-7,-6,-10,-1,2,0.081543,0.77832,0.438965,-3.4375,-1.4375,-0.125,1.0582,-0.106344,-2.47833
2474,-16,-10,-7,-3,0,11,-3,-8,0.0585938,0.771484,0.4375,-1.8125,-2.875,0.3125,1.05755,-0.106055,-2.47915
2474,3,-2,3,0,-1,5,-1,1,0.0585938,0.771484,0.4375,-1.8125,-2.875,0.3125,1.05755,-0.106055,-2.47915
2487,-2,12,-2,1,-3,-7,2,-1,0.0585938,0.771484,0.4375,-1.8125,-2.875,0.3125,1.05755,-0.106055,-2.47915
2487,5,-5,11,2,0,-2,-2,3,0.0585938,0.771484,0.4375,-1.8125,-2.875,0.3125,1.05755,-0.106055,-2.47915
2489,7,17,-4,-1,-4,-2,-3,-3,0.0756836,0.776855,0.429199,1.625,-4.6875,-0.75,1.05849,-0.106247,-2.48067
2489,-5,-10,2,2,1,-3,0,-4,0.0756836,0.776855,0.429199,1.625,-4.6875,-0.75,1.05849,-0.106247,-2.48067
2510,1,-19,-2,0,0,3,-1,1,0.0756836,0.776855,0.429199,1.625,-4.6875,-0.75,1.05849,-0.106247,-2.48067
2510,-7,1,3,-1,-2,0,0,-12,0.0756836,0.776855,0.429199,1.625,-4.6875,-0.75,1.05849,-0.106247,-2.48067
2511,-2,1,-8,-1,-5,-11,-2,2,0.102051,0.802246,0.446289,5.0625,-5.1875,-0.8125,1.06061,-0.106886,-2.48242
2511,-2,-19,3,1,2,2,-1,0,0.102051,0.802246,0.446289,5.0625,-5.1875,-0.8125,1.06061,-0.106886,-2.48242
2525,1,4,-5,-1,0,-1,1,1,0.102051,0.802246,0.446289,5.0625,-5.1875,-0.8125,1.06061,-0.106886,-2.48242
2525,-3,-1,-2,-3,-1,2,-2,5,0.102051,0.802246,0.446289,5.0625,-5.1875,-0.8125,1.06061,-0.106886,-2.48242
2526,-4,-13,5,1,-1,-2,-2,-9,0.106934,0.80127,0.454102,0.75,-4,0.3125,1.06087,-0.107919,-2.48357
2526,-1,16,-15,-2,-2,-4,-2,-3,0.106934,0.80127,0.454102,0.75,-4,0.3125,1.06087,-0.107919,-2.48357
2547,2,20,16,1,1,3,-3,-5,0.106934,0.80127,0.454102,0.75,-4,0.3125,1.06087,-0.107919,-2.48357
2547,-7,-1,9,4,-1,0,-2,0,0.106934,0.80127,0.454102,0.75,-4,0.3125,1.06087,-0.107919,-2.48357
2549,1,-39,-12,-2,1,0,0,1,0.107422,0.796875,0.45459,-3.4375,-3.3125,0.6875,1.05955,-0.108835,-2.48445
2549,-5,-16,-7,-3,-4,-2,-1,-3,0.107422,0.796875,0.45459,-3.4375,-3.3125,0.6875,1.05955,-0.108835,-2.48445
2570,10,-12,-13,-3,-3,-3,-1,4,0.107422,0.796875,0.45459,-3.4375,-3.3125,0.6875,1.05955,-0.108835,-2.48445
2570,-1,-5,6,0,-1,1,0,-2,0.107422,0.796875,0.45459,-3.4375,-3.3125,0.6875,1.05955,-0.108835,-2.48445
2572,1,35,10,0,1,-2,-3,2,0.114746,0.767578,0.439453,-5,-3.25,1.3125,1.0578,-0.11024,-2.48525
2572,3,-16,-3,-2,0,-3,-3,0,0.114746,0.767578,0.439453,-5,-3.25,1.3125,1.0578,-0.11024,-2.48525
2593,-5,-6,-7,-3,-2,6,-2,-3,0.114746,0.767578,0.439453,-5,-3.25,1.3125,1.0578,-0.11024,-2.48525
2593,-7,-28,-8,0,-2,-7,-1,-2,0.114746,0.767578,0.439453,-5,-3.25,1.3125,1.0578,-0.11024,-2.48525
2593,2,10,2,-1,-1,1,1,1,0.11377,0.768066,0.438477,-4.5,-2.9375,1,1.05615,-0.111303,-2.48589
2593,0,2,2,1,-3,-2,0,4,0.11377,0.768066,0.438477,-4.5,-2.9375,1,1.05615,-0.111303,-2.48589
2614,-5,2,0,-2,-2,-2,-1,-9,0.11377,0.768066,0.438477,-4.5,-2.9375,1,1.05615,-0.111303,-2.48589
2614,0,-24,-4,2,-1,2,2,-5,0.11377,0.768066,0.438477,-4.5,-2.9375,1,1.05615,-0.111303,-2.48589
2616,-5,32,4,-6,-2,-4,-1,-4,0.0981445,0.791016,0.447754,0.3125,-1.3125,-0.4375,1.05638,-0.111381,-2.48644
2616,-2,-35,-13,-1,-2,-2,0,-3,0.0981445,0.791016,0.447754,0.3125,-1.3125,-0.4375,1.05638,-0.111381,-2.48644
2630,1,18,9,0,0,3,0,-1,0.0981445,0.791016,0.447754,0.3125,-1.3125,-0.4375,1.05638,-0.111381,-2.48644
2630,-1,-2,-6,-5,-4,9,-2,1,0.0981445,0.791016,0.447754,0.3125,-1.3125,-0.4375,1.05638,-0.111381,-2.48644
2631,1,-4,-1,-4,-4,-1,-1,1,0.0986328,0.795898,0.441895,2.4375,-0.5,-1.75,1.05734,-0.110889,-2.48682
2631,0,1,8,2,-2,1,0,-1,0.0986328,0.795898,0.441895,2.4375,-0.5,-1.75,1.05734,-0.110889,-2.48682
2644,-3,1,-6,0,1,0,0,0,0.0986328,0.795898,0.441895,2.4375,-0.5,-1.75,1.05734,-0.110889,-2.48682
2644,6,11,7,1,0,-1,0,0,0.0986328,0.795898,0.441895,2.4375,-0.5,-1.75,1.05734,-0.110889,-2.48682
2651,-12,-39,-24,0,0,-1,-2,-3,0.0957031,0.810547,0.444824,3.6875,0.75,-4.125,1.05901,-0.109322,-2.4873
2651,-2,23,6,-4,-1,-3,-2,-2,0.0957031,0.810547,0.444824,3.6875,0.75,-4.125,1.05901,-0.109322,-2.4873
2667,-1,26,7,2,4,5,0,1,0.0957031,0.810547,0.444824,3.6875,0.75,-4.125,1.05901,-0.109322,-2.4873
2667,4,-16,-6,-1,-5,-19,-2,0,0.0957031,0.810547,0.444824,3.6875,0.75,-4.125,1.05901,-0.109322,-2.4873
2669,8,12,7,1,1,7,3,2,0.0883789,0.798828,0.445801,5.1875,2.25,-3.6875,1.06073,-0.107622,-2.4872
2669,0,-4,0,2,1,0,-1,-2,0.0883789,0.798828,0.445801,5.1875,2.25,-3.6875,1.06073,-0.107622,-2.4872
2690,0,21,-5,-3,-3,-4,-1,-3,0.0883789,0.798828,0.445801,5.1875,2.25,-3.6875,1.06073,-0.107622,-2.4872
2690,0,3,1,-3,0,2,1,3,0.0883789,0.798828,0.445801,5.1875,2.25,-3.6875,1.06073,-0.107622,-2.4872
2691,-3,6,2,3,-3,-3,0,-9,0.0878906,0.787109,0.424805,-0.4375,1.0625,-2.5625,1.06094,-0.106399,-2.48741
2691,-2,-16,-5,-4,-5,-2,-2,-3,0.0878906,0.787109,0.424805,-0.4375,1.0625,-2.5625,1.06094,-0.106399,-2.48741
2704,-5,-5,-5,0,-1,-2,0,-1,0.0878906,0.787109,0.424805,-0.4375,1.0625,-2.5625,1.06094,-0.106399,-2.48741
2704,-3,4,-3,1,2,2,1,-1,0.0878906,0.787109,0.424805,-0.4375,1.0625,-2.5625,1.06094,-0.106399,-2.48741
2711,0,-11,1,-1,-4,-4,1,2,0.097168,0.774414,0.438965,1.0625,2.0625,-2.6875,1.06116,-0.105289,-2.48715
2711,2,-8,2,-1,3,3,-1,0,0.097168,0.774414,0.438965,1.0625,2.0625,-2.6875,1.06116,-0.105289,-2.48715
2727,3,-2,2,-1,-2,-5,-2,-3,0.097168,0.774414,0.438965,1.0625,2.0625,-2.6875,1.06116,-0.105289,-2.48715
2727,-3,5,1,2,4,4,1,1,0.097168,0.774414,0.438965,1.0625,2.0625,-2.6875,1.06116,-0.105289,-2.48715
2728,3,18,0,-4,-1,0,0,-1,0.074707,0.787598,0.44043,3.3125,2.5625,-2.125,1.06231,-0.103754,-2.48672
2728,0,7,3,1,-2,-1,2,0,0.074707,0.787598,0.44043,3.3125,2.5625,-2.125,1.06231,-0.103754,-2.48672
2750,-3,-22,-6,-1,-3,-7,0,-1,0.074707,0.787598,0.44043,3.3125,2.5625,-2.125,1.06231,-0.103754,-2.48672
2750,-5,-3,-3,-3,-3,-1,-2,-2,0.074707,0.787598,0.44043,3.3125,2.5625,-2.125,1.06231,-0.103754,-2.48672
2751,1,26,0,0,0,2,-2,0,0.0805664,0.779297,0.443848,5,0.9375,-2.1875,1.06387,-0.102656,-2.48679
2751,1,7,10,0,-3,8,-2,-1,0.0805664,0.779297,0.443848,5,0.9375,-2.1875,1.06387,-0.102656,-2.48679
2764,-2,-33,-13,-1,-2,-1,-2,1,0.0805664,0.779297,0.443848,5,0.9375,-2.1875,1.06387,-0.102656,-2.48679
2764,-6,0,-1,-5,-1,-1,-1,-4,0.0805664,0.779297,0.443848,5,0.9375,-2.1875,1.06387,-0.102656,-2.48679
2772,0,-9,3,0,-1,-4,-1,2,0.107422,0.780273,0.441406,2.3125,-0.75,-1.9375,1.06443,-0.102577,-2.48726
2772,0,22,-1,-4,-2,-7,-1,-1,0.107422,0.780273,0.441406,2.3125,-0.75,-1.9375,1.06443,-0.102577,-2.48726
2787,0,-2,5,0,0,-1,-1,4,0.107422,0.780273,0.441406,2.3125,-0.75,-1.9375,1.06443,-0.102577,-2.48726
2787,-1,15,1,3,1,3,-1,1,0.107422,0.780273,0.441406,2.3125,-0.75,-1.9375,1.06443,-0.102577,-2.48726
2789,2,-7,-5,-1,-1,-3,-1,-4,0.115723,0.785645,0.441895,4.625,-1.3125,-1.4375,1.06605,-0.102951,-2.48791
2789,2,-7,-4,-2,-1,-5,0,-1,0.115723,0.785645,0.441895,4.625,-1.3125,-1.4375,1.06605,-0.102951,-2.48791
2810,2,34,14,1,0,0,-1,-1,0.115723,0.785645,0.441895,4.625,-1.3125,-1.4375,1.06605,-0.102951,-2.48791
2810,1,-38,-10,3,-1,-1,0,2,0.115723,0.785645,0.441895,4.625,-1.3125,-1.4375,1.06605,-0.102951,-2.48791
2811,0,13,5,-3,-3,-9,-1,4,0.0966797,0.794922,0.43457,0.8125,-1.0625,0.0625,1.06636,-0.103167,-2.48817
2811,-9,-22,-3,-1,-1,7,-2,-6,0.0966797,0.794922,0.43457,0.8125,-1.0625,0.0625,1.06636,-0.103167,-2.48817
2824,2,7,-1,-2,-2,6,1,-2,0.0966797,0.794922,0.43457,0.8125,-1.0625,0.0625,1.06636,-0.103167,-2.48817
2824,3,9,-1,-3,-3,0,-1,3,0.0966797,0.794922,0.43457,0.8125,-1.0625,0.0625,1.06636,-0.103167,-2.48817
2830,2,4,-9,1,2,2,2,0,0.0825195,0.784668,0.426758,-1.875,-0.75,1.75,1.06592,-0.103657,-2.48809
2830,-1,6,0,-3,-4,-17,-6,-2,0.0825195,0.784668,0.426758,-1.875,-0.75,1.75,1.06592,-0.103657,-2.48809
2847,-6,-17,-5,-3,1,4,-1,0,0.0825195,0.784668,0.426758,-1.875,-0.75,1.75,1.06592,-0.103657,-2.48809
2847,-2,3,1,-5,0,-1,-3,-5,0.0825195,0.784668,0.426758,-1.875,-0.75,1.75,1.06592,-0.103657,-2.48809
2849,0,2,0,-2,-1,7,2,1,0.0810547,0.786133,0.422363,-1.75,1.375,1.25,1.06545,-0.103539,-2.48753
2849,-1,0,-3,1,2,-6,1,3,0.0810547,0.786133,0.422363,-1.75,1.375,1.25,1.06545,-0.103539,-2.48753
2870,-4,-5,-4,2,0,-4,-1,-9,0.0810547,0.786133,0.422363,-1.75,1.375,1.25,1.06545,-0.103539,-2.48753
2870,2,10,4,0,-3,-1,1,3,0.0810547,0.786133,0.422363,-1.75,1.375,1.25,1.06545,-0.103539,-2.48753
2872,1,-13,2,0,-3,-6,-3,1,0.0761719,0.800781,0.428223,-0.375,2.3125,0.9375,1.06561,-0.102922,-2.48666
2872,2,36,8,0,0,9,2,-1,0.0761719,0.800781,0.428223,-0.375,2.3125,0.9375,1.06561,-0.102922,-2.48666
2892,-6,-54,-17,-5,-3,-6,-1,-1,0.0761719,0.800781,0.428223,-0.375,2.3125,0.9375,1.06561,-0.102922,-2.48666
2892,1,-2,2,0,-1,4,-1,-2,0.0761719,0.800781,0.428223,-0.375,2.3125,0.9375,1.06561,-0.102922,-2.48666
2894,-7,-9,-5,1,-1,2,-2,-6,0.0820312,0.804199,0.435547,-0.375,1.9375,0.625,1.06552,-0.102551,-2.48597
2894,4,5,9,0,-1,1,1,0,0.0820312,0.804199,0.435547,-0.375,1.9375,0.625,1.06552,-0.102551,-2.48597
2914,2,14,0,-1,0,1,0,6,0.0820312,0.804199,0.435547,-0.375,1.9375,0.625,1.06552,-0.102551,-2.48597
2914,-3,5,-3,-3,-2,-2,-3,-15,0.0820312,0.804199,0.435547,-0.375,1.9375,0.625,1.06552,-0.102551,-2.48597
2916,0,-19,-4,-2,1,0,0,0,0.0917969,0.799316,0.437988,-1.0625,1.25,-0.0625,1.06523,-0.102249,-2.48557
2916,16,-3,-6,-1,2,-4,-1,1,0.0917969,0.799316,0.437988,-1.0625,1.25,-0.0625,1.06523,-0.102249,-2.48557
2930,1,2,1,-3,-5,0,-3,-2,0.0917969,0.799316,0.437988,-1.0625,1.25,-0.0625,1.06523,-0.102249,-2.48557
2930,2,9,1,-2,-2,1,-1,2,0.0917969,0.799316,0.437988,-1.0625,1.25,-0.0625,1.06523,-0.102249,-2.48557
2931,-3,2,3,0,1,-7,-5,-1,0.097168,0.795898,0.440918,-2.625,0.8125,-0.5,1.06441,-0.102103,-2.48532
2931,-7,-18,4,1,-2,2,0,-4,0.097168,0.795898,0.440918,-2.625,0.8125,-0.5,1.06441,-0.102103,-2.48532
2943,-6,1,-6,-4,-4,-7,-2,-2,0.097168,0.795898,0.440918,-2.625,0.8125,-0.5,1.06441,-0.102103,-2.48532
2943,2,-10,4,3,2,-2,-1,1,0.097168,0.795898,0.440918,-2.625,0.8125,-0.5,1.06441,-0.102103,-2.48532
2952,-2,-2,-3,-1,1,9,0,-4,0.0874023,0.78125,0.444824,-1.4375,0.625,-0.375,1.06365,-0.101723,-2.48526
2952,-4,2,-1,1,1,-6,-2,1,0.0874023,0.78125,0.444824,-1.4375,0.625,-0.375,1.06365,-0.101723,-2.48526
2967,0,-12,-2,0,0,-4,-1,-3,0.0874023,0.78125,0.444824,-1.4375,0.625,-0.375,1.06365,-0.101723,-2.48526
2967,-4,2,0,-2,-2,-1,0,-1,0.0874023,0.78125,0.444824,-1.4375,0.625,-0.375,1.06365,-0.101723,-2.48526
2969,-2,9,-1,-2,-2,0,-1,-1,0.0996094,0.772949,0.438965,-1.5,-0.1875,-0.375,1.06297,-0.101902,-2.48526
2969,-2,-33,-3,2,0,1,-1,0,0.0996094,0.772949,0.438965,-1.5,-0.1875,-0.375,1.06297,-0.101902,-2.48526
2990,-3,31,-6,-2,0,-1,1,-1,0.0996094,0.772949,0.438965,-1.5,-0.1875,-0.375,1.06297,-0.101902,-2.48526
2990,11,12,3,-2,1,1,0,4,0.0996094,0.772949,0.438965,-1.5,-0.1875,-0.375,1.06297,-0.101902,-2.48526
2991,3,-43,-12,-8,-2,-2,0,1,0.111328,0.77002,0.44043,0,-0.6875,-0.625,1.06292,-0.102001,-2.48531
2991,-6,-8,7,-3,0,-1,-5,-5,0.111328,0.77002,0.44043,0,-0.6875,-0.625,1.06292,-0.102001,-2.48531
3003,-2,-11,-5,-1,-1,-4,-3,1,0.111328,0.77002,0.44043,0,-0.6875,-0.625,1.06292,-0.102001,-2.48531
3003,-2,10,-2,0,2,5,1,1,0.111328,0.77002,0.44043,0,-0.6875,-0.625,1.06292,-0.102001,-2.48531
3012,0,-19,4,4,0,3,1,4,0.100098,0.790527,0.436523,0.5625,0.3125,-0.4375,1.06288,-0.10216,-2.48528
3012,-1,41,-1,-2,-3,-4,-2,1,0.100098,0.790527,0.436523,0.5625,0.3125,-0.4375,1.06288,-0.10216,-2.48528
3027,1,-27,-1,3,0,5,1,-2,0.100098,0.790527,0.436523,0.5625,0.3125,-0.4375,1.06288,-0.10216,-2.48528
3027,-6,-6,-4,0,0,-5,-2,0,0.100098,0.790527,0.436523,0.5625,0.3125,-0.4375,1.06288,-0.10216,-2.48528
3029,3,16,3,2,-2,-1,0,0,0.0859375,0.804688,0.437012,1,0.375,0.25,1.06346,-0.101845,-2.48517
3029,-3,10,-4,1,-2,-1,0,-2,0.0859375,0.804688,0.437012,1,0.375,0.25,1.06346,-0.101845,-2.48517
3049,4,-13,2,-1,0,-1,1,-1,0.0859375,0.804688,0.437012,1,0.375,0.25,1.06346,-0.101845,-2.48517
3049,-7,15,-8,-1,-1,0,-4,-3,0.0859375,0.804688,0.437012,1,0.375,0.25,1.06346,-0.101845,-2.48517
3051,-2,7,7,2,0,-2,-2,-1,0.0834961,0.790039,0.429688,-1.6875,-0.875,2.1875,1.06311,-0.102545,-2.48503
3051,0,1,-12,-2,-2,0,-1,-2,0.0834961,0.790039,0.429688,-1.6875,-0.875,2.1875,1.06311,-0.102545,-2.48503
3063,-2,15,-3,-2,0,3,-1,3,0.0834961,0.790039,0.429688,-1.6875,-0.875,2.1875,1.06311,-0.102545,-2.48503
3063,0,-13,6,-1,0,0,0,-9,0.0834961,0.790039,0.429688,-1.6875,-0.875,2.1875,1.06311,-0.102545,-2.48503
3073,-2,8,0,-2,1,-3,-1,0,0.0800781,0.783203,0.442383,-2.75,-0.875,2.1875,1.06189,-0.103077,-2.48485
3073,-1,-9,-3,1,-1,-3,0,0,0.0800781,0.783203,0.442383,-2.75,-0.875,2.1875,1.06189,-0.103077,-2.48485
3088,2,-2,0,-2,0,4,1,1,0.0800781,0.783203,0.442383,-2.75,-0.875,2.1875,1.06189,-0.103077,-2.48485
3088,-5,-13,-3,-1,-5,-11,-3,-4,0.0800781,0.783203,0.442383,-2.75,-0.875,2.1875,1.06189,-0.103077,-2.48485
3089,-18,13,-4,-3,-2,-1,-2,0,0.0830078,0.787109,0.436035,0.1875,-0.875,2,1.06205,-0.103584,-2.48487
3089,2,-13,-1,-1,0,-1,-1,-10,0.0830078,0.787109,0.436035,0.1875,-0.875,2,1.06205,-0.103584,-2.48487
3110,1,3,1,1,-1,-4,-2,0,0.0830078,0.787109,0.436035,0.1875,-0.875,2,1.06205,-0.103584,-2.48487
3110,0,-1,2,0,2,2,2,4,0.0830078,0.787109,0.436035,0.1875,-0.875,2,1.06205,-0.103584,-2.48487
3111,-2,-7,-2,-2,-1,-1,-1,-3,0.0874023,0.793457,0.443359,1.625,-0.6875,0.875,1.06257,-0.103777,-2.48484
3111,-3,-1,-5,-4,-3,-11,0,3,0.0874023,0.793457,0.443359,1.625,-0.6875,0.875,1.06257,-0.103777,-2.48484
3123,-1,15,4,3,2,0,-4,2,0.0874023,0.793457,0.443359,1.625,-0.6875,0.875,1.06257,-0.103777,-2.48484
3123,2,-5,-2,-4,-3,0,-2,0,0.0874023,0.793457,0.443359,1.625,-0.6875,0.875,1.06257,-0.103777,-2.48484
3132,7,1,3,4,-1,1,0,0,0.0947266,0.804199,0.437012,1.3125,-0.125,0.9375,1.06326,-0.104068,-2.4848
3132,-5,13,-7,-5,0,3,0,1,0.0947266,0.804199,0.437012,1.3125,-0.125,0.9375,1.06326,-0.104068,-2.4848
3147,-1,-43,-14,-4,0,-1,-1,-4,0.0947266,0.804199,0.437012,1.3125,-0.125,0.9375,1.06326,-0.104068,-2.4848
3147,2,-7,0,3,-2,-1,1,3,0.0947266,0.804199,0.437012,1.3125,-0.125,0.9375,1.06326,-0.104068,-2.4848
3149,1,10,-7,-3,-3,-4,-4,-6,0.0898438,0.802734,0.440918,0,-0.125,2,1.06334,-0.104476,-2.48441
3149,4,9,12,1,-1,2,-2,6,0.0898438,0.802734,0.440918,0,-0.125,2,1.06334,-0.104476,-2.48441
3169,-4,10,5,-2,-3,-1,-1,-3,0.0898438,0.802734,0.440918,0,-0.125,2,1.06334,-0.104476,-2.48441
3169,0,-19,-3,-1,1,0,-1,-2,0.0898438,0.802734,0.440918,0,-0.125,2,1.06334,-0.104476,-2.48441
3171,11,9,4,-1,-2,-1,0,1,0.0966797,0.776367,0.430176,-3.1875,-0.125,1.375,1.06227,-0.105044,-2.48429
3171,-3,-4,-3,-1,1,3,0,-3,0.0966797,0.776367,0.430176,-3.1875,-0.125,1.375,1.06227,-0.105044,-2.48429
3184,-4,7,2,-2,0,-2,-2,-4,0.0966797,0.776367,0.430176,-3.1875,-0.125,1.375,1.06227,-0.105044,-2.48429
3184,2,-1,-2,0,-1,-10,-1,2,0.0966797,0.776367,0.430176,-3.1875,-0.125,1.375,1.06227,-0.105044,-2.48429
3192,-2,-2,-3,-2,1,9,2,2,0.0996094,0.783691,0.442871,-0.1875,-0.3125,0.0625,1.06227,-0.105044,-2.48429
3192,-7,-16,-2,0,-1,-9,-4,-7,0.0996094,0.783691,0.442871,-0.1875,-0.3125,0.0625,1.06227,-0.105044,-2.48429
3207,1,4,2,2,-1,-2,1,-1,0.0996094,0.783691,0.442871,-0.1875,-0.3125,0.0625,1.06227,-0.105044,-2.48429
3207,1,39,7,1,-1,-3,-2,1,0.0996094,0.783691,0.442871,-0.1875,-0.3125,0.0625,1.06227,-0.105044,-2.48429
3208,-5,-43,-12,-1,1,6,0,-1,0.0957031,0.803223,0.433594,1.125,0.75,-0.75,1.063,-0.104766,-2.48424
3208,-3,-5,0,-3,-1,1,-2,-1,0.0957031,0.803223,0.433594,1.125,0.75,-0.75,1.063,-0.104766,-2.48424
3229,-2,3,1,-1,-4,-1,0,-1,0.0957031,0.803223,0.433594,1.125,0.75,-0.75,1.063,-0.104766,-2.48424
3229,0,-21,-1,-2,0,-1,1,-1,0.0957031,0.803223,0.433594,1.125,0.75,-0.75,1.063,-0.104766,-2.48424
3231,-2,35,-2,-2,-2,-4,-3,-9,0.100098,0.806641,0.439453,0.9375,1.75,-2.125,1.06345,-0.103845,-2.48406
3231,4,-14,-7,1,-1,-1,2,1,0.100098,0.806641,0.439453,0.9375,1.75,-2.125,1.06345,-0.103845,-2.48406
3244,0,19,14,0,1,2,-2,1,0.100098,0.806641,0.439453,0.9375,1.75,-2.125,1.06345,-0.103845,-2.48406
3244,-4,-3,-20,-4,-3,5,-1,-4,0.100098,0.806641,0.439453,0.9375,1.75,-2.125,1.06345,-0.103845,-2.48406
3253,-2,-6,1,0,0,-6,0,-2,0.0942383,0.793945,0.439453,-0.0625,2.375,-2.8125,1.0634,-0.102646,-2.48377
3253,-2,-4,0,2,3,10,0,3,0.0942383,0.793945,0.439453,-0.0625,2.375,-2.8125,1.0634,-0.102646,-2.48377
3267,9,3,1,0,-1,-4,1,-2,0.0942383,0.793945,0.439453,-0.0625,2.375,-2.8125,1.0634,-0.102646,-2.48377
3267,-3,6,0,0,-2,-1,-1,-1,0.0942383,0.793945,0.439453,-0.0625,2.375,-2.8125,1.0634,-0.102646,-2.48377
3269,-1,-19,4,-1,0,-1,0,3,0.090332,0.787598,0.435059,-1.5625,1.75,-2.4375,1.06301,-0.101602,-2.48356
3269,-4,10,-8,-4,-2,1,-1,-2,0.090332,0.787598,0.435059,-1.5625,1.75,-2.4375,1.06301,-0.101602,-2.48356
3289,0,1,1,-1,0,-1,-1,1,0.090332,0.787598,0.435059,-1.5625,1.75,-2.4375,1.06301,-0.101602,-2.48356
3289,-2,4,2,-2,-1,3,-1,-1,0.090332,0.787598,0.435059,-1.5625,1.75,-2.4375,1.06301,-0.101602,-2.48356
3291,3,-1,-1,-1,-4,-5,-2,-1,0.0874023,0.789551,0.432129,-2.625,0.6875,-2.75,1.06225,-0.100554,-2.48387
3291,0,-11,4,3,5,-4,-1,1,0.0874023,0.789551,0.432129,-2.625,0.6875,-2.75,1.06225,-0.100554,-2.48387
3303,-2,-34,-12,-5,-2,-7,-1,-1,0.0874023,0.789551,0.432129,-2.625,0.6875,-2.75,1.06225,-0.100554,-2.48387
3303,-5,3,1,0,3,8,-5,-6,0.0874023,0.789551,0.432129,-2.625,0.6875,-2.75,1.06225,-0.100554,-2.48387
3313,-2,13,1,1,-5,-9,-1,0,0.0922852,0.793945,0.438965,-0.5,1.6875,-3.1875,1.06217,-0.0993186,-2.48388
3313,2,-7,-1,-1,-2,-6,-1,1,0.0922852,0.793945,0.438965,-0.5,1.6875,-3.1875,1.06217,-0.0993186,-2.48388
3335,0,3,-1,1,0,-6,-2,-6,0.0922852,0.793945,0.438965,-0.5,1.6875,-3.1875,1.06217,-0.0993186,-2.48388
3335,-3,-2,1,-3,-3,-1,0,1,0.0922852,0.793945,0.438965,-0.5,1.6875,-3.1875,1.06217,-0.0993186,-2.48388
3337,3,-7,1,-2,-1,0,-1,-1,0.0795898,0.794434,0.441895,2.125,1.1875,-3.6875,1.0629,-0.0978204,-2.4841
3337,-3,9,2,-2,-2,5,-2,-3,0.0795898,0.794434,0.441895,2.125,1.1875,-3.6875,1.0629,-0.0978204,-2.4841
3350,-3,-20,-1,2,-2,2,-2,0,0.0795898,0.794434,0.441895,2.125,1.1875,-3.6875,1.0629,-0.0978204,-2.4841
3350,-1,-4,2,0,-1,-3,0,4,0.0795898,0.794434,0.441895,2.125,1.1875,-3.6875,1.0629,-0.0978204,-2.4841
3351,-5,12,-3,-4,-3,2,-4,-1,0.0917969,0.786621,0.436523,-0.9375,0.75,-3.6875,1.06262,-0.0965951,-2.48449
3351,1,-8,-1,-4,-3,-4,2,-1,0.0917969,0.786621,0.436523,-0.9375,0.75,-3.6875,1.06262,-0.0965951,-2.48449
3372,0,21,3,2,1,3,-1,3,0.0917969,0.786621,0.436523,-0.9375,0.75,-3.6875,1.06262,-0.0965951,-2.48449
3372,3,-8,2,0,-2,-3,1,-4,0.0917969,0.786621,0.436523,-0.9375,0.75,-3.6875,1.06262,-0.0965951,-2.48449
3374,1,-9,2,2,1,-9,-1,-1,0.0878906,0.790039,0.444824,-1.1875,0.75,-3.1875,1.06218,-0.0954773,-2.48487
3374,-2,14,-3,-3,1,7,-2,-1,0.0878906,0.790039,0.444824,-1.1875,0.75,-3.1875,1.06218,-0.0954773,-2.48487
3387,-4,-5,-3,-1,0,-1,-2,2,0.0878906,0.790039,0.444824,-1.1875,0.75,-3.1875,1.06218,-0.0954773,-2.48487
3387,-1,1,0,-2,-1,-2,0,-6,0.0878906,0.790039,0.444824,-1.1875,0.75,-3.1875,1.06218,-0.0954773,-2.48487
3388,2,-7,-1,1,2,1,1,4,0.0771484,0.785645,0.436523,-0.5625,0.4375,-1.6875,1.06209,-0.094796,-2.48497
3388,0,7,-1,-2,-4,-3,-2,-2,0.0771484,0.785645,0.436523,-0.5625,0.4375,-1.6875,1.06209,-0.094796,-2.48497
3409,-2,12,-2,-2,-3,0,-1,-4,0.0771484,0.785645,0.436523,-0.5625,0.4375,-1.6875,1.06209,-0.094796,-2.48497
3409,-6,-10,-2,-1,-1,-1,-1,3,0.0771484,0.785645,0.436523,-0.5625,0.4375,-1.6875,1.06209,-0.094796,-2.48497
3411,8,4,2,0,1,12,1,-2,0.0869141,0.774902,0.439453,-1,0.25,-1.5,1.06158,-0.0943229,-2.48519
3411,2,7,-5,0,-2,-11,0,-1,0.0869141,0.774902,0.439453,-1,0.25,-1.5,1.06158,-0.0943229,-2.48519
3432,-2,1,-7,-4,-2,-3,-3,-3,0.0869141,0.774902,0.439453,-1,0.25,-1.5,1.06158,-0.0943229,-2.48519
3432,-2,6,3,-2,-3,-3,-3,-2,0.0869141,0.774902,0.439453,-1,0.25,-1.5,1.06158,-0.0943229,-2.48519
3433,-4,-6,-2,2,1,1,-1,3,0.0791016,0.772949,0.442383,-1.625,0.125,-0.1875,1.06076,-0.0941164,-2.48502
3433,-1,-11,1,0,-1,-1,1,-1,0.0791016,0.772949,0.442383,-1.625,0.125,-0.1875,1.06076,-0.0941164,-2.48502
3446,3,-6,6,0,-6,-9,1,-1,0.0791016,0.772949,0.442383,-1.625,0.125,-0.1875,1.06076,-0.0941164,-2.48502
3446,-2,7,-18,-5,-2,1,-2,0,0.0791016,0.772949,0.442383,-1.625,0.125,-0.1875,1.06076,-0.0941164,-2.48502
3453,-3,0,0,-3,-3,-6,-2,-2,0.0776367,0.783203,0.438477,0.25,0.125,-0.125,1.06076,-0.0941164,-2.48502
3453,1,-8,5,-1,-3,5,0,0,0.0776367,0.783203,0.438477,0.25,0.125,-0.125,1.06076,-0.0941164,-2.48502
3470,0,17,0,-1,0,1,0,1,0.0776367,0.783203,0.438477,0.25,0.125,-0.125,1.06076,-0.0941164,-2.48502
3470,2,-10,2,1,1,-1,-2,-6,0.0776367,0.783203,0.438477,0.25,0.125,-0.125,1.06076,-0.0941164,-2.48502
3471,-2,14,4,-1,-2,-5,-1,-2,0.0786133,0.793945,0.445312,1.0625,1.0625,-0.3125,1.0611,-0.0936732,-2.48475
3471,-6,-9,-3,-1,-2,-2,-2,-5,0.0786133,0.793945,0.445312,1.0625,1.0625,-0.3125,1.0611,-0.0936732,-2.48475
3492,-2,9,4,-1,1,0,-1,1,0.0786133,0.793945,0.445312,1.0625,1.0625,-0.3125,1.0611,-0.0936732,-2.48475
3492,13,0,-1,0,1,5,0,2,0.0786133,0.793945,0.445312,1.0625,1.0625,-0.3125,1.0611,-0.0936732,-2.48475
3493,-6,-44,-10,-2,-3,6,-2,1,0.0688477,0.789062,0.441406,0.5625,1.0625,0.0625,1.0613,-0.0931933,-2.48442
3493,-3,3,-3,0,-2,-4,-2,-7,0.0688477,0.789062,0.441406,0.5625,1.0625,0.0625,1.0613,-0.0931933,-2.48442
3506,2,-5,-5,1,2,5,-1,-2,0.0688477,0.789062,0.441406,0.5625,1.0625,0.0625,1.0613,-0.0931933,-2.48442
3506,-4,7,3,-1,-1,-3,-1,-1,0.0688477,0.789062,0.441406,0.5625,1.0625,0.0625,1.0613,-0.0931933,-2.48442
3513,-1,17,-1,0,-1,-2,0,-2,0.0786133,0.783691,0.430664,-0.875,0,0.6875,1.0613,-0.0931933,-2.48442
3513,4,-8,6,2,2,1,0,6,0.0786133,0.783691,0.430664,-0.875,0,0.6875,1.0613,-0.0931933,-2.48442
3530,-4,-3,-1,-2,-1,-4,-2,-1,0.0786133,0.783691,0.430664,-0.875,0,0.6875,1.0613,-0.0931933,-2.48442
3530,-5,-1,-3,-2,-4,3,-2,-2,0.0786133,0.783691,0.430664,-0.875,0,0.6875,1.0613,-0.0931933,-2.48442
3531,0,-4,0,-1,0,0,1,0,0.0825195,0.790039,0.435547,-0.6875,0,1.375,1.06127,-0.0934731,-2.48423
3531,-2,-8,-2,-1,0,-1,0,1,0.0825195,0.790039,0.435547,-0.6875,0,1.375,1.06127,-0.0934731,-2.48423
3552,2,14,0,-4,-1,-3,-1,0,0.0825195,0.790039,0.435547,-0.6875,0,1.375,1.06127,-0.0934731,-2.48423
3552,-2,-13,2,-1,0,-4,-1,1,0.0825195,0.790039,0.435547,-0.6875,0,1.375,1.06127,-0.0934731,-2.48423
3554,0,11,5,-1,0,-2,-1,-2,0.0839844,0.785645,0.438477,-0.5625,-0.375,1.1875,1.06097,-0.0938692,-2.48406
3554,-3,-2,1,-2,-5,-4,-2,0,0.0839844,0.785645,0.438477,-0.5625,-0.375,1.1875,1.06097,-0.0938692,-2.48406
3567,10,15,3,3,3,5,-1,-6,0.0839844,0.785645,0.438477,-0.5625,-0.375,1.1875,1.06097,-0.0938692,-2.48406
3567,-5,-40,-11,1,-5,6,3,2,0.0839844,0.785645,0.438477,-0.5625,-0.375,1.1875,1.06097,-0.0938692,-2.48406
3574,-1,3,0,0,-4,-6,-2,-5,0.0888672,0.783203,0.445312,0,-0.75,1.1875,1.06082,-0.0944461,-2.48402
3574,-1,4,4,0,2,1,-1,-2,0.0888672,0.783203,0.445312,0,-0.75,1.1875,1.06082,-0.0944461,-2.48402
3590,-4,4,-12,-3,-6,-5,-1,-1,0.0888672,0.783203,0.445312,0,-0.75,1.1875,1.06082,-0.0944461,-2.48402
3590,1,7,3,-3,-1,0,0,2,0.0888672,0.783203,0.445312,0,-0.75,1.1875,1.06082,-0.0944461,-2.48402
3592,3,0,-2,0,1,-6,-1,3,0.0864258,0.788086,0.450195,-0.4375,-0.125,0.25,1.06082,-0.0944461,-2.48402
3592,2,-4,-4,-1,-3,-3,-3,-3,0.0864258,0.788086,0.450195,-0.4375,-0.125,0.25,1.06082,-0.0944461,-2.48402
3612,-5,-19,-6,0,2,0,0,-7,0.0864258,0.788086,0.450195,-0.4375,-0.125,0.25,1.06082,-0.0944461,-2.48402
3612,4,4,8,-1,0,-3,-3,-1,0.0864258,0.788086,0.450195,-0.4375,-0.125,0.25,1.06082,-0.0944461,-2.48402
3613,-4,13,-10,-4,-2,-2,-1,-4,0.0947266,0.787109,0.441895,0.25,0.125,-0.3125,1.06077,-0.0945452,-2.48407
3613,2,1,7,-1,0,-1,-3,2,0.0947266,0.787109,0.441895,0.25,0.125,-0.3125,1.06077,-0.0945452,-2.48407
3635,-2,-12,4,1,-1,-1,2,1,0.0947266,0.787109,0.441895,0.25,0.125,-0.3125,1.06077,-0.0945452,-2.48407
3635,-1,23,-7,-2,-2,-8,-2,-3,0.0947266,0.787109,0.441895,0.25,0.125,-0.3125,1.06077,-0.0945452,-2.48407
3636,-3,-27,-6,-1,4,-1,1,-1,0.0883789,0.794434,0.438965,-0.9375,0.375,0.0625,1.06077,-0.0945452,-2.48407
3636,-3,4,-1,-4,-2,9,0,-2,0.0883789,0.794434,0.438965,-0.9375,0.375,0.0625,1.06077,-0.0945452,-2.48407
3649,-10,-2,1,0,-2,3,-2,0,0.0883789,0.794434,0.438965,-0.9375,0.375,0.0625,1.06077,-0.0945452,-2.48407
3649,4,6,6,1,-2,-5,1,1,0.0883789,0.794434,0.438965,-0.9375,0.375,0.0625,1.06077,-0.0945452,-2.48407
3657,3,-7,-5,-1,0,-1,0,3,0.0776367,0.798828,0.432617,-1.0625,0.5625,1.5,1.06076,-0.0947412,-2.48374
3657,0,33,-2,0,2,1,0,0,0.0776367,0.798828,0.432617,-1.0625,0.5625,1.5,1.06076,-0.0947412,-2.48374
3672,-9,-13,-1,-3,-5,-4,-2,-2,0.0776367,0.798828,0.432617,-1.0625,0.5625,1.5,1.06076,-0.0947412,-2.48374
3672,-1,-9,1,0,1,-3,-4,1,0.0776367,0.798828,0.432617,-1.0625,0.5625,1.5,1.06076,-0.0947412,-2.48374
3679,0,15,3,0,-4,0,-1,0,0.0722656,0.77832,0.45166,-1.625,0,-0.3125,1.05985,-0.0943227,-2.48363
3679,-1,-11,-7,-1,0,-4,-1,1,0.0722656,0.77832,0.45166,-1.625,0,-0.3125,1.05985,-0.0943227,-2.48363
3687,2,2,1,0,-1,4,-6,-3,0.0722656,0.77832,0.45166,-1.625,0,-0.3125,1.05985,-0.0943227,-2.48363
3687,1,4,1,-2,0,1,1,3,0.0722656,0.77832,0.45166,-1.625,0,-0.3125,1.05985,-0.0943227,-2.48363
3701,1,-13,-8,-2,-2,-2,-1,-10,0.0810547,0.771973,0.4375,1.3125,-0.125,-1.0625,1.06027,-0.0939187,-2.48384
3701,-1,1,13,-1,-4,-4,-1,-1,0.0810547,0.771973,0.4375,1.3125,-0.125,-1.0625,1.06027,-0.0939187,-2.48384
3710,-3,2,-5,-4,-4,-3,-2,-3,0.0810547,0.771973,0.4375,1.3125,-0.125,-1.0625,1.06027,-0.0939187,-2.48384
3710,-4,-10,-7,-1,3,6,-1,-1,0.0810547,0.771973,0.4375,1.3125,-0.125,-1.0625,1.06027,-0.0939187,-2.48384
3711,-3,9,6,0,-3,0,-2,0,0.0888672,0.79248,0.443848,2.625,-0.125,-0.25,1.0611,-0.0939816,-2.48395
3711,4,-9,-5,0,1,3,1,1,0.0888672,0.79248,0.443848,2.625,-0.125,-0.25,1.0611,-0.0939816,-2.48395
3732,0,-16,2,0,-1,-20,1,1,0.0888672,0.79248,0.443848,2.625,-0.125,-0.25,1.0611,-0.0939816,-2.48395
3732,-4,27,5,-3,-2,6,-2,-2,0.0888672,0.79248,0.443848,2.625,-0.125,-0.25,1.0611,-0.0939816,-2.48395
3734,15,-75,-14,-6,-3,-1,0,4,0.0795898,0.804199,0.4375,-0.75,0.1875,0.4375,1.06115,-0.0938826,-2.48391
3734,-6,23,-10,-1,-1,-2,-2,-3,0.0795898,0.804199,0.4375,-0.75,0.1875,0.4375,1.06115,-0.0938826,-2.48391
3746,0,1,7,3,2,-3,0,2,0.0795898,0.804199,0.4375,-0.75,0.1875,0.4375,1.06115,-0.0938826,-2.48391
3746,-3,-4,-7,1,-1,-1,0,-1,0.0795898,0.804199,0.4375,-0.75,0.1875,0.4375,1.06115,-0.0938826,-2.48391
3753,-3,32,12,-2,-4,-10,-3,-1,0.0859375,0.787598,0.438965,-0.125,0,0.125,1.06115,-0.0938826,-2.48391
3753,0,-24,-9,-2,0,-1,1,4,0.0859375,0.787598,0.438965,-0.125,0,0.125,1.06115,-0.0938826,-2.48391
3770,6,-1,1,-1,0,8,0,-4,0.0859375,0.787598,0.438965,-0.125,0,0.125,1.06115,-0.0938826,-2.48391
3770,-3,-6,-2,-1,-1,-5,-2,0,0.0859375,0.787598,0.438965,-0.125,0,0.125,1.06115,-0.0938826,-2.48391
3772,-2,19,-3,-4,-4,2,-1,0,0.0869141,0.783203,0.441406,0.9375,0.25,-0.4375,1.06115,-0.0938826,-2.48391
3772,0,-9,9,0,2,3,-1,-3,0.0869141,0.783203,0.441406,0.9375,0.25,-0.4375,1.06115,-0.0938826,-2.48391
3792,0,-8,3,4,0,3,2,5,0.0869141,0.783203,0.441406,0.9375,0.25,-0.4375,1.06115,-0.0938826,-2.48391
3792,-3,-1,-3,-2,1,0,-2,-1,0.0869141,0.783203,0.441406,0.9375,0.25,-0.4375,1.06115,-0.0938826,-2.48391
3794,-5,18,-5,2,0,4,1,-1,0.0820312,0.794922,0.45166,1.625,0.125,-0.1875,1.06152,-0.0937736,-2.48384
3794,-1,2,-3,-2,-5,-3,-2,1,0.0820312,0.794922,0.45166,1.625,0.125,-0.1875,1.06152,-0.0937736,-2.48384
3807,-4,-21,-2,-8,-6,-6,-3,0,0.0820312,0.794922,0.45166,1.625,0.125,-0.1875,1.06152,-0.0937736,-2.48384
3807,2,5,3,2,3,3,0,1,0.0820312,0.794922,0.45166,1.625,0.125,-0.1875,1.06152,-0.0937736,-2.48384
3814,-3,8,6,1,3,6,-2,-2,0.0834961,0.789551,0.445312,2.625,-0.3125,0.5625,1.06236,-0.0939572,-2.4838
3814,0,-10,-5,-1,-2,-3,-1,-3,0.0834961,0.789551,0.445312,2.625,-0.3125,0.5625,1.06236,-0.0939572,-2.4838
3837,-1,42,7,1,1,-5,1,-2,0.0834961,0.789551,0.445312,2.625,-0.3125,0.5625,1.06236,-0.0939572,-2.4838
3837,-2,-71,-16,-3,-4,-9,-3,-1,0.0834961,0.789551,0.445312,2.625,-0.3125,0.5625,1.06236,-0.0939572,-2.4838
3838,-3,13,1,-1,-1,3,-1,-1,0.0834961,0.780762,0.432129,0.5625,-0.75,1.9375,1.06261,-0.0946755,-2.48375
3838,-5,-23,0,0,0,1,1,0,0.0834961,0.780762,0.432129,0.5625,-0.75,1.9375,1.06261,-0.0946755,-2.48375
3852,1,-5,-8,-7,-5,-4,-7,-4,0.0834961,0.780762,0.432129,0.5625,-0.75,1.9375,1.06261,-0.0946755,-2.48375
3852,3,11,4,1,0,15,0,-1,0.0834961,0.780762,0.432129,0.5625,-0.75,1.9375,1.06261,-0.0946755,-2.48375
3854,-4,6,5,-1,0,0,-3,-1,0.0878906,0.785645,0.432129,0.5625,-1.375,2.0625,1.06289,-0.095644,-2.48378
3854,4,12,12,3,0,-4,0,0,0.0878906,0.785645,0.432129,0.5625,-1.375,2.0625,1.06289,-0.095644,-2.48378
3866,-6,-54,-20,-5,-4,-3,0,0,0.0878906,0.785645,0.432129,0.5625,-1.375,2.0625,1.06289,-0.095644,-2.48378
3866,-8,-7,-3,-2,-5,-12,-2,-4,0.0878906,0.785645,0.432129,0.5625,-1.375,2.0625,1.06289,-0.095644,-2.48378
3875,2,30,4,0,-1,2,0,-1,0.0742188,0.79834,0.433594,2.1875,-0.375,1.5625,1.06394,-0.0957656,-2.48375
3875,0,-26,-3,0,1,1,-2,-2,0.0742188,0.79834,0.433594,2.1875,-0.375,1.5625,1.06394,-0.0957656,-2.48375
3890,0,-1,-3,3,2,-12,0,0,0.0742188,0.79834,0.433594,2.1875,-0.375,1.5625,1.06394,-0.0957656,-2.48375
3890,-9,23,3,-4,-1,0,-4,-4,0.0742188,0.79834,0.433594,2.1875,-0.375,1.5625,1.06394,-0.0957656,-2.48375
3892,0,5,6,1,-1,-2,2,0,0.078125,0.79834,0.438965,3.75,-0.0625,-0.125,1.06523,-0.0955219,-2.4837
3892,-3,-12,0,0,-1,-3,-3,-5,0.078125,0.79834,0.438965,3.75,-0.0625,-0.125,1.06523,-0.0955219,-2.4837
3912,7,29,-2,2,0,7,3,0,0.078125,0.79834,0.438965,3.75,-0.0625,-0.125,1.06523,-0.0955219,-2.4837
3912,-4,-21,-9,0,-2,1,1,-2,0.078125,0.79834,0.438965,3.75,-0.0625,-0.125,1.06523,-0.0955219,-2.4837
3919,-15,12,7,-3,-1,-11,-6,-3,0.0878906,0.796875,0.441406,1.8125,-0.375,0.6875,1.06589,-0.0958282,-2.48356
3919,2,-1,-6,-2,0,5,-1,0,0.0878906,0.796875,0.441406,1.8125,-0.375,0.6875,1.06589,-0.0958282,-2.48356
3935,1,33,16,2,2,15,-1,1,0.0878906,0.796875,0.441406,1.8125,-0.375,0.6875,1.06589,-0.0958282,-2.48356
3935,3,-28,-18,-4,-5,-7,-4,-11,0.0878906,0.796875,0.441406,1.8125,-0.375,0.6875,1.06589,-0.0958282,-2.48356
3936,-1,-16,0,2,0,4,1,1,0.0947266,0.793457,0.439941,-0.4375,-0.375,1.9375,1.06567,-0.0965801,-2.4834
3936,5,35,-4,-1,-1,-6,-1,2,0.0947266,0.793457,0.439941,-0.4375,-0.375,1.9375,1.06567,-0.0965801,-2.4834
3949,-2,5,14,1,2,2,0,-2,0.0947266,0.793457,0.439941,-0.4375,-0.375,1.9375,1.06567,-0.0965801,-2.4834
3949,-2,23,7,-2,1,-11,1,4,0.0947266,0.793457,0.439941,-0.4375,-0.375,1.9375,1.06567,-0.0965801,-2.4834
3952,-1,-26,-6,-2,1,11,0,-1,0.0864258,0.783691,0.437012,-0.375,-0.0625,1.9375,1.06537,-0.0972413,-2.48314
3952,-2,2,-8,-4,-4,-17,-1,-2,0.0864258,0.783691,0.437012,-0.375,-0.0625,1.9375,1.06537,-0.0972413,-2.48314
3980,0,-7,-4,-2,3,20,1,0,0.0864258,0.783691,0.437012,-0.375,-0.0625,1.9375,1.06537,-0.0972413,-2.48314
3980,3,-4,5,1,1,-2,1,1,0.0864258,0.783691,0.437012,-0.375,-0.0625,1.9375,1.06537,-0.0972413,-2.48314
3981,-3,0,-16,-2,-4,-7,-3,-5,0.090332,0.788086,0.44043,0.6875,-0.0625,1.375,1.0656,-0.0976263,-2.48289
3981,3,18,20,1,0,-2,-1,-4,0.090332,0.788086,0.44043,0.6875,-0.0625,1.375,1.0656,-0.0976263,-2.48289
3986,-4,-10,-11,-3,-3,-3,-3,-1,0.090332,0.788086,0.44043,0.6875,-0.0625,1.375,1.0656,-0.0976263,-2.48289
3986,4,-1,1,-1,-3,-5,1,7,0.090332,0.788086,0.44043,0.6875,-0.0625,1.375,1.0656,-0.0976263,-2.48289
4002,-5,-4,-3,-2,-2,-7,-1,-6,0.0874023,0.799805,0.438965,2.375,-0.3125,-0.125,1.06649,-0.0976511,-2.48288
4002,3,-19,-5,-2,0,13,2,0,0.0874023,0.799805,0.438965,2.375,-0.3125,-0.125,1.06649,-0.0976511,-2.48288
4016,-3,34,0,-1,-2,-11,-1,-1,0.0874023,0.799805,0.438965,2.375,-0.3125,-0.125,1.06649,-0.0976511,-2.48288
4016,-5,-27,0,-2,-2,3,-3,-4,0.0874023,0.799805,0.438965,2.375,-0.3125,-0.125,1.06649,-0.0976511,-2.48288
4024,1,-7,-2,1,0,-2,0,4,0.0869141,0.800781,0.438477,-1,-0.0625,0.25,1.06649,-0.0976511,-2.48288
4024,-7,-8,-7,-2,-1,-1,-3,-4,0.0869141,0.800781,0.438477,-1,-0.0625,0.25,1.06649,-0.0976511,-2.48288
4032,5,-2,-1,0,-1,1,0,1,0.0869141,0.800781,0.438477,-1,-0.0625,0.25,1.06649,-0.0976511,-2.48288
4032,5,40,28,4,2,-1,3,4,0.0869141,0.800781,0.438477,-1,-0.0625,0.25,1.06649,-0.0976511,-2.48288
4033,1,-9,-12,-2,-1,7,0,1,0.0917969,0.791504,0.424316,-2.375,-0.6875,0.8125,1.06587,-0.0980644,-2.48304
4033,-4,-9,3,-4,-3,9,-1,0,0.0917969,0.791504,0.424316,-2.375,-0.6875,0.8125,1.06587,-0.0980644,-2.48304
4046,2,0,-2,-3,-3,-22,-2,1,0.0917969,0.791504,0.424316,-2.375,-0.6875,0.8125,1.06587,-0.0980644,-2.48304
4046,-7,-1,-6,2,-1,3,-2,-4,0.0917969,0.791504,0.424316,-2.375,-0.6875,0.8125,1.06587,-0.0980644,-2.48304
4055,-2,-38,-7,-1,1,-3,-1,-4,0.0820312,0.789551,0.437012,-2.3125,-0.875,1.25,1.06513,-0.0984863,-2.48315
4055,-1,20,0,1,0,-1,-1,-2,0.0820312,0.789551,0.437012,-2.3125,-0.875,1.25,1.06513,-0.0984863,-2.48315
4070,-2,-16,-4,-3,-3,-3,-3,1,0.0820312,0.789551,0.437012,-2.3125,-0.875,1.25,1.06513,-0.0984863,-2.48315
4070,3,17,2,-3,-5,-3,0,2,0.0820312,0.789551,0.437012,-2.3125,-0.875,1.25,1.06513,-0.0984863,-2.48315
4071,2,15,9,-2,-6,-4,-1,-1,0.0825195,0.789551,0.43457,-0.3125,-1.125,0.875,1.065,-0.0987829,-2.48329
4071,9,-16,-6,2,3,-6,1,3,0.0825195,0.789551,0.43457,-0.3125,-1.125,0.875,1.065,-0.0987829,-2.48329
4092,-2,-5,-3,-2,-2,9,1,1,0.0825195,0.789551,0.43457,-0.3125,-1.125,0.875,1.065,-0.0987829,-2.48329
4092,-3,27,-4,-2,-1,-3,-3,-9,0.0825195,0.789551,0.43457,-0.3125,-1.125,0.875,1.065,-0.0987829,-2.48329
4094,5,4,5,-2,0,1,-2,4,0.0776367,0.789551,0.440918,-1.5625,-0.5,0.875,1.06456,-0.0988009,-2.48326
4094,-7,4,-3,-2,-2,-11,-2,-6,0.0776367,0.789551,0.440918,-1.5625,-0.5,0.875,1.06456,-0.0988009,-2.48326
4106,-2,-18,-3,-1,2,-5,3,4,0.0776367,0.789551,0.440918,-1.5625,-0.5,0.875,1.06456,-0.0988009,-2.48326
4106,0,0,-2,-2,0,-6,-5,2,0.0776367,0.789551,0.440918,-1.5625,-0.5,0.875,1.06456,-0.0988009,-2.48326
4123,0,-8,1,0,2,1,-2,0,0.0922852,0.788086,0.442871,0,-0.8125,0.5,1.06436,-0.0988628,-2.48324
4123,-6,12,-7,0,-1,0,-1,-1,0.0922852,0.788086,0.442871,0,-0.8125,0.5,1.06436,-0.0988628,-2.48324
4130,-1,-1,2,0,0,-2,-1,-5,0.0922852,0.788086,0.442871,0,-0.8125,0.5,1.06436,-0.0988628,-2.48324
4130,2,0,10,3,-2,3,4,-2,0.0922852,0.788086,0.442871,0,-0.8125,0.5,1.06436,-0.0988628,-2.48324
4132,-2,-2,-5,-1,-1,-3,2,0,0.0883789,0.79834,0.445801,0.1875,-0.125,0.5625,1.0644,-0.0987639,-2.48319
4132,-2,-19,2,0,-2,-9,-2,1,0.0883789,0.79834,0.445801,0.1875,-0.125,0.5625,1.0644,-0.0987639,-2.48319
4152,-4,33,-6,-4,-3,9,0,-5,0.0883789,0.79834,0.445801,0.1875,-0.125,0.5625,1.0644,-0.0987639,-2.48319
4152,-14,-8,-4,-3,-2,-2,-1,-2,0.0883789,0.79834,0.445801,0.1875,-0.125,0.5625,1.0644,-0.0987639,-2.48319
4154,5,5,1,-1,-1,-2,0,1,0.090332,0.789551,0.439453,-0.6875,0.0625,0,1.06436,-0.0988628,-2.48324
4154,-2,-17,-1,2,0,6,1,0,0.090332,0.789551,0.439453,-0.6875,0.0625,0,1.06436,-0.0988628,-2.48324
4166,-5,-15,-2,1,0,-10,-2,-4,0.090332,0.789551,0.439453,-0.6875,0.0625,0,1.06436,-0.0988628,-2.48324
4166,2,-1,0,2,4,17,-1,5,0.090332,0.789551,0.439453,-0.6875,0.0625,0,1.06436,-0.0988628,-2.48324
4175,-2,2,-5,-2,-5,-9,0,0,0.09375,0.782227,0.436035,-1.5625,-0.4375,-0.625,1.06389,-0.0988436,-2.48351
4175,-2,4,-2,0,0,0,-1,-6,0.09375,0.782227,0.436035,-1.5625,-0.4375,-0.625,1.06389,-0.0988436,-2.48351
4190,-2,-6,-2,-5,-3,-3,-4,-1,0.09375,0.782227,0.436035,-1.5625,-0.4375,-0.625,1.06389,-0.0988436,-2.48351
4190,0,-8,-2,-3,-4,4,0,-10,0.09375,0.782227,0.436035,-1.5625,-0.4375,-0.625,1.06389,-0.0988436,-2.48351
4191,5,37,9,6,3,-2,0,3,0.097168,0.797363,0.443848,1,0.9375,-1.5625,1.06418,-0.0984396,-2.48336
4191,-4,-50,-18,-6,-3,1,-2,0,0.097168,0.797363,0.443848,1,0.9375,-1.5625,1.06418,-0.0984396,-2.48336
4212,-4,11,5,1,-2,2,-1,0,0.097168,0.797363,0.443848,1,0.9375,-1.5625,1.06418,-0.0984396,-2.48336
4212,5,0,-4,0,1,-9,1,3,0.097168,0.797363,0.443848,1,0.9375,-1.5625,1.06418,-0.0984396,-2.48336
4218,2,2,6,-1,-3,2,1,2,0.0898438,0.797363,0.439941,2,0.875,-1.5625,1.06499,-0.097843,-2.48337
4218,-1,13,3,0,-1,-1,-3,-9,0.0898438,0.797363,0.439941,2,0.875,-1.5625,1.06499,-0.097843,-2.48337
4235,-15,-8,-2,-2,-1,0,-4,-9,0.0898438,0.797363,0.439941,2,0.875,-1.5625,1.06499,-0.097843,-2.48337
4235,5,-22,-12,-2,0,0,0,2,0.0898438,0.797363,0.439941,2,0.875,-1.5625,1.06499,-0.097843,-2.48337
4237,-5,1,-3,-2,-1,-10,-2,-2,0.0844727,0.792969,0.435547,-1.1875,0.3125,-1.625,1.06456,-0.0971106,-2.48357
4237,4,12,2,0,-5,-10,2,10,0.0844727,0.792969,0.435547,-1.1875,0.3125,-1.625,1.06456,-0.0971106,-2.48357
4257,1,-20,-1,-3,1,24,2,-1,0.0844727,0.792969,0.435547,-1.1875,0.3125,-1.625,1.06456,-0.0971106,-2.48357
4257,-2,19,1,-1,-2,-5,-1,-4,0.0844727,0.792969,0.435547,-1.1875,0.3125,-1.625,1.06456,-0.0971106,-2.48357
4259,-3,-10,-4,-2,-1,0,-3,-2,0.0878906,0.783203,0.438477,-1.625,-0.1875,-0.75,1.06398,-0.0969555,-2.48372
4259,-2,12,-2,3,1,-1,-3,-8,0.0878906,0.783203,0.438477,-1.625,-0.1875,-0.75,1.06398,-0.0969555,-2.48372
4280,-1,-21,0,-1,-3,-4,-1,-3,0.0878906,0.783203,0.438477,-1.625,-0.1875,-0.75,1.06398,-0.0969555,-2.48372
4280,2,9,2,-1,-1,-7,-1,2,0.0878906,0.783203,0.438477,-1.625,-0.1875,-0.75,1.06398,-0.0969555,-2.48372
4281,-1,-3,-5,-2,1,8,-1,2,0.0839844,0.777344,0.442871,-0.125,0.0625,-0.5,1.06401,-0.0969403,-2.48382
4281,2,8,1,-2,-3,2,-1,6,0.0839844,0.777344,0.442871,-0.125,0.0625,-0.5,1.06401,-0.0969403,-2.48382
4286,7,2,3,0,1,-3,1,12,0.0839844,0.777344,0.442871,-0.125,0.0625,-0.5,1.06401,-0.0969403,-2.48382
4286,-7,0,-10,0,-1,1,-1,-23,0.0839844,0.777344,0.442871,-0.125,0.0625,-0.5,1.06401,-0.0969403,-2.48382
4295,-11,-10,-2,-4,-4,-7,-8,-10,0.0825195,0.779297,0.434082,-0.9375,-0.0625,0.4375,1.06401,-0.0969403,-2.48382
4295,1,3,6,-1,-2,-3,0,4,0.0825195,0.779297,0.434082,-0.9375,-0.0625,0.4375,1.06401,-0.0969403,-2.48382
4317,4,1,2,2,-1,2,1,-6,0.0825195,0.779297,0.434082,-0.9375,-0.0625,0.4375,1.06401,-0.0969403,-2.48382
4317,17,21,-1,1,2,5,6,11,0.0825195,0.779297,0.434082,-0.9375,-0.0625,0.4375,1.06401,-0.0969403,-2.48382
4319,5,-2,3,-1,-1,-2,0,2,0.0800781,0.789062,0.442383,-1.0625,0,2,1.0635,-0.0973295,-2.48334
4319,-8,-13,-3,-1,1,-1,-2,-10,0.0800781,0.789062,0.442383,-1.0625,0,2,1.0635,-0.0973295,-2.48334
4333,4,27,-11,-4,-4,-14,-3,3,0.0800781,0.789062,0.442383,-1.0625,0,2,1.0635,-0.0973295,-2.48334
4333,1,-17,6,-1,-2,1,0,2,0.0800781,0.789062,0.442383,-1.0625,0,2,1.0635,-0.0973295,-2.48334
4334,0,33,-1,-1,4,15,2,-5,0.0839844,0.783203,0.451172,-0.0625,-0.25,1.5,1.06308,-0.0977337,-2.48312
4334,-1,5,4,2,1,2,3,5,0.0839844,0.783203,0.451172,-0.0625,-0.25,1.5,1.06308,-0.0977337,-2.48312
4354,6,-1,0,2,2,3,3,15,0.0839844,0.783203,0.451172,-0.0625,-0.25,1.5,1.06308,-0.0977337,-2.48312
4354,-3,-8,-3,-1,1,-4,-4,-20,0.0839844,0.783203,0.451172,-0.0625,-0.25,1.5,1.06308,-0.0977337,-2.48312
4357,-21,-6,-3,-5,-4,-8,-8,-18,0.0883789,0.788574,0.438477,0.8125,0.625,1.25,1.0634,-0.0979205,-2.48278
4357,-13,-1,5,-3,0,-1,-3,0,0.0883789,0.788574,0.438477,0.8125,0.625,1.25,1.0634,-0.0979205,-2.48278
4370,-2,0,-10,0,-4,-5,-2,-1,0.0883789,0.788574,0.438477,0.8125,0.625,1.25,1.0634,-0.0979205,-2.48278
4370,3,-3,1,-1,-3,-6,0,14,0.0883789,0.788574,0.438477,0.8125,0.625,1.25,1.0634,-0.0979205,-2.48278
4371,10,-14,0,2,1,1,3,4,0.090332,0.796875,0.436035,0.5,0.875,1.6875,1.06365,-0.0983425,-2.48224
4371,-1,-3,-5,-3,-1,0,-1,-2,0.090332,0.796875,0.436035,0.5,0.875,1.6875,1.06365,-0.0983425,-2.48224
4392,4,-12,8,1,2,0,1,2,0.090332,0.796875,0.436035,0.5,0.875,1.6875,1.06365,-0.0983425,-2.48224
4392,-8,29,-1,-6,-1,-2,-4,0,0.090332,0.796875,0.436035,0.5,0.875,1.6875,1.06365,-0.0983425,-2.48224
4394,0,-6,-6,-1,0,-2,0,-1,0.104492,0.796387,0.441895,0.125,0.5,-0.25,1.06362,-0.0985019,-2.4822
4394,1,-1,-4,1,-1,3,1,-4,0.104492,0.796387,0.441895,0.125,0.5,-0.25,1.06362,-0.0985019,-2.4822
4415,6,6,4,0,-1,-1,-1,12,0.104492,0.796387,0.441895,0.125,0.5,-0.25,1.06362,-0.0985019,-2.4822
4415,-7,-15,2,0,-5,-6,-5,-22,0.104492,0.796387,0.441895,0.125,0.5,-0.25,1.06362,-0.0985019,-2.4822
4416,-7,3,-1,0,-1,0,-2,-4,0.0947266,0.786133,0.433594,1.125,1,0.0625,1.06398,-0.0983854,-2.48183
4416,2,-35,-12,-3,-2,0,0,5,0.0947266,0.786133,0.433594,1.125,1,0.0625,1.06398,-0.0983854,-2.48183
4430,-8,-13,-3,0,2,11,-1,-3,0.0947266,0.786133,0.433594,1.125,1,0.0625,1.06398,-0.0983854,-2.48183
4430,2,1,2,-1,-2,-7,2,9,0.0947266,0.786133,0.433594,1.125,1,0.0625,1.06398,-0.0983854,-2.48183
4431,6,-9,1,1,2,19,2,5,0.0708008,0.791992,0.434082,-1.125,0.4375,1.25,1.06376,-0.098318,-2.4816
4431,0,10,1,-3,-5,-10,-4,-10,0.0708008,0.791992,0.434082,-1.125,0.4375,1.25,1.06376,-0.098318,-2.4816
4452,-16,-9,-2,-2,-2,-12,-3,-7,0.0708008,0.791992,0.434082,-1.125,0.4375,1.25,1.06376,-0.098318,-2.4816
4452,-2,5,-1,0,-2,6,0,6,0.0708008,0.791992,0.434082,-1.125,0.4375,1.25,1.06376,-0.098318,-2.4816
4454,-1,9,-2,-2,0,-6,1,1,0.0888672,0.787598,0.439453,0.25,0.125,-0.625,1.06376,-0.098318,-2.4816
4454,1,4,-4,1,3,0,0,0,0.0888672,0.787598,0.439453,0.25,0.125,-0.625,1.06376,-0.098318,-2.4816
4474,4,5,1,1,2,4,-4,-5,0.0888672,0.787598,0.439453,0.25,0.125,-0.625,1.06376,-0.098318,-2.4816
4474,-2,-4,3,-1,-1,-2,-1,2,0.0888672,0.787598,0.439453,0.25,0.125,-0.625,1.06376,-0.098318,-2.4816
4476,1,-15,-2,-2,-3,-7,-1,3,0.0839844,0.800293,0.443848,2.3125,1.3125,-0.625,1.06444,-0.0977828,-2.48117
4476,-6,7,1,-5,-6,-3,-7,-19,0.0839844,0.800293,0.443848,2.3125,1.3125,-0.625,1.06444,-0.0977828,-2.48117
4488,-1,-6,-3,-4,-4,1,2,0,0.0839844,0.800293,0.443848,2.3125,1.3125,-0.625,1.06444,-0.0977828,-2.48117
4488,1,-5,-1,1,4,10,2,-2,0.0839844,0.800293,0.443848,2.3125,1.3125,-0.625,1.06444,-0.0977828,-2.48117
4496,3,-1,-3,-2,-2,-1,0,1,0.0893555,0.812988,0.43457,1.6875,1.3125,-2.625,1.06536,-0.096709,-2.48127
4496,3,-7,2,1,1,-3,6,8,0.0893555,0.812988,0.43457,1.6875,1.3125,-2.625,1.06536,-0.096709,-2.48127
4512,-2,33,7,2,0,-7,-8,-7,0.0893555,0.812988,0.43457,1.6875,1.3125,-2.625,1.06536,-0.096709,-2.48127
4512,7,-52,-3,-4,-6,-6,-6,-1,0.0893555,0.812988,0.43457,1.6875,1.3125,-2.625,1.06536,-0.096709,-2.48127
4513,-3,30,-4,-2,-3,5,1,0,0.0966797,0.805664,0.441406,0.5625,1.8125,-2.4375,1.06566,-0.0958961,-2.4811
4513,1,4,-2,0,4,-4,1,2,0.0966797,0.805664,0.441406,0.5625,1.8125,-2.4375,1.06566,-0.0958961,-2.4811
4536,0,-2,0,-1,-3,-13,3,-2,0.0966797,0.805664,0.441406,0.5625,1.8125,-2.4375,1.06566,-0.0958961,-2.4811
4536,-10,7,-3,-3,0,-17,0,4,0.0966797,0.805664,0.441406,0.5625,1.8125,-2.4375,1.06566,-0.0958961,-2.4811
4537,4,0,7,1,4,35,-1,-1,0.0888672,0.790039,0.428711,-1.75,1.5,-2.625,1.06533,-0.095026,-2.48112
4537,1,-14,-4,0,0,3,3,3,0.0888672,0.790039,0.428711,-1.75,1.5,-2.625,1.06533,-0.095026,-2.48112
4558,-3,7,-4,-1,0,-9,0,-11,0.0888672,0.790039,0.428711,-1.75,1.5,-2.625,1.06533,-0.095026,-2.48112
4558,-5,-22,-7,-2,-1,6,-3,3,0.0888672,0.790039,0.428711,-1.75,1.5,-2.625,1.06533,-0.095026,-2.48112
4559,0,-5,1,-3,-2,-7,-2,-1,0.0844727,0.79541,0.434082,-1.5625,1.125,-2.9375,1.06491,-0.0938837,-2.48128
4559,-17,21,0,-1,-3,-3,-4,-4,0.0844727,0.79541,0.434082,-1.5625,1.125,-2.9375,1.06491,-0.0938837,-2.48128
4572,14,-19,5,6,4,12,-1,0,0.0844727,0.79541,0.434082,-1.5625,1.125,-2.9375,1.06491,-0.0938837,-2.48128
4572,-3,41,3,-1,-3,-10,0,1,0.0844727,0.79541,0.434082,-1.5625,1.125,-2.9375,1.06491,-0.0938837,-2.48128
4574,8,-7,0,2,2,4,8,2,0.0825195,0.786621,0.443848,2.375,1.1875,-4.375,1.06549,-0.0922893,-2.48152
4574,-1,-4,0,-4,-2,27,-3,-1,0.0825195,0.786621,0.443848,2.375,1.1875,-4.375,1.06549,-0.0922893,-2.48152
4602,-7,-12,-9,-3,-7,18,-6,-1,0.0825195,0.786621,0.443848,2.375,1.1875,-4.375,1.06549,-0.0922893,-2.48152
4602,0,8,8,1,-4,0,-6,-6,0.0825195,0.786621,0.443848,2.375,1.1875,-4.375,1.06549,-0.0922893,-2.48152
4604,-1,-12,0,3,0,-14,0,1,0.0805664,0.800293,0.437988,4.3125,2.4375,-6,1.06708,-0.0900372,-2.48179
4604,4,19,1,-1,1,-12,-1,1,0.0805664,0.800293,0.437988,4.3125,2.4375,-6,1.06708,-0.0900372,-2.48179
4609,0,6,6,-4,-1,-4,2,-4,0.0805664,0.800293,0.437988,4.3125,2.4375,-6,1.06708,-0.0900372,-2.48179
4609,-19,3,-9,-5,2,13,3,2,0.0805664,0.800293,0.437988,4.3125,2.4375,-6,1.06708,-0.0900372,-2.48179
4616,0,-7,-2,0,-2,-13,-4,4,0.0712891,0.808105,0.456543,6.3125,2.6875,-8.0625,1.06908,-0.0868501,-2.48238
4616,7,-8,1,-1,-2,-17,-5,-1,0.0712891,0.808105,0.456543,6.3125,2.6875,-8.0625,1.06908,-0.0868501,-2.48238
4632,-7,1,-2,2,1,7,0,-9,0.0712891,0.808105,0.456543,6.3125,2.6875,-8.0625,1.06908,-0.0868501,-2.48238
4632,1,-13,-1,1,3,6,0,3,0.0712891,0.808105,0.456543,6.3125,2.6875,-8.0625,1.06908,-0.0868501,-2.48238
4634,0,-3,-6,-2,-9,-48,0,7,0.0649414,0.796875,0.4375,2.4375,2.5,-7.6875,1.07,-0.08376,-2.48291
4634,2,4,-2,2,8,38,4,5,0.0649414,0.796875,0.4375,2.4375,2.5,-7.6875,1.07,-0.08376,-2.48291
4654,-3,12,-1,-4,-6,3,-1,-6,0.0649414,0.796875,0.4375,2.4375,2.5,-7.6875,1.07,-0.08376,-2.48291
4654,3,-6,-2,-4,-4,-2,-4,-1,0.0649414,0.796875,0.4375,2.4375,2.5,-7.6875,1.07,-0.08376,-2.48291
4656,-6,-8,1,-2,0,-3,-6,-13,0.0556641,0.781738,0.431152,0.5625,1.0625,-4.875,1.07009,-0.0817518,-2.48328
4656,5,3,-1,-2,-4,-21,-3,4,0.0556641,0.781738,0.431152,0.5625,1.0625,-4.875,1.07009,-0.0817518,-2.48328
4669,2,1,0,-2,9,-13,4,7,0.0556641,0.781738,0.431152,0.5625,1.0625,-4.875,1.07009,-0.0817518,-2.48328
4669,3,-7,-5,6,4,40,6,1,0.0556641,0.781738,0.431152,0.5625,1.0625,-4.875,1.07009,-0.0817518,-2.48328
4683,19,1,-2,-1,-5,-1,3,0,0.0805664,0.77002,0.447754,3.125,-0.75,-4.8125,1.07075,-0.0806699,-2.48427
4683,-6,-4,-4,-5,-13,-16,-13,-13,0.0805664,0.77002,0.447754,3.125,-0.75,-4.8125,1.07075,-0.0806699,-2.48427
4692,2,-3,-2,-1,5,13,1,3,0.0805664,0.77002,0.447754,3.125,-0.75,-4.8125,1.07075,-0.0806699,-2.48427
4692,3,-30,-1,-2,-9,-77,-1,4,0.0805664,0.77002,0.447754,3.125,-0.75,-4.8125,1.07075,-0.0806699,-2.48427
4694,-18,27,-9,-3,7,70,-2,-11,0.0878906,0.79248,0.416504,-1.3125,0.0625,-4.9375,1.07066,-0.0795329,-2.48511
4694,-16,-3,-1,-2,-6,-30,-5,-3,0.0878906,0.79248,0.416504,-1.3125,0.0625,-4.9375,1.07066,-0.0795329,-2.48511
4714,10,0,-3,-4,-9,-8,-8,1,0.0878906,0.79248,0.416504,-1.3125,0.0625,-4.9375,1.07066,-0.0795329,-2.48511
4714,-12,5,2,-1,-1,2,-8,-6,0.0878906,0.79248,0.416504,-1.3125,0.0625,-4.9375,1.07066,-0.0795329,-2.48511
4716,1,-8,2,0,-2,-23,-2,2,0.0498047,0.79248,0.414551,-1.4375,1.3125,-1.6875,1.07064,-0.0782607,-2.48499
4716,2,-2,0,-2,0,-5,2,3,0.0498047,0.79248,0.414551,-1.4375,1.3125,-1.6875,1.07064,-0.0782607,-2.48499
4729,-5,-4,-4,0,-3,-11,-1,-4,0.0498047,0.79248,0.414551,-1.4375,1.3125,-1.6875,1.07064,-0.0782607,-2.48499
4729,3,5,-2,1,1,9,15,4,0.0498047,0.79248,0.414551,-1.4375,1.3125,-1.6875,1.07064,-0.0782607,-2.48499
4736,-8,-11,2,0,-2,12,-12,0,0.0214844,0.758301,0.441895,0.9375,-0.5625,-1.3125,1.07046,-0.0768373,-2.48528
4736,-7,5,1,-2,4,19,5,-2,0.0214844,0.758301,0.441895,0.9375,-0.5625,-1.3125,1.07046,-0.0768373,-2.48528
4752,-7,-6,1,4,-5,-7,-11,-1,0.0214844,0.758301,0.441895,0.9375,-0.5625,-1.3125,1.07046,-0.0768373,-2.48528
4752,7,4,0,-2,-6,-79,4,-1,0.0214844,0.758301,0.441895,0.9375,-0.5625,-1.3125,1.07046,-0.0768373,-2.48528
4753,0,-20,-11,0,14,75,-46,1,0.0478516,0.785156,0.40625,0.375,-3.8125,-2.3125,1.07113,-0.0762389,-2.48691
4753,20,5,10,11,15,12,76,25,0.0478516,0.785156,0.40625,0.375,-3.8125,-2.3125,1.07113,-0.0762389,-2.48691
4775,-12,4,5,-7,-9,5,-21,-32,0.0478516,0.785156,0.40625,0.375,-3.8125,-2.3125,1.07113,-0.0762389,-2.48691
4775,1,12,3,-4,-15,-18,-18,-7,0.0478516,0.785156,0.40625,0.375,-3.8125,-2.3125,1.07113,-0.0762389,-2.48691
4777,-11,3,1,-1,-6,-27,9,-5,0.0727539,0.820801,0.421875,1.5625,-1.9375,1.75,1.07229,-0.0771752,-2.4873
4777,-2,1,-2,-1,-6,-42,-14,2,0.0727539,0.820801,0.421875,1.5625,-1.9375,1.75,1.07229,-0.0771752,-2.4873
4789,0,-17,-17,-3,6,13,5,11,0.0727539,0.820801,0.421875,1.5625,-1.9375,1.75,1.07229,-0.0771752,-2.4873
4789,12,7,-1,1,15,16,-2,1,0.0727539,0.820801,0.421875,1.5625,-1.9375,1.75,1.07229,-0.0771752,-2.4873
4797,2,-4,5,-1,-2,16,16,-2,0.0527344,0.814941,0.505371,1.75,1.375,0.25,1.07155,-0.0765005,-2.48676
4797,2,-1,-3,-2,-8,34,-9,-2,0.0527344,0.814941,0.505371,1.75,1.375,0.25,1.07155,-0.0765005,-2.48676
4813,10,6,6,10,-4,-128,-14,15,0.0527344,0.814941,0.505371,1.75,1.375,0.25,1.07155,-0.0765005,-2.48676
4813,2,-15,-11,5,40,72,11,0,0.0527344,0.814941,0.505371,1.75,1.375,0.25,1.07155,-0.0765005,-2.48676
4814,-4,-14,-10,-4,4,-35,81,8,0.0756836,0.79541,0.40918,1.5,3.1875,-3.375,1.07249,-0.0751916,-2.48627
4814,-10,-4,-2,-16,-5,-76,-104,-19,0.0756836,0.79541,0.40918,1.5,3.1875,-3.375,1.07249,-0.0751916,-2.48627
4835,16,5,4,1,-25,58,-22,-12,0.0756836,0.79541,0.40918,1.5,3.1875,-3.375,1.07249,-0.0751916,-2.48627
4835,-25,-1,-3,-8,13,81,60,-11,0.0756836,0.79541,0.40918,1.5,3.1875,-3.375,1.07249,-0.0751916,-2.48627
4837,10,22,24,13,4,-106,-46,-8,0.116699,0.849609,0.458984,-2.0625,7.0625,-4.5625,1.07185,-0.0736922,-2.48493
4837,-11,1,-4,-7,-37,-14,-41,3,0.116699,0.849609,0.458984,-2.0625,7.0625,-4.5625,1.07185,-0.0736922,-2.48493
4858,-7,8,7,6,61,90,56,16,0.116699,0.849609,0.458984,-2.0625,7.0625,-4.5625,1.07185,-0.0736922,-2.48493
4858,19,14,8,3,-31,-123,-30,7,0.116699,0.849609,0.458984,-2.0625,7.0625,-4.5625,1.07185,-0.0736922,-2.48493
4859,0,-5,-6,-7,-26,-26,39,-5,0.168945,0.943848,0.567871,6.25,20.8125,-9.4375,1.07249,-0.0695893,-2.48
4859,2,-24,-22,-8,39,20,5,-13,0.168945,0.943848,0.567871,6.25,20.8125,-9.4375,1.07249,-0.0695893,-2.48
4872,12,17,22,20,40,47,37,15,0.168945,0.943848,0.567871,6.25,20.8125,-9.4375,1.07249,-0.0695893,-2.48
4872,4,4,8,2,-9,-4,18,2,0.168945,0.943848,0.567871,6.25,20.8125,-9.4375,1.07249,-0.0695893,-2.48
4874,-3,-9,-9,-6,-43,-100,-12,12,0.0107422,0.825195,0.381836,-2.4375,29.9375,-14.625,1.07251,-0.0591278,-2.47326
4874,9,0,8,11,23,41,61,14,0.0107422,0.825195,0.381836,-2.4375,29.9375,-14.625,1.07251,-0.0591278,-2.47326
4894,-14,-29,-34,-22,-34,-65,18,28,0.0107422,0.825195,0.381836,-2.4375,29.9375,-14.625,1.07251,-0.0591278,-2.47326
4894,-3,-5,-3,-5,15,127,-10,-27,0.0107422,0.825195,0.381836,-2.4375,29.9375,-14.625,1.07251,-0.0591278,-2.47326
4896,4,16,12,8,-20,-114,9,35,-0.0561523,0.571289,0.375977,-31,19.8125,0.875,1.06019,-0.0537824,-2.46699
4896,-7,12,13,5,48,127,18,-47,-0.0561523,0.571289,0.375977,-31,19.8125,0.875,1.06019,-0.0537824,-2.46699
4909,7,12,8,3,-14,-6,-24,0,-0.0561523,0.571289,0.375977,-31,19.8125,0.875,1.06019,-0.0537824,-2.46699
4909,-34,-15,-20,-11,-39,-120,31,5,-0.0561523,0.571289,0.375977,-31,19.8125,0.875,1.06019,-0.0537824,-2.46699
4917,2,-13,-13,-1,-3,15,-1,-12,0.17334,0.567383,0.56543,-21.125,13.375,9.5625,1.04749,-0.0575408,-2.46106
4917,-14,-7,2,9,-7,23,-91,-6,0.17334,0.567383,0.56543,-21.125,13.375,9.5625,1.04749,-0.0575408,-2.46106
4932,-28,-16,-16,-18,24,78,65,16,0.17334,0.567383,0.56543,-21.125,13.375,9.5625,1.04749,-0.0575408,-2.46106
4932,16,13,13,4,1,-70,-35,-15,0.17334,0.567383,0.56543,-21.125,13.375,9.5625,1.04749,-0.0575408,-2.46106
4938,7,10,8,4,5,-20,51,-7,0.17627,0.858398,0.492188,16.4375,14.875,0.1875,1.05282,-0.0578859,-2.45642
4938,1,-9,-10,-4,-1,87,11,11,0.17627,0.858398,0.492188,16.4375,14.875,0.1875,1.05282,-0.0578859,-2.45642
4955,-7,-13,-7,-8,-21,12,-125,-36,0.17627,0.858398,0.492188,16.4375,14.875,0.1875,1.05282,-0.0578859,-2.45642
4955,1,-5,-7,1,8,-13,-45,-4,0.17627,0.858398,0.492188,16.4375,14.875,0.1875,1.05282,-0.0578859,-2.45642
4956,4,2,7,-3,-1,42,-47,4,0.00146484,1.07861,0.387207,-3.75,21.25,-0.875,1.05609,-0.0525223,-2.45039
4956,-2,-5,-13,-9,-103,-128,-71,-47,0.00146484,1.07861,0.387207,-3.75,21.25,-0.875,1.05609,-0.0525223,-2.45039
4968,12,9,12,8,46,96,18,29,0.00146484,1.07861,0.387207,-3.75,21.25,-0.875,1.05609,-0.0525223,-2.45039
4968,-16,15,14,4,6,-52,-100,-43,0.00146484,1.07861,0.387207,-3.75,21.25,-0.875,1.05609,-0.0525223,-2.45039
4983,0,4,-3,-9,-51,-55,-27,41,-0.0605469,0.871582,0.399414,-33.5,16.8125,-3.5,1.04637,-0.0459463,-2.44596
4983,11,-5,-10,-3,12,47,120,100,-0.0605469,0.871582,0.399414,-33.5,16.8125,-3.5,1.04637,-0.0459463,-2.44596
4991,13,10,2,7,12,-3,-42,9,-0.0605469,0.871582,0.399414,-33.5,16.8125,-3.5,1.04637,-0.0459463,-2.44596
4991,5,0,-1,3,-44,-58,-7,6,-0.0605469,0.871582,0.399414,-33.5,16.8125,-3.5,1.04637,-0.0459463,-2.44596
4998,4,-7,3,-3,45,127,73,-13,-0.0366211,0.71582,0.45459,-34.3125,6.4375,-4.1875,1.03381,-0.0418313,-2.44475
4998,32,14,8,5,-12,-93,-22,31,-0.0366211,0.71582,0.45459,-34.3125,6.4375,-4.1875,1.03381,-0.0418313,-2.44475
5016,-8,-35,-18,-26,-4,-24,-18,-13,-0.0366211,0.71582,0.45459,-34.3125,6.4375,-4.1875,1.03381,-0.0418313,-2.44475
5016,20,-12,-8,23,-5,-26,-4,62,-0.0366211,0.71582,0.45459,-34.3125,6.4375,-4.1875,1.03381,-0.0418313,-2.44475
5017,9,0,4,8,19,-7,-33,-18,0.00244141,0.776367,0.42041,-21,-4.625,-5.9375,1.02746,-0.0401083,-2.44721
5017,-22,-3,9,-5,11,-7,-65,-39,0.00244141,0.776367,0.42041,-21,-4.625,-5.9375,1.02746,-0.0401083,-2.44721
5028,-10,25,14,2,32,99,76,-17,0.00244141,0.776367,0.42041,-21,-4.625,-5.9375,1.02746,-0.0401083,-2.44721
5028,-5,13,-1,-22,-39,-56,-29,-7,0.00244141,0.776367,0.42041,-21,-4.625,-5.9375,1.02746,-0.0401083,-2.44721
5045,1,-16,-9,14,27,-25,54,21,0.0263672,0.845215,0.438965,-20.25,-8.6875,-7.4375,1.0223,-0.0392119,-2.45122
5045,16,-19,-16,2,72,46,48,7,0.0263672,0.845215,0.438965,-20.25,-8.6875,-7.4375,1.0223,-0.0392119,-2.45122
5051,-45,-13,-11,-14,-56,-56,-44,-66,0.0263672,0.845215,0.438965,-20.25,-8.6875,-7.4375,1.0223,-0.0392119,-2.45122
5051,15,15,13,1,-19,-17,-1,47,0.0263672,0.845215,0.438965,-20.25,-8.6875,-7.4375,1.0223,-0.0392119,-2.45122
5059,20,7,6,0,15,38,-99,-41,0.0546875,0.834473,0.447266,-19.0625,-7.9375,-10.375,1.01716,-0.0380102,-2.45551
5059,-8,18,12,11,90,93,70,-27,0.0546875,0.834473,0.447266,-19.0625,-7.9375,-10.375,1.01716,-0.0380102,-2.45551
5075,10,7,-1,3,-50,-128,-30,0,0.0546875,0.834473,0.447266,-19.0625,-7.9375,-10.375,1.01716,-0.0380102,-2.45551
5075,-3,-31,-11,7,30,94,73,23,0.0546875,0.834473,0.447266,-19.0625,-7.9375,-10.375,1.01716,-0.0380102,-2.45551
5077,-19,4,-8,-9,69,119,-31,-51,0.0751953,0.766113,0.519531,-28.375,1.5,-11.5625,1.0066,-0.0353719,-2.45727
5077,3,10,8,1,-76,-128,-75,-11,0.0751953,0.766113,0.519531,-28.375,1.5,-11.5625,1.0066,-0.0353719,-2.45727
5089,1,2,-10,1,-29,-22,12,2,0.0751953,0.766113,0.519531,-28.375,1.5,-11.5625,1.0066,-0.0353719,-2.45727
5089,-4,15,11,1,42,-2,-4,-33,0.0751953,0.766113,0.519531,-28.375,1.5,-11.5625,1.0066,-0.0353719,-2.45727
5097,5,-2,3,3,-4,-10,41,90,-0.00195312,0.682617,0.529297,-23,8.5625,-12.5,0.996689,-0.0294368,-2.45692
5097,-10,-23,-23,-12,-25,66,33,30,-0.00195312,0.682617,0.529297,-23,8.5625,-12.5,0.996689,-0.0294368,-2.45692
5112,15,18,19,15,-11,-128,9,-42,-0.00195312,0.682617,0.529297,-23,8.5625,-12.5,0.996689,-0.0294368,-2.45692
5112,5,-20,-18,-8,30,1,30,56,-0.00195312,0.682617,0.529297,-23,8.5625,-12.5,0.996689,-0.0294368,-2.45692
5118,-17,2,-1,-9,-2,39,-57,0,-0.00830078,0.67627,0.518555,-17.6875,10.0625,-12.625,0.989108,-0.0231975,-2.45634
5118,7,0,0,-19,-48,-107,-24,14,-0.00830078,0.67627,0.518555,-17.6875,10.0625,-12.625,0.989108,-0.0231975,-2.45634
5135,-5,-8,-2,0,-51,-128,-72,-41,-0.00830078,0.67627,0.518555,-17.6875,10.0625,-12.625,0.989108,-0.0231975,-2.45634
5135,-28,-18,-6,22,92,127,35,-35,-0.00830078,0.67627,0.518555,-17.6875,10.0625,-12.625,0.989108,-0.0231975,-2.45634
5137,-8,-2,5,3,-57,-128,-25,24,-0.0297852,0.731445,0.48584,-8.25,9.5625,-10.375,0.986222,-0.0171477,-2.45555
5137,11,21,15,15,75,87,49,-15,-0.0297852,0.731445,0.48584,-8.25,9.5625,-10.375,0.986222,-0.0171477,-2.45555
5148,-15,-11,-15,-28,-20,31,74,-38,-0.0297852,0.731445,0.48584,-8.25,9.5625,-10.375,0.986222,-0.0171477,-2.45555
5148,-5,1,-1,-8,15,37,7,-48,-0.0297852,0.731445,0.48584,-8.25,9.5625,-10.375,0.986222,-0.0171477,-2.45555
5157,-18,0,-9,4,-46,-67,-75,-87,0.0200195,0.699707,0.481934,-15.625,5.6875,-6.3125,0.980351,-0.0143723,-2.45512
5157,20,5,18,2,-22,-38,-1,34,0.0200195,0.699707,0.481934,-15.625,5.6875,-6.3125,0.980351,-0.0143723,-2.45512
5171,-26,-1,1,8,60,114,30,-50,0.0200195,0.699707,0.481934,-15.625,5.6875,-6.3125,0.980351,-0.0143723,-2.45512
5171,-3,13,-16,-23,-53,-37,81,72,0.0200195,0.699707,0.481934,-15.625,5.6875,-6.3125,0.980351,-0.0143723,-2.45512
5179,5,-8,-12,-17,-31,-33,-29,-1,0.0419922,0.669434,0.469238,-19.3125,1.5625,-1.625,0.973453,-0.0144503,-2.45499
5179,-15,-24,-8,-3,-43,-24,-119,-53,0.0419922,0.669434,0.469238,-19.3125,1.5625,-1.625,0.973453,-0.0144503,-2.45499
5195,8,-9,-3,7,75,97,-58,19,0.0419922,0.669434,0.469238,-19.3125,1.5625,-1.625,0.973453,-0.0144503,-2.45499
5195,-4,21,18,-3,-25,-18,32,-41,0.0419922,0.669434,0.469238,-19.3125,1.5625,-1.625,0.973453,-0.0144503,-2.45499
5197,16,18,4,-2,-12,-65,1,43,0.0415039,0.670898,0.507324,-9.0625,0.1875,4.375,0.969314,-0.0162462,-2.45402
5197,-27,-13,-19,-12,-59,13,58,43,0.0415039,0.670898,0.507324,-9.0625,0.1875,4.375,0.969314,-0.0162462,-2.45402
5208,4,-8,-5,6,31,-8,-80,0,0.0415039,0.670898,0.507324,-9.0625,0.1875,4.375,0.969314,-0.0162462,-2.45402
5208,19,12,18,3,0,-99,-43,33,0.0415039,0.670898,0.507324,-9.0625,0.1875,4.375,0.969314,-0.0162462,-2.45402
5224,17,14,10,1,19,76,-5,-23,0.0151367,0.698242,0.555664,-4.875,-0.4375,6.75,0.966007,-0.0183388,-2.45277
5224,-30,-17,-19,-11,-3,20,7,-56,0.0151367,0.698242,0.555664,-4.875,-0.4375,6.75,0.966007,-0.0183388,-2.45277
5232,-6,-5,2,4,-57,-128,61,26,0.0151367,0.698242,0.555664,-4.875,-0.4375,6.75,0.966007,-0.0183388,-2.45277
5232,-3,-53,-10,0,21,35,30,0,0.0151367,0.698242,0.555664,-4.875,-0.4375,6.75,0.966007,-0.0183388,-2.45277
5234,1,-13,-2,-10,11,-13,15,-35,-0.00244141,0.729004,0.535645,-4.9375,0.0625,7.25,0.963659,-0.0199206,-2.45118
5234,24,24,9,9,-72,-87,0,69,-0.00244141,0.729004,0.535645,-4.9375,0.0625,7.25,0.963659,-0.0199206,-2.45118
5255,28,22,16,21,25,42,28,49,-0.00244141,0.729004,0.535645,-4.9375,0.0625,7.25,0.963659,-0.0199206,-2.45118
5255,-43,3,-10,-5,-21,-33,57,-14,-0.00244141,0.729004,0.535645,-4.9375,0.0625,7.25,0.963659,-0.0199206,-2.45118
5256,-10,-8,0,-4,-34,-61,38,2,0.000488281,0.726074,0.527344,-1.625,0.5625,8.25,0.962637,-0.0216734,-2.44937
5256,7,8,-1,-2,-9,-24,71,-21,0.000488281,0.726074,0.527344,-1.625,0.5625,8.25,0.962637,-0.0216734,-2.44937
5277,18,-9,-10,-16,-37,-39,48,-19,0.000488281,0.726074,0.527344,-1.625,0.5625,8.25,0.962637,-0.0216734,-2.44937
5277,32,-12,-1,5,-15,-97,-31,45,0.000488281,0.726074,0.527344,-1.625,0.5625,8.25,0.962637,-0.0216734,-2.44937
5279,0,10,7,15,-44,21,-38,-16,-0.0258789,0.746094,0.53125,0.875,0.8125,6.75,0.962669,-0.0223586,-2.44781
5279,-37,4,17,8,59,13,-36,-4,-0.0258789,0.746094,0.53125,0.875,0.8125,6.75,0.962669,-0.0223586,-2.44781
5300,29,13,-8,-14,-93,-96,-62,14,-0.0258789,0.746094,0.53125,0.875,0.8125,6.75,0.962669,-0.0223586,-2.44781
5300,18,-4,-7,-8,27,35,-44,24,-0.0258789,0.746094,0.53125,0.875,0.8125,6.75,0.962669,-0.0223586,-2.44781
5302,-23,-4,-7,-19,-40,-126,-60,-60,-0.0288086,0.742676,0.51709,1.5,1.375,6.875,0.963282,-0.0227864,-2.44605
5302,-14,7,0,8,-5,-119,-22,4,-0.0288086,0.742676,0.51709,1.5,1.375,6.875,0.963282,-0.0227864,-2.44605
5323,26,-14,-2,-1,-26,-66,54,86,-0.0288086,0.742676,0.51709,1.5,1.375,6.875,0.963282,-0.0227864,-2.44605
5323,17,23,13,8,-6,-15,-29,9,-0.0288086,0.742676,0.51709,1.5,1.375,6.875,0.963282,-0.0227864,-2.44605
5324,17,-7,-14,-6,-2,16,41,26,0.0380859,0.728516,0.526855,3.4375,2.1875,4,0.963996,-0.023955,-2.44459
5324,-14,-18,-6,-6,8,-8,28,-53,0.0380859,0.728516,0.526855,3.4375,2.1875,4,0.963996,-0.023955,-2.44459
5337,29,44,7,12,87,76,44,-15,0.0380859,0.728516,0.526855,3.4375,2.1875,4,0.963996,-0.023955,-2.44459
5337,-31,4,-6,-11,-82,-66,-34,-96,0.0380859,0.728516,0.526855,3.4375,2.1875,4,0.963996,-0.023955,-2.44459
5339,-23,4,2,10,53,82,127,61,0.0258789,0.772949,0.498047,4.5,3.3125,5.625,0.96619,-0.0249886,-2.44249
5339,21,-7,-11,-12,-69,-119,-25,-10,0.0258789,0.772949,0.498047,4.5,3.3125,5.625,0.96619,-0.0249886,-2.44249
5352,-5,8,12,7,-12,-67,46,76,0.0258789,0.772949,0.498047,4.5,3.3125,5.625,0.96619,-0.0249886,-2.44249
5352,13,11,1,-5,-35,-78,-51,-32,0.0258789,0.772949,0.498047,4.5,3.3125,5.625,0.96619,-0.0249886,-2.44249
5354,-10,-26,-15,-8,33,111,-10,6,0.0151367,0.789551,0.521484,5.75,4.5625,1.5625,0.96869,-0.02428,-2.44092
5354,1,-4,-13,-23,-77,-128,-63,9,0.0151367,0.789551,0.521484,5.75,4.5625,1.5625,0.96869,-0.02428,-2.44092
5374,-47,-20,-4,4,49,35,-51,-37,0.0151367,0.789551,0.521484,5.75,4.5625,1.5625,0.96869,-0.02428,-2.44092
5374,10,27,19,7,40,104,37,-5,0.0151367,0.789551,0.521484,5.75,4.5625,1.5625,0.96869,-0.02428,-2.44092
5388,-18,-28,-9,-7,-53,-128,9,19,0.0439453,0.766602,0.491699,0,4.625,1.625,0.969233,-0.0243136,-2.43926
5388,-5,-9,-19,-11,5,-12,35,14,0.0439453,0.766602,0.491699,0,4.625,1.625,0.969233,-0.0243136,-2.43926
5397,-9,-1,10,6,60,31,-7,-25,0.0439453,0.766602,0.491699,0,4.625,1.625,0.969233,-0.0243136,-2.43926
5397,4,6,0,1,-66,-123,-63,37,0.0439453,0.766602,0.491699,0,4.625,1.625,0.969233,-0.0243136,-2.43926
5398,-14,-15,-13,-1,99,97,6,31,0.0776367,0.739746,0.471191,-0.625,2.6875,-0.5625,0.969832,-0.0250728,-2.43853
5398,30,20,20,17,43,94,54,6,0.0776367,0.739746,0.471191,-0.625,2.6875,-0.5625,0.969832,-0.0250728,-2.43853
5412,0,-9,-2,-7,-51,-72,-45,74,0.0776367,0.739746,0.471191,-0.625,2.6875,-0.5625,0.969832,-0.0250728,-2.43853
5412,9,-3,-4,-5,-45,-75,-47,27,0.0776367,0.739746,0.471191,-0.625,2.6875,-0.5625,0.969832,-0.0250728,-2.43853
5418,-7,-9,-16,-7,-32,-68,-34,-81,-0.0473633,0.72998,0.54541,0.5625,4.5625,2.625,0.969063,-0.0232567,-2.43673
5418,-27,-20,-1,2,51,60,1,35,-0.0473633,0.72998,0.54541,0.5625,4.5625,2.625,0.969063,-0.0232567,-2.43673
5435,-11,-11,-3,-5,-78,-99,-12,-30,-0.0473633,0.72998,0.54541,0.5625,4.5625,2.625,0.969063,-0.0232567,-2.43673
5435,18,-5,-1,8,98,126,-19,-18,-0.0473633,0.72998,0.54541,0.5625,4.5625,2.625,0.969063,-0.0232567,-2.43673
5436,2,23,21,2,-20,-10,-16,6,-0.0512695,0.724609,0.521484,-6.125,2.625,4.625,0.966463,-0.0222946,-2.43502
5436,24,29,0,-6,26,4,30,-71,-0.0512695,0.724609,0.521484,-6.125,2.625,4.625,0.966463,-0.0222946,-2.43502
5458,-4,-8,5,15,-13,-11,-4,18,-0.0512695,0.724609,0.521484,-6.125,2.625,4.625,0.966463,-0.0222946,-2.43502
5458,0,-20,-8,7,48,38,13,-71,-0.0512695,0.724609,0.521484,-6.125,2.625,4.625,0.966463,-0.0222946,-2.43502
5459,-3,15,10,7,19,-61,-10,-74,0.0595703,0.711914,0.520996,-0.75,2.0625,1.0625,0.965579,-0.0231467,-2.43418
5459,-14,4,13,5,2,-55,-79,18,0.0595703,0.711914,0.520996,-0.75,2.0625,1.0625,0.965579,-0.0231467,-2.43418
5472,-1,19,2,-1,32,-2,114,6,0.0595703,0.711914,0.520996,-0.75,2.0625,1.0625,0.965579,-0.0231467,-2.43418
5472,22,-9,-13,-3,24,32,-40,56,0.0595703,0.711914,0.520996,-0.75,2.0625,1.0625,0.965579,-0.0231467,-2.43418
5478,-1,-9,-6,2,49,45,35,5,0.0258789,0.740234,0.51416,2.625,0.5625,5.625,0.96641,-0.0247734,-2.43279
5478,-10,1,4,7,20,38,45,-17,0.0258789,0.740234,0.51416,2.625,0.5625,5.625,0.96641,-0.0247734,-2.43279
5494,-8,-20,-17,-18,-14,-44,66,44,0.0258789,0.740234,0.51416,2.625,0.5625,5.625,0.96641,-0.0247734,-2.43279
5494,-21,-22,7,1,-75,-83,23,-36,0.0258789,0.740234,0.51416,2.625,0.5625,5.625,0.96641,-0.0247734,-2.43279
5496,11,10,11,4,61,100,31,-4,0.00488281,0.773438,0.501953,-4.125,-3.125,4.1875,0.965629,-0.0260597,-2.43284
5496,-8,8,9,-3,-44,-117,-16,-8,0.00488281,0.773438,0.501953,-4.125,-3.125,4.1875,0.965629,-0.0260597,-2.43284
5517,-24,-23,-23,-4,-46,-36,-65,-80,0.00488281,0.773438,0.501953,-4.125,-3.125,4.1875,0.965629,-0.0260597,-2.43284
5517,-36,-14,-5,0,72,60,84,-32,0.00488281,0.773438,0.501953,-4.125,-3.125,4.1875,0.965629,-0.0260597,-2.43284
5519,-27,16,12,-2,-54,-128,-27,28,0.0361328,0.780273,0.520508,-3,-1.8125,2.5,0.964995,-0.0273844,-2.43295
5519,54,-2,-6,-6,-69,-4,-60,-26,0.0361328,0.780273,0.520508,-3,-1.8125,2.5,0.964995,-0.0273844,-2.43295
5532,-3,11,8,10,88,85,11,-22,0.0361328,0.780273,0.520508,-3,-1.8125,2.5,0.964995,-0.0273844,-2.43295
5532,-10,1,-19,-18,-49,-58,3,-25,0.0361328,0.780273,0.520508,-3,-1.8125,2.5,0.964995,-0.0273844,-2.43295
5538,15,-21,-14,-5,-55,-49,-49,-33,0.0161133,0.786133,0.487305,-1.25,-0.4375,1.4375,0.965789,-0.0277224,-2.43291
5538,11,10,14,19,119,89,70,23,0.0161133,0.786133,0.487305,-1.25,-0.4375,1.4375,0.965789,-0.0277224,-2.43291
5555,-25,-11,-15,-29,-80,56,-114,-69,0.0161133,0.786133,0.487305,-1.25,-0.4375,1.4375,0.965789,-0.0277224,-2.43291
5555,15,11,13,15,38,90,79,74,0.0161133,0.786133,0.487305,-1.25,-0.4375,1.4375,0.965789,-0.0277224,-2.43291
5557,13,1,7,14,11,22,53,68,0.00878906,0.793457,0.477539,-8.5625,-4.8125,-2.625,0.964337,-0.0275011,-2.43477
5557,-30,-12,-28,-12,17,67,14,-46,0.00878906,0.793457,0.477539,-8.5625,-4.8125,-2.625,0.964337,-0.0275011,-2.43477
5576,5,-4,6,-3,-17,-68,-62,-5,0.00878906,0.793457,0.477539,-8.5625,-4.8125,-2.625,0.964337,-0.0275011,-2.43477
5576,-31,0,2,-7,-16,-51,27,-3,0.00878906,0.793457,0.477539,-8.5625,-4.8125,-2.625,0.964337,-0.0275011,-2.43477
5585,21,10,-1,-1,-35,-26,-69,39,0.0297852,0.787109,0.497559,-10.5,-11.9375,-7.9375,0.961758,-0.0277104,-2.43979
5585,17,-23,-16,-4,-43,25,52,72,0.0297852,0.787109,0.497559,-10.5,-11.9375,-7.9375,0.961758,-0.0277104,-2.43979
5600,-8,-10,3,3,91,65,7,-6,0.0297852,0.787109,0.497559,-10.5,-11.9375,-7.9375,0.961758,-0.0277104,-2.43979
5600,-11,27,-3,-9,-22,-60,-46,-29,0.0297852,0.787109,0.497559,-10.5,-11.9375,-7.9375,0.961758,-0.0277104,-2.43979
5601,-4,-13,-6,-2,-64,-89,-10,-14,-0.0107422,0.757812,0.543457,-11.4375,-12.9375,-6.875,0.957692,-0.0275307,-2.44475
5601,8,12,22,23,61,9,54,0,-0.0107422,0.757812,0.543457,-11.4375,-12.9375,-6.875,0.957692,-0.0275307,-2.44475
5614,-4,-15,-5,-12,-24,-76,11,5,-0.0107422,0.757812,0.543457,-11.4375,-12.9375,-6.875,0.957692,-0.0275307,-2.44475
5614,25,17,8,-14,-40,-127,-85,47,-0.0107422,0.757812,0.543457,-11.4375,-12.9375,-6.875,0.957692,-0.0275307,-2.44475
5616,-23,-17,-6,11,31,-36,53,-32,-0.0146484,0.674316,0.602539,-13.625,-9.875,-6.75,0.950723,-0.0266026,-2.44891
5616,-11,-31,3,2,28,72,-79,13,-0.0146484,0.674316,0.602539,-13.625,-9.875,-6.75,0.950723,-0.0266026,-2.44891
5645,4,26,-1,-4,-46,-53,63,-21,-0.0146484,0.674316,0.602539,-13.625,-9.875,-6.75,0.950723,-0.0266026,-2.44891
5645,-11,-3,-1,11,45,56,-18,37,-0.0146484,0.674316,0.602539,-13.625,-9.875,-6.75,0.950723,-0.0266026,-2.44891
5646,-2,9,-4,-12,-8,39,33,-26,0.0571289,0.645508,0.606934,-8.125,-6.6875,-9.0625,0.945115,-0.0261716,-2.4525
5646,4,7,-3,-4,45,50,12,-9,0.0571289,0.645508,0.606934,-8.125,-6.6875,-9.0625,0.945115,-0.0261716,-2.4525
5651,-3,3,11,14,25,32,-47,6,0.0571289,0.645508,0.606934,-8.125,-6.6875,-9.0625,0.945115,-0.0261716,-2.4525
5651,6,-11,-7,-6,12,76,-64,6,0.0571289,0.645508,0.606934,-8.125,-6.6875,-9.0625,0.945115,-0.0261716,-2.4525
5666,-5,-10,-12,-10,6,1,23,14,0.0732422,0.658203,0.554199,0.75,-2.9375,-4.625,0.943903,-0.026751,-2.4542
5666,-4,10,12,10,-24,-73,-10,5,0.0732422,0.658203,0.554199,0.75,-2.9375,-4.625,0.943903,-0.026751,-2.4542
5675,-5,13,3,-1,-32,-128,3,-7,0.0732422,0.658203,0.554199,0.75,-2.9375,-4.625,0.943903,-0.026751,-2.4542
5675,-35,-23,-10,0,-54,-33,48,-46,0.0732422,0.658203,0.554199,0.75,-2.9375,-4.625,0.943903,-0.026751,-2.4542
5676,21,7,12,24,89,97,-5,13,0.00878906,0.678223,0.550781,3.3125,-0.375,0.6875,0.943953,-0.0266488,-2.45416
5676,-1,2,2,-7,-39,-88,-22,-36,0.00878906,0.678223,0.550781,3.3125,-0.375,0.6875,0.943953,-0.0266488,-2.45416
5698,18,22,20,12,57,116,-46,28,0.00878906,0.678223,0.550781,3.3125,-0.375,0.6875,0.943953,-0.0266488,-2.45416
5698,31,1,-7,-12,-82,-94,-52,6,0.00878906,0.678223,0.550781,3.3125,-0.375,0.6875,0.943953,-0.0266488,-2.45416
5699,1,3,3,2,32,31,4,-44,-0.0112305,0.716797,0.538574,2.6875,0.5625,1.1875,0.944387,-0.0260059,-2.45373
5699,25,3,3,0,-31,-51,-67,40,-0.0112305,0.716797,0.538574,2.6875,0.5625,1.1875,0.944387,-0.0260059,-2.45373
5712,36,8,-1,4,-9,11,18,74,-0.0112305,0.716797,0.538574,2.6875,0.5625,1.1875,0.944387,-0.0260059,-2.45373
5712,-3,-3,6,8,76,104,63,27,-0.0112305,0.716797,0.538574,2.6875,0.5625,1.1875,0.944387,-0.0260059,-2.45373
5718,-13,14,4,-2,-34,-101,-72,43,0.0371094,0.758789,0.515137,2.75,1.5625,3.0625,0.946035,-0.0268294,-2.45275
5718,-31,5,2,7,36,35,-127,-52,0.0371094,0.758789,0.515137,2.75,1.5625,3.0625,0.946035,-0.0268294,-2.45275
5734,-15,-36,-22,-25,-90,-98,22,44,0.0371094,0.758789,0.515137,2.75,1.5625,3.0625,0.946035,-0.0268294,-2.45275
5734,5,-2,-2,0,19,66,55,50,0.0371094,0.758789,0.515137,2.75,1.5625,3.0625,0.946035,-0.0268294,-2.45275
5736,6,-3,-12,-21,-60,-22,-23,13,0.03125,0.782227,0.509766,4.4375,3.1875,4.4375,0.948518,-0.0276485,-2.45093
5736,-1,-3,-11,-6,-63,-118,-1,36,0.03125,0.782227,0.509766,4.4375,3.1875,4.4375,0.948518,-0.0276485,-2.45093
5757,-10,-1,6,4,7,-40,23,-49,0.03125,0.782227,0.509766,4.4375,3.1875,4.4375,0.948518,-0.0276485,-2.45093
5757,10,28,4,-1,-58,-62,-6,14,0.03125,0.782227,0.509766,4.4375,3.1875,4.4375,0.948518,-0.0276485,-2.45093
5758,-19,-63,-21,-16,52,85,-65,-28,0.0131836,0.742676,0.521973,-3.8125,5.0625,3.25,0.947424,-0.0273158,-2.44887
5758,-21,-8,-2,-11,-61,-49,-44,-15,0.0131836,0.742676,0.521973,-3.8125,5.0625,3.25,0.947424,-0.0273158,-2.44887
5771,9,-2,-6,9,10,-8,36,-24,0.0131836,0.742676,0.521973,-3.8125,5.0625,3.25,0.947424,-0.0273158,-2.44887
5771,32,35,3,-6,26,77,-100,64,0.0131836,0.742676,0.521973,-3.8125,5.0625,3.25,0.947424,-0.0273158,-2.44887
5781,-15,16,9,-2,-60,-42,-11,10,0.0253906,0.733398,0.525879,0.1875,5.5625,1.125,0.947417,-0.0264882,-2.44705
5781,-6,0,-14,0,-20,22,55,-29,0.0253906,0.733398,0.525879,0.1875,5.5625,1.125,0.947417,-0.0264882,-2.44705
5802,13,-12,-13,-10,9,29,-62,22,0.0253906,0.733398,0.525879,0.1875,5.5625,1.125,0.947417,-0.0264882,-2.44705
5802,-28,-11,17,4,-48,-101,39,-32,0.0253906,0.733398,0.525879,0.1875,5.5625,1.125,0.947417,-0.0264882,-2.44705
5804,31,15,5,2,-9,-7,97,66,0.0214844,0.765625,0.521484,5.6875,6.875,-0.4375,0.949945,-0.0249168,-2.44517
5804,-23,-16,-17,-7,82,86,108,19,0.0214844,0.765625,0.521484,5.6875,6.875,-0.4375,0.949945,-0.0249168,-2.44517
5822,25,16,11,4,-37,-94,-21,-2,0.0214844,0.765625,0.521484,5.6875,6.875,-0.4375,0.949945,-0.0249168,-2.44517
5822,7,-7,-6,0,-67,-128,-43,-28,0.0214844,0.765625,0.521484,5.6875,6.875,-0.4375,0.949945,-0.0249168,-2.44517
5822,-23,5,-1,6,16,50,-32,-14,0.015625,0.73877,0.509766,-0.5,5.5,0.25,0.950027,-0.0237823,-2.44343
5822,11,12,11,12,85,97,65,40,0.015625,0.73877,0.509766,-0.5,5.5,0.25,0.950027,-0.0237823,-2.44343
5831,4,4,8,1,-7,29,23,14,0.015625,0.73877,0.509766,-0.5,5.5,0.25,0.950027,-0.0237823,-2.44343
5831,5,6,-4,2,-41,-65,-30,1,0.015625,0.73877,0.509766,-0.5,5.5,0.25,0.950027,-0.0237823,-2.44343
5840,10,13,7,14,39,-47,93,-12,0.0517578,0.73291,0.51416,-1,2.5625,-3.1875,0.949887,-0.0230183,-2.44342
5840,-15,-2,8,-3,-41,-56,-43,-31,0.0517578,0.73291,0.51416,-1,2.5625,-3.1875,0.949887,-0.0230183,-2.44342
5862,-5,-1,-4,-1,50,116,45,34,0.0517578,0.73291,0.51416,-1,2.5625,-3.1875,0.949887,-0.0230183,-2.44342
5862,-39,-23,-18,-12,-2,-94,33,-74,0.0517578,0.73291,0.51416,-1,2.5625,-3.1875,0.949887,-0.0230183,-2.44342
5864,0,-2,4,-1,-1,88,-122,-5,0.0356445,0.731934,0.55127,0.5625,3.75,-0.75,0.949489,-0.0225009,-2.44242
5864,27,7,-7,-11,-64,-109,-83,23,0.0356445,0.731934,0.55127,0.5625,3.75,-0.75,0.949489,-0.0225009,-2.44242
5877,-39,-24,-13,-9,10,10,33,-37,0.0356445,0.731934,0.55127,0.5625,3.75,-0.75,0.949489,-0.0225009,-2.44242
5877,1,-4,-1,-4,10,-1,-13,23,0.0356445,0.731934,0.55127,0.5625,3.75,-0.75,0.949489,-0.0225009,-2.44242
5880,19,9,5,2,8,27,20,16,-0.0131836,0.694336,0.554688,-2.125,4.5625,-0.8125,0.947646,-0.0204912,-2.44134
5880,-25,-8,-1,-5,-23,-70,-25,-17,-0.0131836,0.694336,0.554688,-2.125,4.5625,-0.8125,0.947646,-0.0204912,-2.44134
5891,0,2,-10,-6,-80,-115,18,62,-0.0131836,0.694336,0.554688,-2.125,4.5625,-0.8125,0.947646,-0.0204912,-2.44134
