0,1,13,-5,3,-1,-1,-1,0,0.0947266,0.552734,0.729004,-6.9375,-3.6875,-8.625,0.644062,-0.103499,-2.66545
0,-2,5,-20,-7,0,-1,0,-1,0.0947266,0.552734,0.729004,-6.9375,-3.6875,-8.625,0.644062,-0.103499,-2.66545
4,-2,-8,-22,-2,1,1,0,-3,0.0893555,0.542969,0.727539,-8.125,-3.125,-8.375,0.641534,-0.102606,-2.66848
4,-3,-5,35,0,-1,-2,-2,-1,0.0893555,0.542969,0.727539,-8.125,-3.125,-8.375,0.641534,-0.102606,-2.66848
4,1,-9,-36,-3,-1,-1,-2,-3,0.0893555,0.542969,0.727539,-8.125,-3.125,-8.375,0.641534,-0.102606,-2.66848
4,-2,-1,4,1,-1,0,-2,-1,0.0893555,0.542969,0.727539,-8.125,-3.125,-8.375,0.641534,-0.102606,-2.66848
5,2,10,28,3,-2,-1,-1,0,0.0893555,0.542969,0.727539,-8.125,-3.125,-8.375,0.641534,-0.102606,-2.66848
5,-2,-10,-50,-5,1,0,0,-3,0.0893555,0.542969,0.727539,-8.125,-3.125,-8.375,0.641534,-0.102606,-2.66848
18,2,22,25,1,-1,0,0,1,0.0893555,0.542969,0.727539,-8.125,-3.125,-8.375,0.641534,-0.102606,-2.66848
18,-7,-38,-47,-3,-2,-1,-2,-3,0.0893555,0.542969,0.727539,-8.125,-3.125,-8.375,0.641534,-0.102606,-2.66848
23,2,10,16,-2,-1,-1,-1,0,0.0917969,0.526855,0.725586,-9.8125,-3.3125,-8.5,0.638166,-0.10177,-2.67147
23,1,-1,-12,0,1,-1,-1,-2,0.0917969,0.526855,0.725586,-9.8125,-3.3125,-8.5,0.638166,-0.10177,-2.67147
32,-2,0,-6,-2,-3,0,-1,-2,0.0917969,0.526855,0.725586,-9.8125,-3.3125,-8.5,0.638166,-0.10177,-2.67147
32,3,-13,16,0,-1,-3,-1,1,0.0917969,0.526855,0.725586,-9.8125,-3.3125,-8.5,0.638166,-0.10177,-2.67147
39,-6,-6,2,-2,-2,0,-1,-2,0.0932617,0.518555,0.719238,-10.0625,-3.75,-8,0.634751,-0.101209,-2.67443
39,-3,4,-9,-3,-3,-1,-6,-7,0.0932617,0.518555,0.719238,-10.0625,-3.75,-8,0.634751,-0.101209,-2.67443
55,0,0,17,0,0,-1,-2,0,0.0932617,0.518555,0.719238,-10.0625,-3.75,-8,0.634751,-0.101209,-2.67443
55,-1,6,3,-2,-2,-2,-1,-2,0.0932617,0.518555,0.719238,-10.0625,-3.75,-8,0.634751,-0.101209,-2.67443
70,-1,-2,-24,-2,1,-1,0,-1,0.0913086,0.517578,0.730469,-8.0625,-3,-7.4375,0.63194,-0.100477,-2.67725
70,0,17,16,2,-3,-1,1,1,0.0913086,0.517578,0.730469,-8.0625,-3,-7.4375,0.63194,-0.100477,-2.67725
70,-3,-20,-15,-4,1,-2,-2,-2,0.0913086,0.517578,0.730469,-8.0625,-3,-7.4375,0.63194,-0.100477,-2.67725
70,1,8,22,3,0,1,-2,-2,0.0913086,0.517578,0.730469,-8.0625,-3,-7.4375,0.63194,-0.100477,-2.67725
117,-3,-6,1,2,1,1,1,-2,0.0795898,0.508789,0.733887,-5.4375,-1.875,-4.625,0.627659,-0.0990161,-2.68075
117,5,18,-1,0,0,-2,0,1,0.0795898,0.508789,0.733887,-5.4375,-1.875,-4.625,0.627659,-0.0990161,-2.68075
117,1,23,36,6,2,-2,-1,-1,0.0795898,0.508789,0.733887,-5.4375,-1.875,-4.625,0.627659,-0.0990161,-2.68075
117,-5,-21,-43,-7,0,-1,0,-2,0.0795898,0.508789,0.733887,-5.4375,-1.875,-4.625,0.627659,-0.0990161,-2.68075
118,-2,3,27,-3,-6,-1,1,0,0.0795898,0.508789,0.733887,-5.4375,-1.875,-4.625,0.627659,-0.0990161,-2.68075
118,-2,-1,5,8,-1,0,0,0,0.0795898,0.508789,0.733887,-5.4375,-1.875,-4.625,0.627659,-0.0990161,-2.68075
122,1,-1,-11,-5,-3,-1,0,0,0.0834961,0.500977,0.73291,-5.3125,-2.0625,-3.6875,0.625431,-0.0986558,-2.6821
122,0,12,34,8,-1,-2,0,-1,0.0834961,0.500977,0.73291,-5.3125,-2.0625,-3.6875,0.625431,-0.0986558,-2.6821
128,-1,-14,-36,-5,2,0,-1,-1,0.0834961,0.500977,0.73291,-5.3125,-2.0625,-3.6875,0.625431,-0.0986558,-2.6821
128,-5,-27,-38,-8,-1,0,-1,-3,0.0834961,0.500977,0.73291,-5.3125,-2.0625,-3.6875,0.625431,-0.0986558,-2.6821
137,-4,16,16,2,0,-1,-2,-1,0.0756836,0.498535,0.730469,-4,-2.125,-1.6875,0.623567,-0.0986893,-2.68301
137,-2,-2,-6,-3,-2,-2,-1,0,0.0756836,0.498535,0.730469,-4,-2.125,-1.6875,0.623567,-0.0986893,-2.68301
143,0,5,-25,1,1,-2,-2,0,0.0756836,0.498535,0.730469,-4,-2.125,-1.6875,0.623567,-0.0986893,-2.68301
143,4,12,48,4,0,0,-1,0,0.0756836,0.498535,0.730469,-4,-2.125,-1.6875,0.623567,-0.0986893,-2.68301
160,1,-16,-64,-6,-2,-1,0,-2,0.0913086,0.494141,0.742676,-2,-1.375,-0.8125,0.622166,-0.0989978,-2.6834
160,-1,1,17,1,-1,-1,4,0,0.0913086,0.494141,0.742676,-2,-1.375,-0.8125,0.622166,-0.0989978,-2.6834
166,0,-22,-38,-2,-2,0,-3,-1,0.0913086,0.494141,0.742676,-2,-1.375,-0.8125,0.622166,-0.0989978,-2.6834
166,0,-3,0,-2,0,1,-1,-2,0.0913086,0.494141,0.742676,-2,-1.375,-0.8125,0.622166,-0.0989978,-2.6834
189,0,12,19,6,3,0,0,0,0.0991211,0.502441,0.740234,-0.375,-1.0625,-0.25,0.621518,-0.0994098,-2.68363
189,4,15,8,-3,-2,-1,1,1,0.0991211,0.502441,0.740234,-0.375,-1.0625,-0.25,0.621518,-0.0994098,-2.68363
189,-3,-6,10,-1,-4,-4,0,-2,0.0991211,0.502441,0.740234,-0.375,-1.0625,-0.25,0.621518,-0.0994098,-2.68363
189,0,6,-26,-1,-1,-2,0,-3,0.0991211,0.502441,0.740234,-0.375,-1.0625,-0.25,0.621518,-0.0994098,-2.68363
204,-5,-17,5,-5,-2,-2,0,-1,0.109863,0.510254,0.737793,1.125,-0.125,0.375,0.621525,-0.100007,-2.68341
204,0,4,18,3,0,-1,-2,-1,0.109863,0.510254,0.737793,1.125,-0.125,0.375,0.621525,-0.100007,-2.68341
205,0,-3,6,-3,-3,0,-1,-1,0.109863,0.510254,0.737793,1.125,-0.125,0.375,0.621525,-0.100007,-2.68341
205,-3,-15,-52,2,4,1,-1,-2,0.109863,0.510254,0.737793,1.125,-0.125,0.375,0.621525,-0.100007,-2.68341
227,-4,-26,5,-2,0,-2,-3,-1,0.101074,0.51416,0.723633,1.1875,-0.0625,1.5625,0.621802,-0.100589,-2.68305
227,3,-3,-37,-4,-1,1,-3,-2,0.101074,0.51416,0.723633,1.1875,-0.0625,1.5625,0.621802,-0.100589,-2.68305
227,-4,8,29,0,-1,-2,-1,-1,0.101074,0.51416,0.723633,1.1875,-0.0625,1.5625,0.621802,-0.100589,-2.68305
227,-5,10,43,0,0,-2,-1,1,0.101074,0.51416,0.723633,1.1875,-0.0625,1.5625,0.621802,-0.100589,-2.68305
249,1,-3,-13,-2,-2,-1,-3,-1,0.0942383,0.524414,0.72998,1.125,0.625,1.75,0.622163,-0.100906,-2.68239
249,2,3,21,9,-2,-3,-3,-2,0.0942383,0.524414,0.72998,1.125,0.625,1.75,0.622163,-0.100906,-2.68239
250,3,40,17,-7,1,0,-1,0,0.0942383,0.524414,0.72998,1.125,0.625,1.75,0.622163,-0.100906,-2.68239
250,-4,-43,-20,-6,-4,-1,-1,-3,0.0942383,0.524414,0.72998,1.125,0.625,1.75,0.622163,-0.100906,-2.68239
264,-2,14,4,2,0,0,-1,-2,0.0805664,0.530762,0.742676,1.25,1.1875,2.1875,0.622493,-0.100744,-2.68156
264,-4,-34,-27,-5,-3,0,-2,-2,0.0805664,0.530762,0.742676,1.25,1.1875,2.1875,0.622493,-0.100744,-2.68156
271,2,17,15,4,1,-2,0,-2,0.0805664,0.530762,0.742676,1.25,1.1875,2.1875,0.622493,-0.100744,-2.68156
271,-1,6,10,-1,-2,-3,-1,-1,0.0805664,0.530762,0.742676,1.25,1.1875,2.1875,0.622493,-0.100744,-2.68156
295,1,-1,7,-1,-1,-1,1,0,0.0771484,0.516602,0.723633,0.1875,0.8125,2.25,0.622388,-0.100609,-2.68066
295,4,18,-8,3,2,0,3,3,0.0771484,0.516602,0.723633,0.1875,0.8125,2.25,0.622388,-0.100609,-2.68066
296,-10,-28,-69,-12,-4,-5,-11,-10,0.0771484,0.516602,0.723633,0.1875,0.8125,2.25,0.622388,-0.100609,-2.68066
296,-2,17,28,3,-2,-3,-5,-3,0.0771484,0.516602,0.723633,0.1875,0.8125,2.25,0.622388,-0.100609,-2.68066
309,-1,8,-14,-2,-2,0,0,1,0.0839844,0.513672,0.736328,0.4375,-0.5625,3,0.62216,-0.101225,-2.67985
309,-3,1,-3,-10,-4,-2,-2,1,0.0839844,0.513672,0.736328,0.4375,-0.5625,3,0.62216,-0.101225,-2.67985
309,2,10,13,4,3,0,3,3,0.0839844,0.513672,0.736328,0.4375,-0.5625,3,0.62216,-0.101225,-2.67985
309,2,-5,26,-3,-1,1,0,1,0.0839844,0.513672,0.736328,0.4375,-0.5625,3,0.62216,-0.101225,-2.67985
323,-2,5,-32,6,0,0,-1,-2,0.0893555,0.507324,0.71875,-0.8125,-1.9375,3.8125,0.621743,-0.102523,-2.67916
323,-1,15,19,-4,4,-1,0,-2,0.0893555,0.507324,0.71875,-0.8125,-1.9375,3.8125,0.621743,-0.102523,-2.67916
331,1,-3,-4,1,2,1,1,1,0.0893555,0.507324,0.71875,-0.8125,-1.9375,3.8125,0.621743,-0.102523,-2.67916
331,-1,-1,43,1,-2,0,-2,-1,0.0893555,0.507324,0.71875,-0.8125,-1.9375,3.8125,0.621743,-0.102523,-2.67916
348,2,-26,-13,-3,-2,1,0,1,0.103027,0.510742,0.729004,0.4375,-3.0625,3.75,0.621627,-0.10436,-2.67871
348,0,-2,-7,-2,-2,0,-1,-1,0.103027,0.510742,0.729004,0.4375,-3.0625,3.75,0.621627,-0.10436,-2.67871
349,0,-17,6,1,-2,-1,0,1,0.103027,0.510742,0.729004,0.4375,-3.0625,3.75,0.621627,-0.10436,-2.67871
349,3,18,8,3,0,0,1,0,0.103027,0.510742,0.729004,0.4375,-3.0625,3.75,0.621627,-0.10436,-2.67871
370,-2,-3,1,-2,-1,-2,-1,-3,0.09375,0.51709,0.722656,2.75,-3.3125,4.1875,0.622425,-0.106179,-2.67818
370,-2,5,8,2,2,-2,-2,-1,0.09375,0.51709,0.722656,2.75,-3.3125,4.1875,0.622425,-0.106179,-2.67818
370,3,9,53,4,-1,1,-1,0,0.09375,0.51709,0.722656,2.75,-3.3125,4.1875,0.622425,-0.106179,-2.67818
370,-8,-25,-111,-13,-1,-1,-1,-2,0.09375,0.51709,0.722656,2.75,-3.3125,4.1875,0.622425,-0.106179,-2.67818
384,0,-12,-11,-2,-1,0,-1,-2,0.0922852,0.541016,0.727051,3.9375,-2.75,4.125,0.624111,-0.107612,-2.67752
384,-3,-8,-4,-5,-3,-2,-2,-2,0.0922852,0.541016,0.727051,3.9375,-2.75,4.125,0.624111,-0.107612,-2.67752
391,2,3,29,9,0,-1,-1,-1,0.0922852,0.541016,0.727051,3.9375,-2.75,4.125,0.624111,-0.107612,-2.67752
391,1,7,-2,0,0,-2,-3,-2,0.0922852,0.541016,0.727051,3.9375,-2.75,4.125,0.624111,-0.107612,-2.67752
407,-2,-2,2,-7,-3,-2,-2,-2,0.0854492,0.544922,0.725098,2,-2.375,4.5625,0.625179,-0.108934,-2.67675
407,1,12,0,4,0,0,-1,0,0.0854492,0.544922,0.725098,2,-2.375,4.5625,0.625179,-0.108934,-2.67675
407,0,-10,11,2,-1,1,-1,0,0.0854492,0.544922,0.725098,2,-2.375,4.5625,0.625179,-0.108934,-2.67675
407,3,16,21,-4,-2,-1,0,2,0.0854492,0.544922,0.725098,2,-2.375,4.5625,0.625179,-0.108934,-2.67675
429,-2,-9,2,4,1,0,1,-1,0.0825195,0.540527,0.725098,-1.375,-3,5.3125,0.62498,-0.110483,-2.67589
429,0,-6,-4,3,1,0,-1,-1,0.0825195,0.540527,0.725098,-1.375,-3,5.3125,0.62498,-0.110483,-2.67589
430,0,4,9,-2,1,0,-1,0,0.0825195,0.540527,0.725098,-1.375,-3,5.3125,0.62498,-0.110483,-2.67589
430,-4,-15,-17,-2,-5,-1,-2,-1,0.0825195,0.540527,0.725098,-1.375,-3,5.3125,0.62498,-0.110483,-2.67589
444,0,10,23,1,0,-2,-3,-3,0.0893555,0.533691,0.736328,-0.875,-2.125,4.6875,0.62459,-0.111745,-2.67497
444,-2,-7,-13,0,1,-2,-2,-2,0.0893555,0.533691,0.736328,-0.875,-2.125,4.6875,0.62459,-0.111745,-2.67497
451,2,6,10,-1,-2,-1,4,0,0.0893555,0.533691,0.736328,-0.875,-2.125,4.6875,0.62459,-0.111745,-2.67497
451,2,8,3,2,2,-1,-1,2,0.0893555,0.533691,0.736328,-0.875,-2.125,4.6875,0.62459,-0.111745,-2.67497
466,-3,-10,1,-7,-3,-4,0,-1,0.0976562,0.535645,0.739746,2.25,-0.3125,3.625,0.625273,-0.112347,-2.67409
466,-2,8,-26,0,-2,1,-1,-1,0.0976562,0.535645,0.739746,2.25,-0.3125,3.625,0.625273,-0.112347,-2.67409
467,-5,-11,-16,-4,0,0,-1,-4,0.0976562,0.535645,0.739746,2.25,-0.3125,3.625,0.625273,-0.112347,-2.67409
467,-4,-19,20,4,-3,-2,0,-2,0.0976562,0.535645,0.739746,2.25,-0.3125,3.625,0.625273,-0.112347,-2.67409
490,1,2,6,-6,-1,1,0,-1,0.090332,0.547852,0.737793,2.5625,1.5625,3.625,0.626356,-0.112299,-2.67268
490,1,7,5,2,1,-1,-1,2,0.090332,0.547852,0.737793,2.5625,1.5625,3.625,0.626356,-0.112299,-2.67268
490,1,15,-31,-9,0,-2,-1,2,0.090332,0.547852,0.737793,2.5625,1.5625,3.625,0.626356,-0.112299,-2.67268
490,-3,-11,8,3,-1,-1,0,-1,0.090332,0.547852,0.737793,2.5625,1.5625,3.625,0.626356,-0.112299,-2.67268
503,3,30,50,4,-4,-4,-4,-3,0.0888672,0.548828,0.735352,-0.125,2.875,3.0625,0.626526,-0.111783,-2.67124
503,1,-1,-10,-2,-1,0,-1,-1,0.0888672,0.548828,0.735352,-0.125,2.875,3.0625,0.626526,-0.111783,-2.67124
511,-2,-15,-4,3,0,-2,-3,-2,0.0888672,0.548828,0.735352,-0.125,2.875,3.0625,0.626526,-0.111783,-2.67124
511,0,3,6,1,1,0,-1,-1,0.0888672,0.548828,0.735352,-0.125,2.875,3.0625,0.626526,-0.111783,-2.67124
527,-4,-11,-35,-12,-6,-2,1,-3,0.104004,0.541992,0.733398,-2.3125,3.875,1.625,0.625774,-0.111093,-2.66997
527,0,9,46,3,0,0,-1,-1,0.104004,0.541992,0.733398,-2.3125,3.875,1.625,0.625774,-0.111093,-2.66997
527,-1,-12,10,0,1,1,-2,0,0.104004,0.541992,0.733398,-2.3125,3.875,1.625,0.625774,-0.111093,-2.66997
527,-3,-6,-63,-7,-2,-2,0,-2,0.104004,0.541992,0.733398,-2.3125,3.875,1.625,0.625774,-0.111093,-2.66997
549,-2,16,-3,4,-4,0,-2,-1,0.104004,0.532715,0.743652,-0.6875,5.5,1.8125,0.625241,-0.110059,-2.66832
549,-5,-38,-3,-1,-1,0,0,0,0.104004,0.532715,0.743652,-0.6875,5.5,1.8125,0.625241,-0.110059,-2.66832
549,5,-1,14,-1,0,-1,0,0,0.104004,0.532715,0.743652,-0.6875,5.5,1.8125,0.625241,-0.110059,-2.66832
549,-6,16,19,2,-1,-1,-1,0,0.104004,0.532715,0.743652,-0.6875,5.5,1.8125,0.625241,-0.110059,-2.66832
573,3,15,-2,2,2,0,0,1,0.111328,0.524414,0.734863,0.0625,5.4375,-0.375,0.625193,-0.108693,-2.66728
573,-5,-17,-18,-8,-5,-2,-2,-3,0.111328,0.524414,0.734863,0.0625,5.4375,-0.375,0.625193,-0.108693,-2.66728
574,0,0,-4,2,-2,-1,-3,-3,0.111328,0.524414,0.734863,0.0625,5.4375,-0.375,0.625193,-0.108693,-2.66728
574,2,-1,0,0,0,1,0,-1,0.111328,0.524414,0.734863,0.0625,5.4375,-0.375,0.625193,-0.108693,-2.66728
587,0,8,23,1,3,0,0,0,0.117188,0.526367,0.733398,0.1875,6.25,-1.5,0.625031,-0.107071,-2.66647
587,-6,-47,-24,-6,-3,-3,0,-2,0.117188,0.526367,0.733398,0.1875,6.25,-1.5,0.625031,-0.107071,-2.66647
588,-3,-6,-33,2,-4,-3,1,-2,0.117188,0.526367,0.733398,0.1875,6.25,-1.5,0.625031,-0.107071,-2.66647
588,4,15,-19,2,2,0,0,0,0.117188,0.526367,0.733398,0.1875,6.25,-1.5,0.625031,-0.107071,-2.66647
609,-2,1,15,-2,-1,0,-4,-1,0.10791,0.518555,0.735352,0.6875,6.375,-2.3125,0.624924,-0.105185,-2.6657
609,0,7,18,-1,-1,-1,0,-1,0.10791,0.518555,0.735352,0.6875,6.375,-2.3125,0.624924,-0.105185,-2.6657
609,-2,2,-28,-5,-2,-2,1,-2,0.10791,0.518555,0.735352,0.6875,6.375,-2.3125,0.624924,-0.105185,-2.6657
609,0,-7,12,-2,-4,-2,-1,0,0.10791,0.518555,0.735352,0.6875,6.375,-2.3125,0.624924,-0.105185,-2.6657
624,3,0,-13,3,1,0,0,2,0.0991211,0.520508,0.725586,-0.4375,5.5,-2.8125,0.624738,-0.103149,-2.66536
624,-1,13,35,0,1,0,-2,-1,0.0991211,0.520508,0.725586,-0.4375,5.5,-2.8125,0.624738,-0.103149,-2.66536
649,-2,-6,-26,-1,-2,-1,0,1,0.0991211,0.520508,0.725586,-0.4375,5.5,-2.8125,0.624738,-0.103149,-2.66536
649,1,11,60,-4,2,-1,0,-2,0.0991211,0.520508,0.725586,-0.4375,5.5,-2.8125,0.624738,-0.103149,-2.66536
650,-5,-28,-86,-8,0,0,1,1,0.0908203,0.527832,0.728027,0.3125,5.6875,-2.3125,0.624825,-0.101101,-2.66486
650,1,6,-6,2,-4,-2,-1,-2,0.0908203,0.527832,0.728027,0.3125,5.6875,-2.3125,0.624825,-0.101101,-2.66486
651,0,21,22,-2,-1,0,-1,-1,0.0908203,0.527832,0.728027,0.3125,5.6875,-2.3125,0.624825,-0.101101,-2.66486
651,-1,-4,-19,0,-2,-1,-2,-3,0.0908203,0.527832,0.728027,0.3125,5.6875,-2.3125,0.624825,-0.101101,-2.66486
670,-1,-32,-14,1,-2,-2,-1,-1,0.0751953,0.521484,0.72998,0.875,5.3125,-1.875,0.62497,-0.0988278,-2.6643
670,1,-4,-14,-5,-4,0,-3,-2,0.0751953,0.521484,0.72998,0.875,5.3125,-1.875,0.62497,-0.0988278,-2.6643
677,-3,19,16,8,1,1,-1,1,0.0751953,0.521484,0.72998,0.875,5.3125,-1.875,0.62497,-0.0988278,-2.6643
677,1,-6,-13,-4,-3,-1,0,0,0.0751953,0.521484,0.72998,0.875,5.3125,-1.875,0.62497,-0.0988278,-2.6643
684,-2,-4,27,-1,1,-1,0,-3,0.0654297,0.520996,0.722656,0.4375,4.5625,-1.875,0.625087,-0.0966294,-2.66388
684,-2,8,-12,0,0,-2,-3,1,0.0654297,0.520996,0.722656,0.4375,4.5625,-1.875,0.625087,-0.0966294,-2.66388
691,0,-4,7,-4,-2,0,-2,1,0.0654297,0.520996,0.722656,0.4375,4.5625,-1.875,0.625087,-0.0966294,-2.66388
691,-2,6,4,3,0,0,-3,-1,0.0654297,0.520996,0.722656,0.4375,4.5625,-1.875,0.625087,-0.0966294,-2.66388
707,3,-4,-8,2,1,0,1,1,0.0693359,0.513184,0.728027,2.375,3.9375,-1.125,0.625611,-0.09497,-2.66333
707,4,37,67,12,1,0,1,0,0.0693359,0.513184,0.728027,2.375,3.9375,-1.125,0.625611,-0.09497,-2.66333
707,-9,-39,-61,-17,-1,-2,-1,-6,0.0693359,0.513184,0.728027,2.375,3.9375,-1.125,0.625611,-0.09497,-2.66333
707,-1,14,-2,0,0,-1,1,-1,0.0693359,0.513184,0.728027,2.375,3.9375,-1.125,0.625611,-0.09497,-2.66333
729,-1,-3,12,1,-5,-1,2,0,0.0708008,0.516113,0.733887,4.25,3.125,-0.3125,0.626836,-0.0937579,-2.66278
729,-2,-7,-13,0,-2,-1,-1,-2,0.0708008,0.516113,0.733887,4.25,3.125,-0.3125,0.626836,-0.0937579,-2.66278
730,2,13,30,4,-1,-1,-1,0,0.0708008,0.516113,0.733887,4.25,3.125,-0.3125,0.626836,-0.0937579,-2.66278
730,-1,-3,-9,-2,-1,0,-1,-1,0.0708008,0.516113,0.733887,4.25,3.125,-0.3125,0.626836,-0.0937579,-2.66278
752,0,4,-2,-4,-5,-1,-2,-2,0.0771484,0.522461,0.719727,3.25,2.4375,0,0.627846,-0.0928936,-2.6622
752,4,31,68,12,6,2,2,2,0.0771484,0.522461,0.719727,3.25,2.4375,0,0.627846,-0.0928936,-2.6622
752,-11,-43,-76,-17,-6,-5,-4,-5,0.0771484,0.522461,0.719727,3.25,2.4375,0,0.627846,-0.0928936,-2.6622
752,-4,-11,3,-6,0,-1,-1,-2,0.0771484,0.522461,0.719727,3.25,2.4375,0,0.627846,-0.0928936,-2.6622
783,0,6,31,5,0,0,0,0,0.0771484,0.52832,0.72998,5.1875,2.75,0.6875,0.629507,-0.0921098,-2.66149
783,-1,-7,-11,-4,-3,-3,2,0,0.0771484,0.52832,0.72998,5.1875,2.75,0.6875,0.629507,-0.0921098,-2.66149
783,3,14,17,8,1,-3,0,1,0.0771484,0.52832,0.72998,5.1875,2.75,0.6875,0.629507,-0.0921098,-2.66149
783,1,-7,-10,-1,0,-1,-1,-1,0.0771484,0.52832,0.72998,5.1875,2.75,0.6875,0.629507,-0.0921098,-2.66149
789,-2,6,15,-1,-1,-1,-3,-1,0.081543,0.538086,0.713379,3.6875,1.625,0.75,0.631191,-0.0918074,-2.66094
789,-4,-11,-30,1,0,0,-2,-1,0.081543,0.538086,0.713379,3.6875,1.625,0.75,0.631191,-0.0918074,-2.66094
790,6,29,31,5,4,1,0,1,0.081543,0.538086,0.713379,3.6875,1.625,0.75,0.631191,-0.0918074,-2.66094
790,-8,-30,-65,-15,-9,-3,-1,-3,0.081543,0.538086,0.713379,3.6875,1.625,0.75,0.631191,-0.0918074,-2.66094
812,-1,-20,7,0,1,-4,-8,-6,0.0766602,0.544922,0.733398,3.0625,2.5625,0.25,0.632341,-0.090975,-2.66039
812,-3,-20,-21,-7,-2,0,-3,-3,0.0766602,0.544922,0.733398,3.0625,2.5625,0.25,0.632341,-0.090975,-2.66039
812,0,0,-4,1,-4,0,0,0,0.0766602,0.544922,0.733398,3.0625,2.5625,0.25,0.632341,-0.090975,-2.66039
812,2,17,38,6,2,2,1,2,0.0766602,0.544922,0.733398,3.0625,2.5625,0.25,0.632341,-0.090975,-2.66039
837,0,5,-14,0,1,1,2,1,0.0756836,0.541504,0.723145,3.75,2.5,0.0625,0.633761,-0.0900937,-2.6598
837,-3,-7,-21,-3,-5,-3,0,-1,0.0756836,0.541504,0.723145,3.75,2.5,0.0625,0.633761,-0.0900937,-2.6598
837,2,-6,20,5,3,2,0,1,0.0756836,0.541504,0.723145,3.75,2.5,0.0625,0.633761,-0.0900937,-2.6598
837,2,43,9,3,3,1,-2,-1,0.0756836,0.541504,0.723145,3.75,2.5,0.0625,0.633761,-0.0900937,-2.6598
851,-5,-23,-5,-6,-6,-4,-2,-4,0.0683594,0.55127,0.727051,2,2.625,0.3125,0.634805,-0.0891209,-2.65918
851,-2,-19,-29,-6,-2,-2,-2,-2,0.0683594,0.55127,0.727051,2,2.625,0.3125,0.634805,-0.0891209,-2.65918
852,-1,-6,-2,-1,-4,-1,1,-1,0.0683594,0.55127,0.727051,2,2.625,0.3125,0.634805,-0.0891209,-2.65918
852,-1,8,20,2,-1,-2,-2,1,0.0683594,0.55127,0.727051,2,2.625,0.3125,0.634805,-0.0891209,-2.65918
872,-2,2,1,1,1,0,0,0,0.0712891,0.537598,0.71875,0.3125,1.5625,-0.5625,0.635002,-0.0882947,-2.65904
872,1,10,2,-5,0,-1,1,2,0.0712891,0.537598,0.71875,0.3125,1.5625,-0.5625,0.635002,-0.0882947,-2.65904
872,-4,1,6,-1,0,-1,-2,-2,0.0712891,0.537598,0.71875,0.3125,1.5625,-0.5625,0.635002,-0.0882947,-2.65904
872,0,-23,-1,6,-1,-1,-1,-1,0.0712891,0.537598,0.71875,0.3125,1.5625,-0.5625,0.635002,-0.0882947,-2.65904
886,2,33,25,-5,-2,0,0,1,0.0791016,0.535645,0.723145,-1.25,1.3125,-0.625,0.634574,-0.0878352,-2.65889
886,-4,-28,-40,-9,-2,-2,-1,-2,0.0791016,0.535645,0.723145,-1.25,1.3125,-0.625,0.634574,-0.0878352,-2.65889
888,0,5,-4,1,1,1,-2,2,0.0791016,0.535645,0.723145,-1.25,1.3125,-0.625,0.634574,-0.0878352,-2.65889
888,-2,1,33,3,-2,0,-2,-1,0.0791016,0.535645,0.723145,-1.25,1.3125,-0.625,0.634574,-0.0878352,-2.65889
909,1,9,-15,3,2,-1,1,1,0.0717773,0.536133,0.71875,1.0625,1.1875,-0.6875,0.63512,-0.0872142,-2.6588
909,-3,-24,-3,-3,-1,-3,-1,-3,0.0717773,0.536133,0.71875,1.0625,1.1875,-0.6875,0.63512,-0.0872142,-2.6588
910,-2,8,3,-2,-1,-1,4,0,0.0717773,0.536133,0.71875,1.0625,1.1875,-0.6875,0.63512,-0.0872142,-2.6588
910,-2,-11,7,1,-2,-3,-3,-1,0.0717773,0.536133,0.71875,1.0625,1.1875,-0.6875,0.63512,-0.0872142,-2.6588
932,1,-6,-38,4,1,0,1,2,0.0786133,0.536621,0.718262,-0.4375,0.625,-0.875,0.63512,-0.0872142,-2.6588
932,-2,23,9,0,-1,0,-1,0,0.0786133,0.536621,0.718262,-0.4375,0.625,-0.875,0.63512,-0.0872142,-2.6588
932,1,-6,3,-5,-3,-1,-1,1,0.0786133,0.536621,0.718262,-0.4375,0.625,-0.875,0.63512,-0.0872142,-2.6588
932,2,10,-16,-3,-2,-2,1,-1,0.0786133,0.536621,0.718262,-0.4375,0.625,-0.875,0.63512,-0.0872142,-2.6588
947,-3,-7,11,1,0,-2,0,-2,0.0639648,0.537109,0.719727,-1.375,-0.1875,-0.375,0.634824,-0.0868158,-2.659
947,-1,-6,10,3,0,0,0,-1,0.0639648,0.537109,0.719727,-1.375,-0.1875,-0.375,0.634824,-0.0868158,-2.659
948,-1,-6,-11,2,-1,-2,-1,-2,0.0639648,0.537109,0.719727,-1.375,-0.1875,-0.375,0.634824,-0.0868158,-2.659
948,0,2,17,-7,-3,-1,1,-1,0.0639648,0.537109,0.719727,-1.375,-0.1875,-0.375,0.634824,-0.0868158,-2.659
969,3,2,-17,-3,0,-1,-2,-1,0.0644531,0.532227,0.712891,-1.75,-0.9375,-0.3125,0.634411,-0.0867593,-2.65921
969,0,21,15,7,4,0,1,2,0.0644531,0.532227,0.712891,-1.75,-0.9375,-0.3125,0.634411,-0.0867593,-2.65921
969,-5,-21,-8,-6,-4,-2,-5,-4,0.0644531,0.532227,0.712891,-1.75,-0.9375,-0.3125,0.634411,-0.0867593,-2.65921
969,-2,-16,-34,-6,-4,-3,-1,-2,0.0644531,0.532227,0.712891,-1.75,-0.9375,-0.3125,0.634411,-0.0867593,-2.65921
992,2,8,-6,-1,-4,-1,2,0,0.0668945,0.529297,0.725098,0.25,-1.375,-0.0625,0.634543,-0.0868205,-2.65956
992,-6,0,8,-3,2,3,1,-3,0.0668945,0.529297,0.725098,0.25,-1.375,-0.0625,0.634543,-0.0868205,-2.65956
993,-1,5,9,-2,1,0,-2,-2,0.0668945,0.529297,0.725098,0.25,-1.375,-0.0625,0.634543,-0.0868205,-2.65956
993,1,-3,-8,0,1,1,-1,0,0.0668945,0.529297,0.725098,0.25,-1.375,-0.0625,0.634543,-0.0868205,-2.65956
1009,2,-3,-5,2,-1,0,0,-1,0.0717773,0.529785,0.720215,0.5,-1.8125,0.3125,0.634666,-0.0872953,-2.65978
1009,0,-5,-11,-4,-3,0,-1,-1,0.0717773,0.529785,0.720215,0.5,-1.8125,0.3125,0.634666,-0.0872953,-2.65978
1009,2,6,8,3,-1,-3,-1,0,0.0717773,0.529785,0.720215,0.5,-1.8125,0.3125,0.634666,-0.0872953,-2.65978
1009,-5,-11,13,-2,-2,-3,-2,-4,0.0717773,0.529785,0.720215,0.5,-1.8125,0.3125,0.634666,-0.0872953,-2.65978
1029,-1,-4,-6,-5,1,0,-1,1,0.0800781,0.522949,0.73291,-0.9375,-2.625,0.4375,0.634088,-0.0880611,-2.66021
1029,2,-6,-7,-2,-1,0,-1,0,0.0800781,0.522949,0.73291,-0.9375,-2.625,0.4375,0.634088,-0.0880611,-2.66021
1037,-3,9,27,3,0,0,1,0,0.0800781,0.522949,0.73291,-0.9375,-2.625,0.4375,0.634088,-0.0880611,-2.66021
1037,1,-1,-10,1,2,-1,-1,-1,0.0800781,0.522949,0.73291,-0.9375,-2.625,0.4375,0.634088,-0.0880611,-2.66021
1052,1,-1,14,5,2,-2,-2,1,0.0869141,0.526367,0.72998,-1.3125,-2.0625,0.6875,0.633486,-0.0889079,-2.66036
1052,2,4,-2,-5,-4,-3,-2,0,0.0869141,0.526367,0.72998,-1.3125,-2.0625,0.6875,0.633486,-0.0889079,-2.66036
1052,-1,-7,-65,-7,-4,-4,-3,-2,0.0869141,0.526367,0.72998,-1.3125,-2.0625,0.6875,0.633486,-0.0889079,-2.66036
1052,-5,6,0,-2,2,-1,-2,-2,0.0869141,0.526367,0.72998,-1.3125,-2.0625,0.6875,0.633486,-0.0889079,-2.66036
1066,-5,-19,13,2,1,1,4,2,0.0839844,0.535645,0.723633,-1.125,-1.25,0.875,0.633182,-0.0895923,-2.66044
1066,1,14,14,5,-3,0,-5,-2,0.0839844,0.535645,0.723633,-1.125,-1.25,0.875,0.633182,-0.0895923,-2.66044
1067,2,2,10,1,1,1,0,0,0.0839844,0.535645,0.723633,-1.125,-1.25,0.875,0.633182,-0.0895923,-2.66044
1067,2,1,-6,-2,-1,1,0,1,0.0839844,0.535645,0.723633,-1.125,-1.25,0.875,0.633182,-0.0895923,-2.66044
1088,-3,-9,-14,-6,-2,-1,-1,-1,0.0854492,0.538086,0.728516,-0.6875,-0.0625,0.125,0.633182,-0.0895923,-2.66044
1088,-2,1,11,0,-3,-3,0,0,0.0854492,0.538086,0.728516,-0.6875,-0.0625,0.125,0.633182,-0.0895923,-2.66044
1096,0,-5,-18,1,0,1,0,-1,0.0854492,0.538086,0.728516,-0.6875,-0.0625,0.125,0.633182,-0.0895923,-2.66044
1096,2,9,62,6,0,-1,-2,0,0.0854492,0.538086,0.728516,-0.6875,-0.0625,0.125,0.633182,-0.0895923,-2.66044
1111,-1,1,-71,-13,-4,-1,-3,-3,0.0766602,0.537598,0.72998,-2.125,0.1875,0.75,0.632434,-0.0894844,-2.6602
1111,-5,-10,-4,1,-1,-1,-1,-4,0.0766602,0.537598,0.72998,-2.125,0.1875,0.75,0.632434,-0.0894844,-2.6602
1113,-6,-26,11,-3,0,-2,-1,-4,0.0766602,0.537598,0.72998,-2.125,0.1875,0.75,0.632434,-0.0894844,-2.6602
1113,0,0,-13,-2,-1,-1,-1,-2,0.0766602,0.537598,0.72998,-2.125,0.1875,0.75,0.632434,-0.0894844,-2.6602
1134,2,14,45,6,-2,0,-1,-1,0.0859375,0.533691,0.72998,-2.6875,0.3125,0.4375,0.631465,-0.0896848,-2.66004
1134,1,7,-4,-4,-3,-1,0,0,0.0859375,0.533691,0.72998,-2.6875,0.3125,0.4375,0.631465,-0.0896848,-2.66004
1134,-3,-9,-35,0,-1,2,0,-1,0.0859375,0.533691,0.72998,-2.6875,0.3125,0.4375,0.631465,-0.0896848,-2.66004
1134,-1,1,6,-1,0,1,0,0,0.0859375,0.533691,0.72998,-2.6875,0.3125,0.4375,0.631465,-0.0896848,-2.66004
1150,-3,-5,11,6,0,-2,-2,-1,0.0942383,0.53418,0.731934,-3.5625,1.125,-0.125,0.630281,-0.0896009,-2.65974
1150,1,11,-13,-4,-2,-2,-1,-1,0.0942383,0.53418,0.731934,-3.5625,1.125,-0.125,0.630281,-0.0896009,-2.65974
1156,0,7,39,2,-1,-2,0,0,0.0942383,0.53418,0.731934,-3.5625,1.125,-0.125,0.630281,-0.0896009,-2.65974
1156,1,7,35,4,2,3,2,1,0.0942383,0.53418,0.731934,-3.5625,1.125,-0.125,0.630281,-0.0896009,-2.65974
1172,-2,1,-27,-1,0,-1,-2,-2,0.0898438,0.537598,0.733398,-3.9375,1.6875,0,0.628888,-0.0893793,-2.65933
1172,-2,-21,-59,-6,-2,-2,1,-1,0.0898438,0.537598,0.733398,-3.9375,1.6875,0,0.628888,-0.0893793,-2.65933
1172,1,16,26,0,-3,-3,-2,0,0.0898438,0.537598,0.733398,-3.9375,1.6875,0,0.628888,-0.0893793,-2.65933
1172,-3,-12,-7,-3,-3,-3,-1,-2,0.0898438,0.537598,0.733398,-3.9375,1.6875,0,0.628888,-0.0893793,-2.65933
1194,0,5,27,1,0,-1,-3,0,0.0805664,0.530273,0.728027,-5.0625,2.25,-0.1875,0.627202,-0.0886888,-2.6589
1194,0,2,-13,-2,-1,1,1,1,0.0805664,0.530273,0.728027,-5.0625,2.25,-0.1875,0.627202,-0.0886888,-2.6589
1195,3,2,3,-3,-2,-1,1,-1,0.0805664,0.530273,0.728027,-5.0625,2.25,-0.1875,0.627202,-0.0886888,-2.6589
1195,0,10,-29,-1,1,0,4,2,0.0805664,0.530273,0.728027,-5.0625,2.25,-0.1875,0.627202,-0.0886888,-2.6589
1209,-2,1,18,-5,-1,-2,-5,-2,0.0688477,0.518555,0.733887,-4.125,3.375,-0.625,0.625553,-0.0873629,-2.65845
1209,1,-2,4,2,-1,-1,0,-1,0.0688477,0.518555,0.733887,-4.125,3.375,-0.625,0.625553,-0.0873629,-2.65845
1216,-3,0,1,-1,-2,-2,-2,-3,0.0688477,0.518555,0.733887,-4.125,3.375,-0.625,0.625553,-0.0873629,-2.65845
1216,-1,-8,-16,0,-1,1,0,0,0.0688477,0.518555,0.733887,-4.125,3.375,-0.625,0.625553,-0.0873629,-2.65845
1231,-2,-11,6,-4,-2,-1,1,-2,0.0537109,0.530273,0.744141,-1,5,-1,0.624885,-0.0852112,-2.65766
1231,2,12,46,8,0,0,-2,0,0.0537109,0.530273,0.744141,-1,5,-1,0.624885,-0.0852112,-2.65766
1232,-1,-6,-37,-13,2,-1,2,-3,0.0537109,0.530273,0.744141,-1,5,-1,0.624885,-0.0852112,-2.65766
1232,0,-4,0,2,-3,0,-2,-2,0.0537109,0.530273,0.744141,-1,5,-1,0.624885,-0.0852112,-2.65766
1254,-2,-2,-22,-9,-5,-2,1,-1,0.0390625,0.522949,0.741699,1.3125,5.6875,-0.375,0.625151,-0.0826062,-2.6566
1254,1,7,24,4,1,0,-1,0,0.0390625,0.522949,0.741699,1.3125,5.6875,-0.375,0.625151,-0.0826062,-2.6566
1254,-3,12,21,6,-1,-1,-2,-1,0.0390625,0.522949,0.741699,1.3125,5.6875,-0.375,0.625151,-0.0826062,-2.6566
1254,-2,-12,-5,-3,-3,-3,-3,-2,0.0390625,0.522949,0.741699,1.3125,5.6875,-0.375,0.625151,-0.0826062,-2.6566
1285,1,2,-7,-2,-1,-2,-1,0,0.0595703,0.510254,0.732422,-0.5,4,-1.625,0.624503,-0.0808591,-2.65617
1285,-3,-14,-32,-2,-2,-2,0,0,0.0595703,0.510254,0.732422,-0.5,4,-1.625,0.624503,-0.0808591,-2.65617
1286,-1,13,26,2,-1,0,-2,2,0.0595703,0.510254,0.732422,-0.5,4,-1.625,0.624503,-0.0808591,-2.65617
1286,-1,-8,-14,-2,1,-1,-1,0,0.0595703,0.510254,0.732422,-0.5,4,-1.625,0.624503,-0.0808591,-2.65617
1292,-3,-4,0,2,0,-1,1,-1,0.0834961,0.51123,0.732422,0.8125,3.625,-2,0.624521,-0.079744,-2.65599
1292,5,12,41,0,-1,0,-2,0,0.0834961,0.51123,0.732422,0.8125,3.625,-2,0.624521,-0.079744,-2.65599
1292,-3,-21,-18,2,0,0,0,-1,0.0834961,0.51123,0.732422,0.8125,3.625,-2,0.624521,-0.079744,-2.65599
1292,-2,7,-14,-5,-3,-4,-2,-2,0.0834961,0.51123,0.732422,0.8125,3.625,-2,0.624521,-0.079744,-2.65599
1314,0,-8,12,-1,-3,-2,-1,-2,0.0751953,0.530762,0.729004,4.0625,3.9375,-1.4375,0.625888,-0.0783832,-2.65555
1314,-1,-6,-3,-4,-2,-2,-1,-1,0.0751953,0.530762,0.729004,4.0625,3.9375,-1.4375,0.625888,-0.0783832,-2.65555
1315,3,14,19,2,-1,0,0,2,0.0751953,0.530762,0.729004,4.0625,3.9375,-1.4375,0.625888,-0.0783832,-2.65555
1315,-1,-3,-2,0,-1,1,0,-1,0.0751953,0.530762,0.729004,4.0625,3.9375,-1.4375,0.625888,-0.0783832,-2.65555
1338,-2,-4,-21,-1,0,-2,-2,1,0.0717773,0.53418,0.71875,4.9375,3.75,-1.4375,0.627827,-0.0770283,-2.65521
1338,-1,-16,-31,-3,-1,-2,-3,0,0.0717773,0.53418,0.71875,4.9375,3.75,-1.4375,0.627827,-0.0770283,-2.65521
1339,-2,-1,8,3,1,1,-1,-2,0.0717773,0.53418,0.71875,4.9375,3.75,-1.4375,0.627827,-0.0770283,-2.65521
1339,-2,2,-15,-1,-1,-1,-1,-1,0.0717773,0.53418,0.71875,4.9375,3.75,-1.4375,0.627827,-0.0770283,-2.65521
1352,0,12,7,-1,-2,0,-2,-1,0.0585938,0.524414,0.730469,4.1875,3.75,-2.3125,0.629174,-0.0753293,-2.65503
1352,-4,-1,1,0,-3,-1,1,-1,0.0585938,0.524414,0.730469,4.1875,3.75,-2.3125,0.629174,-0.0753293,-2.65503
1353,3,-6,-25,4,1,-1,1,1,0.0585938,0.524414,0.730469,4.1875,3.75,-2.3125,0.629174,-0.0753293,-2.65503
1353,-4,2,15,-11,-3,-2,-2,0,0.0585938,0.524414,0.730469,4.1875,3.75,-2.3125,0.629174,-0.0753293,-2.65503
1382,0,1,-8,3,3,1,0,0,0.0541992,0.522461,0.729004,4.0625,2.8125,-1.875,0.630459,-0.073818,-2.65502
1382,-1,1,-13,0,-1,-1,-1,-2,0.0541992,0.522461,0.729004,4.0625,2.8125,-1.875,0.630459,-0.073818,-2.65502
1383,-4,-15,8,-2,-3,-3,-2,0,0.0541992,0.522461,0.729004,4.0625,2.8125,-1.875,0.630459,-0.073818,-2.65502
1383,1,-2,-1,0,-1,0,0,0,0.0541992,0.522461,0.729004,4.0625,2.8125,-1.875,0.630459,-0.073818,-2.65502
1405,2,4,14,3,-1,-2,0,1,0.0527344,0.530273,0.720215,5.25,1.75,-2.5625,0.632355,-0.0724952,-2.65532
1405,-1,2,1,-4,-2,-3,-2,0,0.0527344,0.530273,0.720215,5.25,1.75,-2.5625,0.632355,-0.0724952,-2.65532
1406,0,1,2,4,-3,-2,-6,-6,0.0527344,0.530273,0.720215,5.25,1.75,-2.5625,0.632355,-0.0724952,-2.65532
1406,2,9,2,0,0,-1,-3,0,0.0527344,0.530273,0.720215,5.25,1.75,-2.5625,0.632355,-0.0724952,-2.65532
1412,-1,-6,11,-1,0,-1,0,-1,0.0507812,0.538086,0.724121,6,0.75,-2.875,0.63459,-0.0714088,-2.65597
1412,1,7,4,0,2,1,0,-1,0.0507812,0.538086,0.724121,6,0.75,-2.875,0.63459,-0.0714088,-2.65597
1413,-3,-5,9,-4,-2,0,1,-1,0.0507812,0.538086,0.724121,6,0.75,-2.875,0.63459,-0.0714088,-2.65597
1413,-1,-5,15,0,0,-1,1,0,0.0507812,0.538086,0.724121,6,0.75,-2.875,0.63459,-0.0714088,-2.65597
1435,2,30,47,2,1,0,0,-1,0.0493164,0.54541,0.727539,7.75,0.75,-4.6875,0.637569,-0.0697936,-2.65716
1435,-2,-7,-39,1,0,-3,0,-2,0.0493164,0.54541,0.727539,7.75,0.75,-4.6875,0.637569,-0.0697936,-2.65716
1435,-3,-21,-13,-8,-2,-1,0,-2,0.0493164,0.54541,0.727539,7.75,0.75,-4.6875,0.637569,-0.0697936,-2.65716
1435,-3,12,2,4,-2,-1,-1,-1,0.0493164,0.54541,0.727539,7.75,0.75,-4.6875,0.637569,-0.0697936,-2.65716
1457,-1,-13,-4,0,1,0,-1,1,0.0498047,0.544922,0.717285,7.25,-0.25,-4.125,0.640269,-0.0687465,-2.65839
1457,2,21,42,6,0,0,-1,2,0.0498047,0.544922,0.717285,7.25,-0.25,-4.125,0.640269,-0.0687465,-2.65839
1458,-4,-4,-43,-8,-4,-4,0,-2,0.0498047,0.544922,0.717285,7.25,-0.25,-4.125,0.640269,-0.0687465,-2.65839
1458,4,0,-16,1,-1,-2,-3,-2,0.0498047,0.544922,0.717285,7.25,-0.25,-4.125,0.640269,-0.0687465,-2.65839
1472,-2,-16,10,4,-5,-1,-2,-3,0.0463867,0.549316,0.719238,3.3125,-2,-4.0625,0.641823,-0.068079,-2.65998
1472,-1,6,7,-8,0,2,-1,-1,0.0463867,0.549316,0.719238,3.3125,-2,-4.0625,0.641823,-0.068079,-2.65998
1472,1,15,5,-2,0,2,-3,-1,0.0463867,0.549316,0.719238,3.3125,-2,-4.0625,0.641823,-0.068079,-2.65998
1472,-1,-12,-1,-2,1,-1,-1,-1,0.0463867,0.549316,0.719238,3.3125,-2,-4.0625,0.641823,-0.068079,-2.65998
1494,-4,-1,-15,0,0,-1,0,-2,0.0527344,0.542969,0.719727,3.1875,-3,-4.0625,0.643123,-0.0678299,-2.66169
1494,-5,-17,-23,-2,-2,1,1,0,0.0527344,0.542969,0.719727,3.1875,-3,-4.0625,0.643123,-0.0678299,-2.66169
1495,6,13,33,1,1,-2,0,1,0.0527344,0.542969,0.719727,3.1875,-3,-4.0625,0.643123,-0.0678299,-2.66169
1495,-4,-8,-79,-11,-1,0,0,-2,0.0527344,0.542969,0.719727,3.1875,-3,-4.0625,0.643123,-0.0678299,-2.66169
1517,0,9,36,-1,-1,-2,-2,-1,0.0644531,0.543945,0.717285,4.5625,-3.0625,-5.625,0.644952,-0.0675393,-2.66391
1517,-6,-23,3,0,-2,-2,-2,-2,0.0644531,0.543945,0.717285,4.5625,-3.0625,-5.625,0.644952,-0.0675393,-2.66391
1518,-2,16,11,-2,-1,-1,-1,0,0.0644531,0.543945,0.717285,4.5625,-3.0625,-5.625,0.644952,-0.0675393,-2.66391
1518,1,-22,-2,2,-2,1,-1,-1,0.0644531,0.543945,0.717285,4.5625,-3.0625,-5.625,0.644952,-0.0675393,-2.66391
1531,-2,-3,-20,-4,1,-1,-3,-2,0.0605469,0.549316,0.719238,3.8125,-3.75,-4.6875,0.646536,-0.0676363,-2.66593
1531,0,6,6,3,-2,-1,0,-3,0.0605469,0.549316,0.719238,3.8125,-3.75,-4.6875,0.646536,-0.0676363,-2.66593
1532,0,2,-11,-6,2,2,1,2,0.0605469,0.549316,0.719238,3.8125,-3.75,-4.6875,0.646536,-0.0676363,-2.66593
1532,3,6,34,6,-2,-1,-1,1,0.0605469,0.549316,0.719238,3.8125,-3.75,-4.6875,0.646536,-0.0676363,-2.66593
1555,-2,16,18,1,0,-1,3,-2,0.0522461,0.536621,0.72168,2.1875,-4.6875,-3.25,0.647322,-0.0679967,-2.66781
1555,-3,-21,-37,-12,-5,-4,-3,-2,0.0522461,0.536621,0.72168,2.1875,-4.6875,-3.25,0.647322,-0.0679967,-2.66781
1555,-6,-5,8,3,-3,-3,-6,-8,0.0522461,0.536621,0.72168,2.1875,-4.6875,-3.25,0.647322,-0.0679967,-2.66781
1555,2,6,15,-4,-2,-1,-3,-2,0.0522461,0.536621,0.72168,2.1875,-4.6875,-3.25,0.647322,-0.0679967,-2.66781
1577,1,2,19,5,-1,0,0,1,0.0478516,0.509277,0.718262,2.5625,-4.875,-3.25,0.647667,-0.0683443,-2.66973
1577,4,19,15,7,2,2,-2,1,0.0478516,0.509277,0.718262,2.5625,-4.875,-3.25,0.647667,-0.0683443,-2.66973
1577,-3,-26,-25,-10,-3,-1,-2,0,0.0478516,0.509277,0.718262,2.5625,-4.875,-3.25,0.647667,-0.0683443,-2.66973
1577,-1,-2,10,3,0,-2,1,1,0.0478516,0.509277,0.718262,2.5625,-4.875,-3.25,0.647667,-0.0683443,-2.66973
1591,0,-1,-36,-4,-1,-1,-3,-2,0.0483398,0.51416,0.713867,5.125,-4.6875,-2.3125,0.649054,-0.0689373,-2.67133
1591,-3,-5,10,-1,-2,-2,3,-1,0.0483398,0.51416,0.713867,5.125,-4.6875,-2.3125,0.649054,-0.0689373,-2.67133
1592,2,16,12,3,-2,1,1,1,0.0483398,0.51416,0.713867,5.125,-4.6875,-2.3125,0.649054,-0.0689373,-2.67133
1592,-1,-12,-2,2,1,1,-2,0,0.0483398,0.51416,0.713867,5.125,-4.6875,-2.3125,0.649054,-0.0689373,-2.67133
1614,-4,-35,-108,-11,-2,0,0,-4,0.0483398,0.533203,0.701172,6.625,-4.75,-0.6875,0.651458,-0.0698184,-2.67243
1614,-5,-20,26,-1,-3,-2,-1,-3,0.0483398,0.533203,0.701172,6.625,-4.75,-0.6875,0.651458,-0.0698184,-2.67243
1615,2,7,35,6,0,0,-1,1,0.0483398,0.533203,0.701172,6.625,-4.75,-0.6875,0.651458,-0.0698184,-2.67243
1615,-3,15,-3,0,1,0,-1,-2,0.0483398,0.533203,0.701172,6.625,-4.75,-0.6875,0.651458,-0.0698184,-2.67243
1637,-1,0,30,4,-1,1,-1,0,0.0625,0.557129,0.706055,4.6875,-5.125,1.75,0.653445,-0.0715497,-2.67309
1637,1,1,-30,1,0,0,-1,-1,0.0625,0.557129,0.706055,4.6875,-5.125,1.75,0.653445,-0.0715497,-2.67309
1638,2,-1,-29,0,-2,-4,-1,0,0.0625,0.557129,0.706055,4.6875,-5.125,1.75,0.653445,-0.0715497,-2.67309
1638,-3,-10,15,-2,-1,-4,-1,-1,0.0625,0.557129,0.706055,4.6875,-5.125,1.75,0.653445,-0.0715497,-2.67309
1660,2,3,-7,-3,-4,0,-3,-1,0.0566406,0.538086,0.718262,2.3125,-5.3125,3.5,0.654062,-0.0735205,-2.67319
1660,2,20,35,-1,2,0,1,0,0.0566406,0.538086,0.718262,2.3125,-5.3125,3.5,0.654062,-0.0735205,-2.67319
1660,-1,-19,-6,-1,-1,-1,-1,0,0.0566406,0.538086,0.718262,2.3125,-5.3125,3.5,0.654062,-0.0735205,-2.67319
1660,-3,4,-22,-2,-3,0,0,-3,0.0566406,0.538086,0.718262,2.3125,-5.3125,3.5,0.654062,-0.0735205,-2.67319
1682,-1,-1,33,-5,-2,-1,-1,-1,0.0693359,0.518555,0.714355,4.625,-5.875,3.6875,0.655082,-0.0759515,-2.67338
1682,3,1,-1,2,-2,0,-1,-1,0.0693359,0.518555,0.714355,4.625,-5.875,3.6875,0.655082,-0.0759515,-2.67338
1682,1,15,15,3,1,1,-1,-1,0.0693359,0.518555,0.714355,4.625,-5.875,3.6875,0.655082,-0.0759515,-2.67338
1682,-3,-24,25,-3,-4,-2,-1,-1,0.0693359,0.518555,0.714355,4.625,-5.875,3.6875,0.655082,-0.0759515,-2.67338
1705,-2,0,-26,6,-2,-1,-2,-1,0.0756836,0.541504,0.702637,5.75,-5.5625,4.125,0.657005,-0.0785618,-2.67332
1705,-1,-3,1,-11,-2,-2,0,1,0.0756836,0.541504,0.702637,5.75,-5.5625,4.125,0.657005,-0.0785618,-2.67332
1705,0,3,-11,-1,-2,1,-1,1,0.0756836,0.541504,0.702637,5.75,-5.5625,4.125,0.657005,-0.0785618,-2.67332
1705,1,6,4,8,3,0,1,0,0.0756836,0.541504,0.702637,5.75,-5.5625,4.125,0.657005,-0.0785618,-2.67332
1712,0,9,28,0,-1,-1,0,-1,0.0678711,0.576172,0.706543,3.25,-5.75,6.6875,0.658786,-0.0814541,-2.67278
1712,1,-17,-14,1,-1,-1,-1,-1,0.0678711,0.576172,0.706543,3.25,-5.75,6.6875,0.658786,-0.0814541,-2.67278
1712,1,-7,-12,1,1,1,1,0,0.0678711,0.576172,0.706543,3.25,-5.75,6.6875,0.658786,-0.0814541,-2.67278
1712,-5,-16,-30,-11,-5,-3,-3,-2,0.0678711,0.576172,0.706543,3.25,-5.75,6.6875,0.658786,-0.0814541,-2.67278
1734,-2,2,6,-4,-3,-3,-1,-1,0.0708008,0.565918,0.711914,-0.875,-6.5,8.3125,0.658617,-0.0847625,-2.67192
1734,1,8,-8,3,2,-1,-2,-1,0.0708008,0.565918,0.711914,-0.875,-6.5,8.3125,0.658617,-0.0847625,-2.67192
1735,1,1,20,1,2,-1,0,-1,0.0708008,0.565918,0.711914,-0.875,-6.5,8.3125,0.658617,-0.0847625,-2.67192
1735,4,9,-2,5,-1,2,2,1,0.0708008,0.565918,0.711914,-0.875,-6.5,8.3125,0.658617,-0.0847625,-2.67192
1758,-3,-11,-9,-8,-1,-1,-1,-2,0.0810547,0.532227,0.70459,-2.875,-6.4375,8.0625,0.657305,-0.0883219,-2.67099
1758,1,10,3,-1,-3,-1,-4,-1,0.0810547,0.532227,0.70459,-2.875,-6.4375,8.0625,0.657305,-0.0883219,-2.67099
1758,-3,-25,-14,-2,-2,0,-1,0,0.0810547,0.532227,0.70459,-2.875,-6.4375,8.0625,0.657305,-0.0883219,-2.67099
1758,-2,-7,-21,-5,-1,1,0,-1,0.0810547,0.532227,0.70459,-2.875,-6.4375,8.0625,0.657305,-0.0883219,-2.67099
1772,-1,-3,2,-4,-3,-1,-1,-1,0.0913086,0.532227,0.712891,-1.0625,-5.6875,8.4375,0.656545,-0.091967,-2.66988
1772,2,8,19,11,0,-2,-1,1,0.0913086,0.532227,0.712891,-1.0625,-5.6875,8.4375,0.656545,-0.091967,-2.66988
1772,-1,18,-4,-15,2,-1,0,-2,0.0913086,0.532227,0.712891,-1.0625,-5.6875,8.4375,0.656545,-0.091967,-2.66988
1772,-3,-8,-32,-18,-6,-2,-1,-1,0.0913086,0.532227,0.712891,-1.0625,-5.6875,8.4375,0.656545,-0.091967,-2.66988
1795,-4,-15,24,4,-2,-2,0,-1,0.0942383,0.55957,0.712891,3.1875,-3.625,8.75,0.657633,-0.0949333,-2.6682
1795,-4,-6,-10,1,-1,0,-1,-2,0.0942383,0.55957,0.712891,3.1875,-3.625,8.75,0.657633,-0.0949333,-2.6682
1795,-1,2,7,3,-2,-3,-1,-2,0.0942383,0.55957,0.712891,3.1875,-3.625,8.75,0.657633,-0.0949333,-2.6682
1795,3,20,45,4,1,-2,-1,1,0.0942383,0.55957,0.712891,3.1875,-3.625,8.75,0.657633,-0.0949333,-2.6682
1818,2,-4,-33,-1,1,1,-1,1,0.0854492,0.57373,0.713379,2.1875,-2.125,8.9375,0.65862,-0.0973583,-2.66617
1818,-1,2,20,-1,-2,1,0,-2,0.0854492,0.57373,0.713379,2.1875,-2.125,8.9375,0.65862,-0.0973583,-2.66617
1819,-1,5,-5,1,0,-1,1,0,0.0854492,0.57373,0.713379,2.1875,-2.125,8.9375,0.65862,-0.0973583,-2.66617
1819,-1,-9,-8,0,-1,-2,-1,-1,0.0854492,0.57373,0.713379,2.1875,-2.125,8.9375,0.65862,-0.0973583,-2.66617
1832,1,7,2,-5,-3,-2,1,1,0.0761719,0.566406,0.711914,-2.6875,-1.6875,9.625,0.657818,-0.0995482,-2.66389
1832,0,5,7,6,6,2,0,1,0.0761719,0.566406,0.711914,-2.6875,-1.6875,9.625,0.657818,-0.0995482,-2.66389
1832,-3,2,-39,-8,-4,0,-1,-3,0.0761719,0.566406,0.711914,-2.6875,-1.6875,9.625,0.657818,-0.0995482,-2.66389
1832,-1,6,-1,1,-1,-1,-2,0,0.0761719,0.566406,0.711914,-2.6875,-1.6875,9.625,0.657818,-0.0995482,-2.66389
1854,-2,8,18,2,-1,-1,-3,-2,0.0834961,0.560059,0.711914,-2.9375,0.125,9.125,0.656715,-0.101239,-2.66127
1854,1,11,-3,-4,-1,-1,-2,0,0.0834961,0.560059,0.711914,-2.9375,0.125,9.125,0.656715,-0.101239,-2.66127
1855,-2,-13,17,3,-3,-2,-1,-1,0.0834961,0.560059,0.711914,-2.9375,0.125,9.125,0.656715,-0.101239,-2.66127
1855,1,3,-11,-4,0,-1,-1,-1,0.0834961,0.560059,0.711914,-2.9375,0.125,9.125,0.656715,-0.101239,-2.66127
1878,-1,-15,-37,-4,1,1,0,-1,0.0908203,0.556641,0.714355,-3.625,0.8125,9,0.655367,-0.102865,-2.65867
1878,-3,-6,37,1,-1,-2,-6,-6,0.0908203,0.556641,0.714355,-3.625,0.8125,9,0.655367,-0.102865,-2.65867
1878,-2,7,7,-7,-3,-2,-3,-2,0.0908203,0.556641,0.714355,-3.625,0.8125,9,0.655367,-0.102865,-2.65867
1878,4,19,-13,0,-1,-1,0,0,0.0908203,0.556641,0.714355,-3.625,0.8125,9,0.655367,-0.102865,-2.65867
1891,0,-19,-14,2,1,-1,-1,0,0.0966797,0.546387,0.723145,-3.125,1.5625,8.4375,0.653909,-0.104345,-2.65599
1891,-1,13,4,2,0,-1,4,0,0.0966797,0.546387,0.723145,-3.125,1.5625,8.4375,0.653909,-0.104345,-2.65599
1899,1,-10,-14,1,-1,-1,-1,1,0.0966797,0.546387,0.723145,-3.125,1.5625,8.4375,0.653909,-0.104345,-2.65599
1899,-6,-38,-23,-4,1,-2,0,-3,0.0966797,0.546387,0.723145,-3.125,1.5625,8.4375,0.653909,-0.104345,-2.65599
1914,1,16,0,-1,-2,-2,0,-1,0.10498,0.525879,0.739746,-0.625,2.0625,8.1875,0.652615,-0.105671,-2.65311
1914,-1,-3,-5,-4,-3,0,2,0,0.10498,0.525879,0.739746,-0.625,2.0625,8.1875,0.652615,-0.105671,-2.65311
1915,2,14,29,6,1,0,-1,1,0.10498,0.525879,0.739746,-0.625,2.0625,8.1875,0.652615,-0.105671,-2.65311
1915,0,16,3,-5,-2,0,0,0,0.10498,0.525879,0.739746,-0.625,2.0625,8.1875,0.652615,-0.105671,-2.65311
1937,-2,-5,19,6,-2,-1,0,0,0.129883,0.541016,0.70166,-0.25,2.5625,5.5625,0.652369,-0.107003,-2.65101
1937,-4,-15,-43,-11,-5,-2,-3,-5,0.129883,0.541016,0.70166,-0.25,2.5625,5.5625,0.652369,-0.107003,-2.65101
1939,2,11,23,-2,-1,0,0,-1,0.129883,0.541016,0.70166,-0.25,2.5625,5.5625,0.652369,-0.107003,-2.65101
1939,-5,-21,-39,-1,-4,-2,-1,-3,0.129883,0.541016,0.70166,-0.25,2.5625,5.5625,0.652369,-0.107003,-2.65101
1959,0,3,-4,0,1,2,0,1,0.126953,0.58252,0.712891,-0.1875,3.9375,5.1875,0.652836,-0.107634,-2.64882
1959,-1,2,8,-3,-3,-1,-1,-1,0.126953,0.58252,0.712891,-0.1875,3.9375,5.1875,0.652836,-0.107634,-2.64882
1961,-1,3,-6,2,4,1,1,1,0.126953,0.58252,0.712891,-0.1875,3.9375,5.1875,0.652836,-0.107634,-2.64882
1961,2,18,32,3,1,3,-1,1,0.126953,0.58252,0.712891,-0.1875,3.9375,5.1875,0.652836,-0.107634,-2.64882
1974,1,16,51,-2,-1,-2,-2,0,0.097168,0.57666,0.724609,-2.125,4.6875,6.875,0.652229,-0.107807,-2.64598
1974,-1,-11,-55,-5,0,-3,0,2,0.097168,0.57666,0.724609,-2.125,4.6875,6.875,0.652229,-0.107807,-2.64598
1975,0,-8,-4,-2,-4,-3,-2,-1,0.097168,0.57666,0.724609,-2.125,4.6875,6.875,0.652229,-0.107807,-2.64598
1975,0,-6,15,0,-1,-2,-3,-1,0.097168,0.57666,0.724609,-2.125,4.6875,6.875,0.652229,-0.107807,-2.64598
1997,0,5,-8,-1,0,-1,0,-1,0.0942383,0.541992,0.713867,-4.4375,4.75,4.8125,0.650393,-0.107348,-2.64358
1997,0,-1,20,-1,-3,-1,-1,0,0.0942383,0.541992,0.713867,-4.4375,4.75,4.8125,0.650393,-0.107348,-2.64358
1998,-6,-19,-12,-8,-7,-4,-4,-4,0.0942383,0.541992,0.713867,-4.4375,4.75,4.8125,0.650393,-0.107348,-2.64358
1998,0,2,20,3,-2,0,-2,-3,0.0942383,0.541992,0.713867,-4.4375,4.75,4.8125,0.650393,-0.107348,-2.64358
2010,0,6,-8,-3,1,1,0,-1,0.0996094,0.531738,0.717773,-3.5625,5.625,3.5625,0.648755,-0.106761,-2.64136
2010,-1,-19,-34,-2,-1,-1,-1,-1,0.0996094,0.531738,0.717773,-3.5625,5.625,3.5625,0.648755,-0.106761,-2.64136
2019,1,4,-2,3,1,0,-2,0,0.0996094,0.531738,0.717773,-3.5625,5.625,3.5625,0.648755,-0.106761,-2.64136
2019,-3,-2,7,-5,-2,-3,0,0,0.0996094,0.531738,0.717773,-3.5625,5.625,3.5625,0.648755,-0.106761,-2.64136
2034,-5,-4,4,-1,-3,-4,-4,-1,0.0917969,0.536133,0.724121,-1.8125,5.5625,3.5625,0.647579,-0.105743,-2.63914
2034,-3,-6,-16,-4,1,0,-1,-1,0.0917969,0.536133,0.724121,-1.8125,5.5625,3.5625,0.647579,-0.105743,-2.63914
2035,1,8,15,6,1,-1,-1,0,0.0917969,0.536133,0.724121,-1.8125,5.5625,3.5625,0.647579,-0.105743,-2.63914
2035,-2,-25,-21,2,0,0,-2,-1,0.0917969,0.536133,0.724121,-1.8125,5.5625,3.5625,0.647579,-0.105743,-2.63914
2057,-2,10,25,-9,-2,-1,-1,-3,0.115234,0.539551,0.72168,-0.75,4.4375,2.625,0.646989,-0.105659,-2.6374
2057,2,1,-4,-4,-2,0,-1,1,0.115234,0.539551,0.72168,-0.75,4.4375,2.625,0.646989,-0.105659,-2.6374
2058,-4,-22,-24,1,-3,0,0,-1,0.115234,0.539551,0.72168,-0.75,4.4375,2.625,0.646989,-0.105659,-2.6374
2058,1,13,-7,-3,-1,-1,0,1,0.115234,0.539551,0.72168,-0.75,4.4375,2.625,0.646989,-0.105659,-2.6374
2080,-3,-11,-34,-4,-5,2,-1,-1,0.102051,0.540527,0.730469,-1.3125,4.625,1.1875,0.64632,-0.104747,-2.63606
2080,0,8,18,1,0,0,-2,0,0.102051,0.540527,0.730469,-1.3125,4.625,1.1875,0.64632,-0.104747,-2.63606
2080,0,11,19,1,3,1,0,-1,0.102051,0.540527,0.730469,-1.3125,4.625,1.1875,0.64632,-0.104747,-2.63606
2080,2,7,3,3,2,1,2,0,0.102051,0.540527,0.730469,-1.3125,4.625,1.1875,0.64632,-0.104747,-2.63606
2095,-3,-18,-24,-7,-2,-1,-2,-2,0.109375,0.52832,0.710449,0.8125,4.3125,1.3125,0.646215,-0.104222,-2.6348
2095,7,22,26,6,-2,0,2,3,0.109375,0.52832,0.710449,0.8125,4.3125,1.3125,0.646215,-0.104222,-2.6348
2095,-8,-11,-34,-9,-4,-2,-3,-2,0.109375,0.52832,0.710449,0.8125,4.3125,1.3125,0.646215,-0.104222,-2.6348
2095,-2,-1,13,3,-1,0,-2,-2,0.109375,0.52832,0.710449,0.8125,4.3125,1.3125,0.646215,-0.104222,-2.6348
2117,2,17,3,1,2,-1,0,-1,0.108887,0.542969,0.727539,5.25,6.375,-1.6875,0.647888,-0.102469,-2.63394
2117,-3,2,5,-1,-2,-1,-1,-3,0.108887,0.542969,0.727539,5.25,6.375,-1.6875,0.647888,-0.102469,-2.63394
2118,2,-1,14,-1,0,-1,0,-1,0.108887,0.542969,0.727539,5.25,6.375,-1.6875,0.647888,-0.102469,-2.63394
2118,-2,1,3,-2,1,0,-1,2,0.108887,0.542969,0.727539,5.25,6.375,-1.6875,0.647888,-0.102469,-2.63394
2131,2,3,0,1,-3,0,0,0,0.0932617,0.548828,0.713379,6,6.5625,-2.125,0.650056,-0.100288,-2.63316
2131,-5,-13,-13,-3,-3,-3,-2,0,0.0932617,0.548828,0.713379,6,6.5625,-2.125,0.650056,-0.100288,-2.63316
2139,-2,-2,-8,1,-1,-1,-1,-1,0.0932617,0.548828,0.713379,6,6.5625,-2.125,0.650056,-0.100288,-2.63316
2139,-2,11,15,-2,0,-3,-2,-1,0.0932617,0.548828,0.713379,6,6.5625,-2.125,0.650056,-0.100288,-2.63316
2155,1,-7,9,6,2,-1,1,-1,0.0800781,0.572266,0.70752,5,5.875,-2.8125,0.652415,-0.0977994,-2.63263
2155,0,0,15,-3,0,1,-2,-1,0.0800781,0.572266,0.70752,5,5.875,-2.8125,0.652415,-0.0977994,-2.63263
2155,1,-4,-35,-8,-4,1,0,-1,0.0800781,0.572266,0.70752,5,5.875,-2.8125,0.652415,-0.0977994,-2.63263
2155,-2,-9,-33,-3,-4,-2,-2,-3,0.0800781,0.572266,0.70752,5,5.875,-2.8125,0.652415,-0.0977994,-2.63263
2177,0,-10,-10,2,-2,0,-1,-1,0.0708008,0.569336,0.709961,2.1875,5.8125,-4.1875,0.653659,-0.094964,-2.63263
2177,0,10,28,-1,0,-2,0,0,0.0708008,0.569336,0.709961,2.1875,5.8125,-4.1875,0.653659,-0.094964,-2.63263
2178,0,-8,5,-1,-3,-2,-1,-2,0.0708008,0.569336,0.709961,2.1875,5.8125,-4.1875,0.653659,-0.094964,-2.63263
2178,1,8,-1,3,0,-1,0,0,0.0708008,0.569336,0.709961,2.1875,5.8125,-4.1875,0.653659,-0.094964,-2.63263
2200,-1,-9,-24,-5,-2,0,-1,-1,0.0556641,0.558105,0.708984,-0.4375,4.5625,-3.6875,0.653784,-0.0922071,-2.63262
2200,-3,-6,14,1,0,0,-2,-1,0.0556641,0.558105,0.708984,-0.4375,4.5625,-3.6875,0.653784,-0.0922071,-2.63262
2201,0,9,27,5,-2,2,-1,1,0.0556641,0.558105,0.708984,-0.4375,4.5625,-3.6875,0.653784,-0.0922071,-2.63262
2201,-1,0,-8,-7,-1,-2,-2,-2,0.0556641,0.558105,0.708984,-0.4375,4.5625,-3.6875,0.653784,-0.0922071,-2.63262
2214,1,4,1,3,1,-3,0,-1,0.0537109,0.551758,0.712402,0.3125,3.3125,-4.375,0.653977,-0.089694,-2.63312
2214,-2,-1,-11,-5,0,0,1,-1,0.0537109,0.551758,0.712402,0.3125,3.3125,-4.375,0.653977,-0.089694,-2.63312
2215,0,-2,11,-1,1,-3,-1,0,0.0537109,0.551758,0.712402,0.3125,3.3125,-4.375,0.653977,-0.089694,-2.63312
2215,2,5,37,4,0,-1,-1,0,0.0537109,0.551758,0.712402,0.3125,3.3125,-4.375,0.653977,-0.089694,-2.63312
2238,-3,-17,-48,-8,-3,1,-2,-2,0.0654297,0.540039,0.714355,2.4375,2.5,-5.125,0.654889,-0.0875157,-2.634
2238,-3,-5,1,-4,-3,3,-2,-2,0.0654297,0.540039,0.714355,2.4375,2.5,-5.125,0.654889,-0.0875157,-2.634
2239,-2,1,-2,-1,-1,-1,1,0,0.0654297,0.540039,0.714355,2.4375,2.5,-5.125,0.654889,-0.0875157,-2.634
2239,1,7,8,0,-1,0,0,-1,0.0654297,0.540039,0.714355,2.4375,2.5,-5.125,0.654889,-0.0875157,-2.634
2260,0,5,27,3,0,-3,-3,0,0.059082,0.541504,0.701172,3.4375,1.25,-6.4375,0.65613,-0.0854552,-2.63555
2260,2,7,-3,1,-2,-6,0,0,0.059082,0.541504,0.701172,3.4375,1.25,-6.4375,0.65613,-0.0854552,-2.63555
2260,-5,-10,-37,-5,-4,-2,-2,-1,0.059082,0.541504,0.701172,3.4375,1.25,-6.4375,0.65613,-0.0854552,-2.63555
2260,-3,-20,-5,-1,-1,2,-2,0,0.059082,0.541504,0.701172,3.4375,1.25,-6.4375,0.65613,-0.0854552,-2.63555
2274,-3,-6,11,0,-1,-1,-2,-2,0.0605469,0.556152,0.692383,2.9375,-0.25,-6.4375,0.657787,-0.0837766,-2.63745
2274,0,-8,-16,-1,1,0,-1,0,0.0605469,0.556152,0.692383,2.9375,-0.25,-6.4375,0.657787,-0.0837766,-2.63745
2275,2,14,7,2,1,0,-2,1,0.0605469,0.556152,0.692383,2.9375,-0.25,-6.4375,0.657787,-0.0837766,-2.63745
2275,-2,8,11,-4,0,-1,0,-1,0.0605469,0.556152,0.692383,2.9375,-0.25,-6.4375,0.657787,-0.0837766,-2.63745
2297,-1,2,13,1,-2,-3,0,-1,0.0507812,0.555176,0.697754,1,-2.375,-4.9375,0.658585,-0.0827997,-2.6393
2297,0,2,-50,-1,-2,1,0,1,0.0507812,0.555176,0.697754,1,-2.375,-4.9375,0.658585,-0.0827997,-2.6393
2298,-1,-15,52,-1,-2,-2,0,-4,0.0507812,0.555176,0.697754,1,-2.375,-4.9375,0.658585,-0.0827997,-2.6393
2298,1,5,18,2,1,-1,-1,-1,0.0507812,0.555176,0.697754,1,-2.375,-4.9375,0.658585,-0.0827997,-2.6393
2320,-1,5,-23,-1,-2,1,0,0,0.0576172,0.549805,0.703613,-0.25,-4.9375,-4.125,0.658873,-0.0829081,-2.6415
2320,0,-9,7,-1,-2,-2,1,-1,0.0576172,0.549805,0.703613,-0.25,-4.9375,-4.125,0.658873,-0.0829081,-2.6415
2321,-1,12,-7,4,0,0,-1,0,0.0576172,0.549805,0.703613,-0.25,-4.9375,-4.125,0.658873,-0.0829081,-2.6415
2321,-3,-10,-31,-5,-5,-2,-2,-2,0.0576172,0.549805,0.703613,-0.25,-4.9375,-4.125,0.658873,-0.0829081,-2.6415
2334,-3,2,28,1,3,-1,1,0,0.0673828,0.536133,0.680664,-3.9375,-8.25,-3.875,0.657901,-0.084165,-2.64436
2334,-1,-1,4,1,1,1,-1,-2,0.0673828,0.536133,0.680664,-3.9375,-8.25,-3.875,0.657901,-0.084165,-2.64436
2334,0,2,-3,0,-2,0,-2,-2,0.0673828,0.536133,0.680664,-3.9375,-8.25,-3.875,0.657901,-0.084165,-2.64436
2334,-2,-7,14,-4,-3,-3,-1,-1,0.0673828,0.536133,0.680664,-3.9375,-8.25,-3.875,0.657901,-0.084165,-2.64436
2358,0,-3,-12,-2,-2,0,-2,0,0.078125,0.544434,0.688477,-4.875,-10,-1.4375,0.65666,-0.0866743,-2.64686
2358,-2,3,8,0,-2,-1,0,-1,0.078125,0.544434,0.688477,-4.875,-10,-1.4375,0.65666,-0.0866743,-2.64686
2358,2,-9,4,1,2,0,1,1,0.078125,0.544434,0.688477,-4.875,-10,-1.4375,0.65666,-0.0866743,-2.64686
2358,2,17,-32,-3,0,-1,0,0,0.078125,0.544434,0.688477,-4.875,-10,-1.4375,0.65666,-0.0866743,-2.64686
2380,-3,-19,34,1,-2,-2,0,-2,0.0727539,0.522461,0.711426,-2.8125,-11.6875,1.0625,0.655376,-0.0899839,-2.64892
2380,-4,-28,-41,-5,-1,-1,-2,-2,0.0727539,0.522461,0.711426,-2.8125,-11.6875,1.0625,0.655376,-0.0899839,-2.64892
2381,2,13,13,-1,0,0,-1,0,0.0727539,0.522461,0.711426,-2.8125,-11.6875,1.0625,0.655376,-0.0899839,-2.64892
2381,0,6,24,1,1,0,0,0,0.0727539,0.522461,0.711426,-2.8125,-11.6875,1.0625,0.655376,-0.0899839,-2.64892
2402,-2,-15,0,0,0,0,0,-2,0.0883789,0.510254,0.708008,-0.4375,-12.25,0.5,0.65483,-0.0936259,-2.65136
2402,-3,-1,9,-4,-3,-1,-1,-1,0.0883789,0.510254,0.708008,-0.4375,-12.25,0.5,0.65483,-0.0936259,-2.65136
2403,-1,0,-21,-5,-2,-3,-1,-3,0.0883789,0.510254,0.708008,-0.4375,-12.25,0.5,0.65483,-0.0936259,-2.65136
2403,1,6,36,5,0,1,0,-2,0.0883789,0.510254,0.708008,-0.4375,-12.25,0.5,0.65483,-0.0936259,-2.65136
2425,2,13,-49,-7,0,1,1,1,0.0986328,0.518555,0.719238,3.75,-11.4375,2.125,0.655723,-0.0975931,-2.65322
2425,-3,-13,3,0,-2,-1,-2,-3,0.0986328,0.518555,0.719238,3.75,-11.4375,2.125,0.655723,-0.0975931,-2.65322
2426,-1,-3,0,1,1,-1,-3,-2,0.0986328,0.518555,0.719238,3.75,-11.4375,2.125,0.655723,-0.0975931,-2.65322
2426,-1,7,-7,-1,-3,-3,-1,0,0.0986328,0.518555,0.719238,3.75,-11.4375,2.125,0.655723,-0.0975931,-2.65322
2440,2,15,44,2,0,0,-2,0,0.0991211,0.52832,0.717285,5.625,-11.9375,3.8125,0.657336,-0.101874,-2.65468
2440,-1,-2,-12,2,0,-2,0,0,0.0991211,0.52832,0.717285,5.625,-11.9375,3.8125,0.657336,-0.101874,-2.65468
2440,-5,-14,-13,-4,-6,-2,-3,-3,0.0991211,0.52832,0.717285,5.625,-11.9375,3.8125,0.657336,-0.101874,-2.65468
2440,1,0,19,2,-2,-2,0,0,0.0991211,0.52832,0.717285,5.625,-11.9375,3.8125,0.657336,-0.101874,-2.65468
2454,3,-6,-2,5,1,-1,-2,0,0.109375,0.54541,0.715332,6.0625,-11.25,3.5625,0.659404,-0.106063,-2.65601
2454,1,18,-5,-5,-1,-3,-2,-2,0.109375,0.54541,0.715332,6.0625,-11.25,3.5625,0.659404,-0.106063,-2.65601
2455,-2,-3,-21,-4,0,-1,0,1,0.109375,0.54541,0.715332,6.0625,-11.25,3.5625,0.659404,-0.106063,-2.65601
2455,-1,-7,-2,-1,-3,0,-1,-1,0.109375,0.54541,0.715332,6.0625,-11.25,3.5625,0.659404,-0.106063,-2.65601
2493,-1,8,2,-1,-1,-1,-2,1,0.121094,0.549316,0.722656,6.3125,-8.625,7,0.661337,-0.110448,-2.65593
2493,0,-11,-11,-1,-1,1,2,1,0.121094,0.549316,0.722656,6.3125,-8.625,7,0.661337,-0.110448,-2.65593
2493,2,11,8,5,3,0,0,0,0.121094,0.549316,0.722656,6.3125,-8.625,7,0.661337,-0.110448,-2.65593
2493,-2,-2,11,-6,-1,0,-2,-2,0.121094,0.549316,0.722656,6.3125,-8.625,7,0.661337,-0.110448,-2.65593
2500,-3,-5,-28,-5,1,0,-2,-3,0.0961914,0.562012,0.723145,4.25,-7.0625,6.5625,0.66276,-0.113599,-2.65558
2500,-1,2,32,4,1,2,-2,-1,0.0961914,0.562012,0.723145,4.25,-7.0625,6.5625,0.66276,-0.113599,-2.65558
2516,-1,16,-16,1,-1,-2,-2,-2,0.0961914,0.562012,0.723145,4.25,-7.0625,6.5625,0.66276,-0.113599,-2.65558
2516,-5,-3,-37,-4,-1,-1,0,0,0.0961914,0.562012,0.723145,4.25,-7.0625,6.5625,0.66276,-0.113599,-2.65558
2517,-2,-8,21,-4,-6,-2,-1,0,0.0996094,0.569336,0.723145,-0.6875,-6.4375,8.0625,0.662554,-0.116917,-2.65466
2517,-1,3,1,-1,-1,-1,0,0,0.0996094,0.569336,0.723145,-0.6875,-6.4375,8.0625,0.662554,-0.116917,-2.65466
2517,0,-7,7,-2,-2,0,0,0,0.0996094,0.569336,0.723145,-0.6875,-6.4375,8.0625,0.662554,-0.116917,-2.65466
2517,0,-14,-12,2,0,0,-2,-1,0.0996094,0.569336,0.723145,-0.6875,-6.4375,8.0625,0.662554,-0.116917,-2.65466
2538,-1,17,-2,2,2,-1,-1,-2,0.120117,0.550293,0.719238,-0.625,-3.875,5.6875,0.661991,-0.119428,-2.65388
2538,1,-4,-23,-1,-1,0,-2,0,0.120117,0.550293,0.719238,-0.625,-3.875,5.6875,0.661991,-0.119428,-2.65388
2538,0,3,42,-2,-3,0,-1,-1,0.120117,0.550293,0.719238,-0.625,-3.875,5.6875,0.661991,-0.119428,-2.65388
2538,0,-9,-27,-1,-3,-2,-1,0,0.120117,0.550293,0.719238,-0.625,-3.875,5.6875,0.661991,-0.119428,-2.65388
2560,1,-4,-16,-3,1,1,-2,-1,0.0927734,0.538574,0.724121,3.8125,-0.3125,8.875,0.662505,-0.12097,-2.65143
2560,1,4,16,1,2,0,-1,0,0.0927734,0.538574,0.724121,3.8125,-0.3125,8.875,0.662505,-0.12097,-2.65143
2560,1,7,21,3,-1,0,-1,2,0.0927734,0.538574,0.724121,3.8125,-0.3125,8.875,0.662505,-0.12097,-2.65143
2560,0,-10,-26,-3,0,-1,1,-2,0.0927734,0.538574,0.724121,3.8125,-0.3125,8.875,0.662505,-0.12097,-2.65143
2574,-3,1,1,-2,-1,0,1,0,0.0820312,0.567383,0.724609,5.6875,2.8125,8.1875,0.664142,-0.121249,-2.64858
2574,0,0,-5,-3,-1,-2,-1,0,0.0820312,0.567383,0.724609,5.6875,2.8125,8.1875,0.664142,-0.121249,-2.64858
2582,1,12,15,0,-1,-2,0,1,0.0820312,0.567383,0.724609,5.6875,2.8125,8.1875,0.664142,-0.121249,-2.64858
2582,-5,3,-19,-4,-3,-2,-3,-2,0.0820312,0.567383,0.724609,5.6875,2.8125,8.1875,0.664142,-0.121249,-2.64858
2597,-3,-25,-1,1,-3,-1,-2,-2,0.0834961,0.583496,0.714355,3.9375,4.75,9.6875,0.665538,-0.121345,-2.6449
2597,-4,15,9,-1,-2,-1,-1,-2,0.0834961,0.583496,0.714355,3.9375,4.75,9.6875,0.665538,-0.121345,-2.6449
2598,-1,-12,-26,-6,0,0,1,0,0.0834961,0.583496,0.714355,3.9375,4.75,9.6875,0.665538,-0.121345,-2.6449
2598,2,6,36,3,0,-1,-1,0,0.0834961,0.583496,0.714355,3.9375,4.75,9.6875,0.665538,-0.121345,-2.6449
2620,-3,5,10,0,-2,-1,0,-3,0.101074,0.570801,0.707031,3.5,6,10.875,0.666483,-0.121821,-2.6406
2620,1,13,5,0,-3,-3,-3,0,0.101074,0.570801,0.707031,3.5,6,10.875,0.666483,-0.121821,-2.6406
2620,1,-19,-21,-1,2,-3,-2,-1,0.101074,0.570801,0.707031,3.5,6,10.875,0.666483,-0.121821,-2.6406
2620,1,8,17,4,0,2,-2,0,0.101074,0.570801,0.707031,3.5,6,10.875,0.666483,-0.121821,-2.6406
2634,-3,-26,-78,-9,-3,-2,-1,0,0.120117,0.552734,0.711426,4.0625,8.125,9.625,0.667273,-0.121902,-2.63621
2634,-4,-16,20,0,-1,-1,-2,-2,0.120117,0.552734,0.711426,4.0625,8.125,9.625,0.667273,-0.121902,-2.63621
2642,-3,-4,-23,-2,-1,1,0,0,0.112305,0.553223,0.708496,4.6875,9.25,10.375,0.66813,-0.121669,-2.63122
2642,0,1,-2,-1,-3,-3,0,-1,0.112305,0.553223,0.708496,4.6875,9.25,10.375,0.66813,-0.121669,-2.63122
2665,1,13,17,0,1,0,0,0,0.112305,0.553223,0.708496,4.6875,9.25,10.375,0.66813,-0.121669,-2.63122
2665,0,0,-2,4,1,0,1,0,0.112305,0.553223,0.708496,4.6875,9.25,10.375,0.66813,-0.121669,-2.63122
2666,-3,-20,-2,-9,-6,-2,-1,-1,0.12207,0.563965,0.711426,5.375,9.5625,9.875,0.669574,-0.121418,-2.62645
2666,0,10,-2,-4,0,1,-1,0,0.12207,0.563965,0.711426,5.375,9.5625,9.875,0.669574,-0.121418,-2.62645
2680,0,6,5,1,0,-3,-2,-1,0.12207,0.563965,0.711426,5.375,9.5625,9.875,0.669574,-0.121418,-2.62645
2680,-1,-10,-3,-1,-1,0,-1,0,0.12207,0.563965,0.711426,5.375,9.5625,9.875,0.669574,-0.121418,-2.62645
2681,0,5,16,4,1,-1,-7,-2,0.132812,0.554688,0.702148,3.1875,9.1875,8,0.670134,-0.121258,-2.62216
2681,2,6,12,2,1,2,13,-1,0.132812,0.554688,0.702148,3.1875,9.1875,8,0.670134,-0.121258,-2.62216
2694,0,4,-6,-4,0,-2,-1,0,0.132812,0.554688,0.702148,3.1875,9.1875,8,0.670134,-0.121258,-2.62216
2694,-1,-8,0,-2,0,-2,-2,-2,0.132812,0.554688,0.702148,3.1875,9.1875,8,0.670134,-0.121258,-2.62216
2702,-1,5,-8,0,-1,0,0,0,0.139648,0.572754,0.704102,1.25,9.375,6.6875,0.670374,-0.12087,-2.61829
2702,-1,-9,-13,-1,-1,-1,-5,-1,0.139648,0.572754,0.704102,1.25,9.375,6.6875,0.670374,-0.12087,-2.61829
2725,0,20,44,2,1,-1,0,1,0.139648,0.572754,0.704102,1.25,9.375,6.6875,0.670374,-0.12087,-2.61829
2725,-1,-8,-5,-4,-3,-3,-1,-3,0.139648,0.572754,0.704102,1.25,9.375,6.6875,0.670374,-0.12087,-2.61829
2726,-3,-9,-48,-5,0,-1,-1,-1,0.132812,0.581543,0.703125,2.1875,9.875,6.5625,0.671088,-0.120104,-2.61434
2726,-2,-12,-6,-3,-1,-1,-3,-1,0.132812,0.581543,0.703125,2.1875,9.875,6.5625,0.671088,-0.120104,-2.61434
2740,-1,-3,8,2,-1,-1,1,-1,0.132812,0.581543,0.703125,2.1875,9.875,6.5625,0.671088,-0.120104,-2.61434
2740,0,18,21,2,0,-2,-1,-2,0.132812,0.581543,0.703125,2.1875,9.875,6.5625,0.671088,-0.120104,-2.61434
2741,-2,0,6,1,0,-1,0,0,0.128906,0.581055,0.692383,1.4375,10.4375,4.8125,0.671786,-0.118915,-2.61083
2741,0,-3,-16,-4,0,-2,-3,-1,0.128906,0.581055,0.692383,1.4375,10.4375,4.8125,0.671786,-0.118915,-2.61083
2754,3,-4,6,2,2,1,0,0,0.128906,0.581055,0.692383,1.4375,10.4375,4.8125,0.671786,-0.118915,-2.61083
2754,-4,-34,-52,-9,-4,-2,-2,-1,0.128906,0.581055,0.692383,1.4375,10.4375,4.8125,0.671786,-0.118915,-2.61083
2770,0,-5,-32,-1,-1,0,0,-1,0.111328,0.578125,0.70166,1.25,11.3125,2.1875,0.672261,-0.116411,-2.60781
2770,-2,4,13,3,0,0,-1,-1,0.111328,0.578125,0.70166,1.25,11.3125,2.1875,0.672261,-0.116411,-2.60781
2778,0,7,11,0,-4,-3,-5,-2,0.111328,0.578125,0.70166,1.25,11.3125,2.1875,0.672261,-0.116411,-2.60781
2778,0,10,-2,1,0,1,10,-1,0.111328,0.578125,0.70166,1.25,11.3125,2.1875,0.672261,-0.116411,-2.60781
2779,-1,-1,20,-2,-3,0,1,-2,0.0961914,0.574707,0.703125,1.9375,11.625,0.1875,0.672813,-0.113002,-2.60511
2779,-2,-13,-10,3,2,-3,-1,-1,0.0961914,0.574707,0.703125,1.9375,11.625,0.1875,0.672813,-0.113002,-2.60511
2807,-1,4,-17,-6,-2,-2,-3,-2,0.0961914,0.574707,0.703125,1.9375,11.625,0.1875,0.672813,-0.113002,-2.60511
2807,1,18,13,0,0,-1,-4,-2,0.0961914,0.574707,0.703125,1.9375,11.625,0.1875,0.672813,-0.113002,-2.60511
2809,-4,-15,-37,-1,1,1,-1,-1,0.0717773,0.572754,0.70459,3,11.5,-0.5625,0.673936,-0.109083,-2.60286
2809,0,4,19,-1,-2,-3,-1,0,0.0717773,0.572754,0.70459,3,11.5,-0.5625,0.673936,-0.109083,-2.60286
2813,1,0,3,2,1,0,-1,0,0.0717773,0.572754,0.70459,3,11.5,-0.5625,0.673936,-0.109083,-2.60286
2813,0,-1,5,3,-1,-1,5,8,0.0717773,0.572754,0.70459,3,11.5,-0.5625,0.673936,-0.109083,-2.60286
2822,-1,-9,10,-1,-2,-6,-3,-3,0.0639648,0.566895,0.692383,0.375,9.1875,-0.4375,0.674054,-0.105806,-2.60093
2822,-2,-2,12,0,-1,0,-3,-2,0.0639648,0.566895,0.692383,0.375,9.1875,-0.4375,0.674054,-0.105806,-2.60093
2837,2,2,-32,-3,1,0,0,0,0.0639648,0.566895,0.692383,0.375,9.1875,-0.4375,0.674054,-0.105806,-2.60093
2837,0,20,42,3,2,1,-2,1,0.0639648,0.566895,0.692383,0.375,9.1875,-0.4375,0.674054,-0.105806,-2.60093
2839,-4,-10,-10,-5,-2,0,0,-2,0.0854492,0.586426,0.686035,-2,7.1875,-1.6875,0.673969,-0.103204,-2.59993
2839,-2,-9,-6,2,0,1,0,1,0.0854492,0.586426,0.686035,-2,7.1875,-1.6875,0.673969,-0.103204,-2.59993
2860,-3,-5,5,1,-3,-2,1,2,0.0854492,0.586426,0.686035,-2,7.1875,-1.6875,0.673969,-0.103204,-2.59993
2860,0,0,10,2,-1,-2,-2,-3,0.0854492,0.586426,0.686035,-2,7.1875,-1.6875,0.673969,-0.103204,-2.59993
2862,-2,6,6,-2,-5,-1,-1,1,0.100586,0.594238,0.701172,-3.4375,7.25,-3.8125,0.67346,-0.100552,-2.59944
2862,-1,-3,-6,-5,-3,-3,-4,-5,0.100586,0.594238,0.701172,-3.4375,7.25,-3.8125,0.67346,-0.100552,-2.59944
2882,-1,-8,-22,-2,-2,-1,0,-4,0.100586,0.594238,0.701172,-3.4375,7.25,-3.8125,0.67346,-0.100552,-2.59944
2882,-8,-43,-13,-9,-4,-2,-6,-5,0.100586,0.594238,0.701172,-3.4375,7.25,-3.8125,0.67346,-0.100552,-2.59944
2884,1,4,24,1,0,0,-5,0,0.0888672,0.565918,0.705078,-3.125,8.25,-1.125,0.672275,-0.0981058,-2.59783
2884,2,0,5,1,-1,1,10,1,0.0888672,0.565918,0.705078,-3.125,8.25,-1.125,0.672275,-0.0981058,-2.59783
2897,-2,-2,-33,-5,-1,-1,1,-2,0.0888672,0.565918,0.705078,-3.125,8.25,-1.125,0.672275,-0.0981058,-2.59783
2897,4,-8,1,2,-1,-2,-1,-2,0.0888672,0.565918,0.705078,-3.125,8.25,-1.125,0.672275,-0.0981058,-2.59783
2899,3,3,-28,-5,-2,0,-1,2,0.0883789,0.535645,0.691406,-1.625,9.5,-1.1875,0.671337,-0.0953987,-2.59606
2899,0,12,44,2,-2,-1,-3,0,0.0883789,0.535645,0.691406,-1.625,9.5,-1.1875,0.671337,-0.0953987,-2.59606
2920,-6,-32,-45,-8,-3,0,-2,-4,0.0883789,0.535645,0.691406,-1.625,9.5,-1.1875,0.671337,-0.0953987,-2.59606
2920,2,17,11,4,3,1,3,-1,0.0883789,0.535645,0.691406,-1.625,9.5,-1.1875,0.671337,-0.0953987,-2.59606
2922,-3,-6,21,2,-1,-2,0,-2,0.101562,0.556152,0.708008,-1.0625,10.125,-1.0625,0.670623,-0.0928081,-2.5941
2922,2,7,-8,0,0,-2,-2,-1,0.101562,0.556152,0.708008,-1.0625,10.125,-1.0625,0.670623,-0.0928081,-2.5941
2934,1,8,24,-1,-3,-1,-1,-1,0.101562,0.556152,0.708008,-1.0625,10.125,-1.0625,0.670623,-0.0928081,-2.5941
2934,0,-5,-20,-2,-1,1,-5,-2,0.101562,0.556152,0.708008,-1.0625,10.125,-1.0625,0.670623,-0.0928081,-2.5941
2943,1,4,7,-2,-2,-2,-1,1,0.0942383,0.567871,0.726562,-2.6875,11.625,-0.8125,0.669405,-0.0897872,-2.59185
2943,-1,-8,-18,-4,0,-1,-2,-1,0.0942383,0.567871,0.726562,-2.6875,11.625,-0.8125,0.669405,-0.0897872,-2.59185
2957,-2,-2,29,2,1,-1,-1,-1,0.0942383,0.567871,0.726562,-2.6875,11.625,-0.8125,0.669405,-0.0897872,-2.59185
2957,2,3,-13,-1,0,1,-3,0,0.0942383,0.567871,0.726562,-2.6875,11.625,-0.8125,0.669405,-0.0897872,-2.59185
2959,1,13,34,2,-1,1,0,-1,0.0766602,0.544434,0.728516,-6.4375,12.375,1.25,0.666242,-0.0865978,-2.58878
2959,-3,5,-16,-3,-2,-2,-1,-3,0.0766602,0.544434,0.728516,-6.4375,12.375,1.25,0.666242,-0.0865978,-2.58878
2980,1,2,11,1,-4,-1,-2,-1,0.0766602,0.544434,0.728516,-6.4375,12.375,1.25,0.666242,-0.0865978,-2.58878
2980,0,10,-2,1,2,-1,-1,0,0.0766602,0.544434,0.728516,-6.4375,12.375,1.25,0.666242,-0.0865978,-2.58878
2982,1,-8,-5,1,3,0,1,-1,0.090332,0.508301,0.724121,-1,13.1875,1,0.664547,-0.0835056,-2.5855
2982,-4,0,-5,-3,-2,-2,-2,-3,0.090332,0.508301,0.724121,-1,13.1875,1,0.664547,-0.0835056,-2.5855
2994,2,13,12,2,1,-1,2,2,0.090332,0.508301,0.724121,-1,13.1875,1,0.664547,-0.0835056,-2.5855
2994,-5,-1,-5,-4,-4,-3,-10,-12,0.090332,0.508301,0.724121,-1,13.1875,1,0.664547,-0.0835056,-2.5855
3003,0,5,4,2,0,-1,1,-3,0.090332,0.555176,0.705566,-0.3125,14.4375,-0.25,0.664223,-0.0799401,-2.58246
3003,-1,-15,-17,-3,-2,-2,-2,0,0.090332,0.555176,0.705566,-0.3125,14.4375,-0.25,0.664223,-0.0799401,-2.58246
3018,0,4,16,0,-2,-1,-4,0,0.090332,0.555176,0.705566,-0.3125,14.4375,-0.25,0.664223,-0.0799401,-2.58246
3018,0,-5,-12,-7,-2,-2,1,2,0.090332,0.555176,0.705566,-0.3125,14.4375,-0.25,0.664223,-0.0799401,-2.58246
3019,-4,-1,-9,-1,0,2,12,1,0.0825195,0.60498,0.71582,-2.5625,16.0625,-0.25,0.663928,-0.0758336,-2.57904
3019,2,0,1,1,1,0,-4,0,0.0825195,0.60498,0.71582,-2.5625,16.0625,-0.25,0.663928,-0.0758336,-2.57904
3048,0,11,9,-1,1,-1,1,0,0.0825195,0.60498,0.71582,-2.5625,16.0625,-0.25,0.663928,-0.0758336,-2.57904
3048,-2,-15,15,0,0,-3,1,0,0.0825195,0.60498,0.71582,-2.5625,16.0625,-0.25,0.663928,-0.0758336,-2.57904
3049,-3,-8,-39,-5,-1,1,-3,-3,0.0654297,0.599609,0.702148,-6.5,18,0.4375,0.662447,-0.071004,-2.57519
3049,-4,-18,-11,-2,-5,-1,-2,1,0.0654297,0.599609,0.702148,-6.5,18,0.4375,0.662447,-0.071004,-2.57519
3054,-1,-8,-10,-8,-3,0,0,0,0.0654297,0.599609,0.702148,-6.5,18,0.4375,0.662447,-0.071004,-2.57519
3054,3,8,-8,1,3,2,0,2,0.0654297,0.599609,0.702148,-6.5,18,0.4375,0.662447,-0.071004,-2.57519
3070,2,8,23,2,2,1,-2,1,0.0390625,0.590332,0.695312,-12.875,18.5,1.5,0.658702,-0.0656479,-2.57079
3070,-5,-14,-9,0,2,0,1,0,0.0390625,0.590332,0.695312,-12.875,18.5,1.5,0.658702,-0.0656479,-2.57079
3077,-1,-2,-6,-2,-4,-5,-5,-3,0.0390625,0.590332,0.695312,-12.875,18.5,1.5,0.658702,-0.0656479,-2.57079
3077,0,2,10,-2,-2,-3,-3,0,0.0390625,0.590332,0.695312,-12.875,18.5,1.5,0.658702,-0.0656479,-2.57079
3084,-2,9,-5,-2,-4,-5,1,-2,0.0126953,0.558105,0.678223,-23.5,15.4375,4.875,0.65092,-0.0613695,-2.56625
3084,3,5,-29,-1,0,0,0,1,0.0126953,0.558105,0.678223,-23.5,15.4375,4.875,0.65092,-0.0613695,-2.56625
3099,-1,4,66,6,1,1,5,5,0.0126953,0.558105,0.678223,-23.5,15.4375,4.875,0.65092,-0.0613695,-2.56625
3099,-4,0,-36,-7,-4,-2,-14,-9,0.0126953,0.558105,0.678223,-23.5,15.4375,4.875,0.65092,-0.0613695,-2.56625
3102,-2,-12,-18,-2,-2,0,5,0,0.0229492,0.555176,0.692871,-25.625,14.8125,7.375,0.642511,-0.0581541,-2.56109
3102,0,6,-5,-2,-1,-2,-2,-1,0.0229492,0.555176,0.692871,-25.625,14.8125,7.375,0.642511,-0.0581541,-2.56109
3122,0,-11,-9,1,2,1,-1,-2,0.0229492,0.555176,0.692871,-25.625,14.8125,7.375,0.642511,-0.0581541,-2.56109
3122,0,9,25,6,-2,-1,2,3,0.0229492,0.555176,0.692871,-25.625,14.8125,7.375,0.642511,-0.0581541,-2.56109
3124,0,8,9,-6,-2,-1,-6,-2,0.0117188,0.527832,0.727539,-22.5625,14.4375,9.375,0.634116,-0.0550638,-2.55543
3124,3,10,14,-1,1,-1,-1,-3,0.0117188,0.527832,0.727539,-22.5625,14.4375,9.375,0.634116,-0.0550638,-2.55543
3137,-4,-12,-12,0,-1,-1,-1,-4,0.0117188,0.527832,0.727539,-22.5625,14.4375,9.375,0.634116,-0.0550638,-2.55543
3137,-3,-7,-6,-3,-1,-1,0,1,0.0117188,0.527832,0.727539,-22.5625,14.4375,9.375,0.634116,-0.0550638,-2.55543
3144,-1,-7,3,1,-3,-1,-2,-1,0.0996094,0.527344,0.678711,-16.5,12.1875,14.1875,0.628685,-0.0558235,-2.54886
3144,3,13,25,3,-2,0,0,1,0.0996094,0.527344,0.678711,-16.5,12.1875,14.1875,0.628685,-0.0558235,-2.54886
3159,1,10,-10,1,-1,-1,1,0,0.0996094,0.527344,0.678711,-16.5,12.1875,14.1875,0.628685,-0.0558235,-2.54886
3159,0,-2,-11,-2,0,0,2,1,0.0996094,0.527344,0.678711,-16.5,12.1875,14.1875,0.628685,-0.0558235,-2.54886
3162,0,5,16,0,-3,-2,-4,0,0.0317383,0.500488,0.731934,-11.8125,13.25,10.4375,0.623761,-0.0538635,-2.54324
3162,-2,-15,1,-1,-1,0,-2,-1,0.0317383,0.500488,0.731934,-11.8125,13.25,10.4375,0.623761,-0.0538635,-2.54324
3190,-1,-12,-28,-3,-1,1,-3,-2,0.0317383,0.500488,0.731934,-11.8125,13.25,10.4375,0.623761,-0.0538635,-2.54324
3190,1,-2,14,4,-1,-1,2,-1,0.0317383,0.500488,0.731934,-11.8125,13.25,10.4375,0.623761,-0.0538635,-2.54324
3192,2,15,17,1,1,-2,-3,0,0.0332031,0.455566,0.748047,-11.625,7.3125,13.1875,0.617859,-0.0541687,-2.5378
3192,1,7,-11,-4,-3,-3,-1,-1,0.0332031,0.455566,0.748047,-11.625,7.3125,13.1875,0.617859,-0.0541687,-2.5378
3197,-1,-33,-6,-6,-2,-2,-2,-2,0.0332031,0.455566,0.748047,-11.625,7.3125,13.1875,0.617859,-0.0541687,-2.5378
3197,-5,-11,-29,-2,-1,0,3,-1,0.0332031,0.455566,0.748047,-11.625,7.3125,13.1875,0.617859,-0.0541687,-2.5378
3204,1,17,7,3,0,0,-1,0,0.027832,0.48291,0.729492,-2.5625,5.5625,7.4375,0.616116,-0.053608,-2.53453
3204,-4,-9,-7,-5,-2,-1,-3,-3,0.027832,0.48291,0.729492,-2.5625,5.5625,7.4375,0.616116,-0.053608,-2.53453
3220,2,16,-4,1,-1,0,-1,0,0.027832,0.48291,0.729492,-2.5625,5.5625,7.4375,0.616116,-0.053608,-2.53453
3220,0,2,2,-1,-3,0,1,0,0.027832,0.48291,0.729492,-2.5625,5.5625,7.4375,0.616116,-0.053608,-2.53453
3222,-2,-6,0,1,-1,-1,-3,-2,0.0595703,0.472168,0.736816,-1.5,1.875,7.6875,0.614453,-0.0548475,-2.53197
3222,-1,7,-10,2,-2,-1,0,0,0.0595703,0.472168,0.736816,-1.5,1.875,7.6875,0.614453,-0.0548475,-2.53197
3243,0,16,-7,-3,1,0,0,0,0.0595703,0.472168,0.736816,-1.5,1.875,7.6875,0.614453,-0.0548475,-2.53197
3243,1,-3,9,-2,-1,-2,1,0,0.0595703,0.472168,0.736816,-1.5,1.875,7.6875,0.614453,-0.0548475,-2.53197
3244,-2,4,3,2,-3,-3,0,0,0.0454102,0.463379,0.71582,2,0.1875,6.375,0.614229,-0.0560935,-2.53
3244,-1,-15,-21,-4,0,1,2,0,0.0454102,0.463379,0.71582,2,0.1875,6.375,0.614229,-0.0560935,-2.53
3258,-2,5,20,6,3,0,1,-1,0.0454102,0.463379,0.71582,2,0.1875,6.375,0.614229,-0.0560935,-2.53
3258,-1,9,-7,-5,-2,0,-2,-1,0.0454102,0.463379,0.71582,2,0.1875,6.375,0.614229,-0.0560935,-2.53
3264,0,-6,-7,-1,0,0,-3,0,0.0712891,0.5,0.721191,10,-2.0625,3.5,0.617494,-0.0578528,-2.52949
3264,-4,2,13,-1,-3,-1,0,-1,0.0712891,0.5,0.721191,10,-2.0625,3.5,0.617494,-0.0578528,-2.52949
3280,-5,0,0,0,-3,-4,-3,-3,0.0712891,0.5,0.721191,10,-2.0625,3.5,0.617494,-0.0578528,-2.52949
3280,0,-1,-6,-3,-2,0,1,-1,0.0712891,0.5,0.721191,10,-2.0625,3.5,0.617494,-0.0578528,-2.52949
3282,-4,-24,0,-2,0,0,-1,-1,0.0683594,0.520996,0.726562,13.75,-3.875,3.8125,0.622228,-0.0600432,-2.52911
3282,-1,-3,-17,1,-1,0,-2,-1,0.0683594,0.520996,0.726562,13.75,-3.875,3.8125,0.622228,-0.0600432,-2.52911
3303,-2,0,7,-4,-3,-1,-2,-1,0.0683594,0.520996,0.726562,13.75,-3.875,3.8125,0.622228,-0.0600432,-2.52911
3303,3,1,4,0,-2,-1,3,2,0.0683594,0.520996,0.726562,13.75,-3.875,3.8125,0.622228,-0.0600432,-2.52911
3304,-3,-10,-7,-3,-2,-1,-1,-1,0.0673828,0.543457,0.723145,12.6875,-6.875,3,0.627097,-0.0629251,-2.52962
3304,-2,-3,12,0,1,-1,-1,-2,0.0673828,0.543457,0.723145,12.6875,-6.875,3,0.627097,-0.0629251,-2.52962
3317,-1,-14,-8,-1,1,-3,-2,-1,0.0673828,0.543457,0.723145,12.6875,-6.875,3,0.627097,-0.0629251,-2.52962
3317,-4,-23,-13,-4,-2,-3,0,-2,0.0673828,0.543457,0.723145,12.6875,-6.875,3,0.627097,-0.0629251,-2.52962
3325,0,2,-2,0,-1,-1,-1,-1,0.0717773,0.551758,0.717773,9.4375,-8.0625,2.5,0.630961,-0.0659986,-2.53063
3325,6,9,0,-1,1,0,-2,0,0.0717773,0.551758,0.717773,9.4375,-8.0625,2.5,0.630961,-0.0659986,-2.53063
3348,-1,-1,12,-2,-1,0,-1,0,0.0717773,0.551758,0.717773,9.4375,-8.0625,2.5,0.630961,-0.0659986,-2.53063
3348,-1,0,4,1,-2,-1,-2,-1,0.0717773,0.551758,0.717773,9.4375,-8.0625,2.5,0.630961,-0.0659986,-2.53063
3349,0,-6,-17,-2,0,-2,-1,0,0.0571289,0.545898,0.726562,4.375,-8.3125,3.8125,0.632866,-0.0689779,-2.53121
3349,-1,3,15,1,-2,0,-1,-1,0.0571289,0.545898,0.726562,4.375,-8.3125,3.8125,0.632866,-0.0689779,-2.53121
3362,0,4,-2,0,2,-2,0,-1,0.0571289,0.545898,0.726562,4.375,-8.3125,3.8125,0.632866,-0.0689779,-2.53121
3362,1,9,8,-2,1,1,0,2,0.0571289,0.545898,0.726562,4.375,-8.3125,3.8125,0.632866,-0.0689779,-2.53121
3364,-1,-3,-20,-1,1,-2,-1,-1,0.0327148,0.538086,0.73877,4.375,-8,5.5,0.634234,-0.0715197,-2.53135
3364,-3,-4,1,-1,-1,-3,0,-1,0.0327148,0.538086,0.73877,4.375,-8,5.5,0.634234,-0.0715197,-2.53135
3376,1,4,0,-1,-4,-1,-1,-1,0.0327148,0.538086,0.73877,4.375,-8,5.5,0.634234,-0.0715197,-2.53135
3376,0,2,3,1,-2,0,0,0,0.0327148,0.538086,0.73877,4.375,-8,5.5,0.634234,-0.0715197,-2.53135
3384,0,12,11,-2,-2,-1,1,0,0.0327148,0.524414,0.73291,5.625,-7.6875,3.5625,0.635994,-0.0736442,-2.53194
3384,0,0,9,0,0,0,-1,-1,0.0327148,0.524414,0.73291,5.625,-7.6875,3.5625,0.635994,-0.0736442,-2.53194
3400,-2,-7,-31,-3,-3,-1,-2,-2,0.0327148,0.524414,0.73291,5.625,-7.6875,3.5625,0.635994,-0.0736442,-2.53194
3400,-2,0,6,2,3,-1,-2,-1,0.0327148,0.524414,0.73291,5.625,-7.6875,3.5625,0.635994,-0.0736442,-2.53194
3401,2,1,-3,-1,-2,-1,-2,0,0.050293,0.552734,0.734375,5.375,-6.375,2.125,0.638096,-0.0754409,-2.53259
3401,-3,4,-24,0,-3,-1,-1,1,0.050293,0.552734,0.734375,5.375,-6.375,2.125,0.638096,-0.0754409,-2.53259
3422,1,-3,32,-1,0,1,-1,-2,0.050293,0.552734,0.734375,5.375,-6.375,2.125,0.638096,-0.0754409,-2.53259
3422,0,5,-15,-3,-1,1,-1,-1,0.050293,0.552734,0.734375,5.375,-6.375,2.125,0.638096,-0.0754409,-2.53259
3424,-2,-11,-16,-1,0,0,0,-2,0.0605469,0.570801,0.733887,2.375,-4.125,3.875,0.639373,-0.0771316,-2.53243
3424,1,2,9,1,2,0,0,-1,0.0605469,0.570801,0.733887,2.375,-4.125,3.875,0.639373,-0.0771316,-2.53243
3437,-1,2,-10,2,-2,-2,-2,1,0.0605469,0.570801,0.733887,2.375,-4.125,3.875,0.639373,-0.0771316,-2.53243
3437,0,2,-1,0,-1,-3,-1,0,0.0605469,0.570801,0.733887,2.375,-4.125,3.875,0.639373,-0.0771316,-2.53243
3443,-1,-3,10,0,-1,-1,0,-1,0.0644531,0.577148,0.73584,2.625,0.5625,2.9375,0.64085,-0.0773612,-2.53159
3443,-2,-3,-9,-2,-4,-1,2,1,0.0644531,0.577148,0.73584,2.625,0.5625,2.9375,0.64085,-0.0773612,-2.53159
3460,-2,-1,-9,-4,-1,-1,-8,-11,0.0644531,0.577148,0.73584,2.625,0.5625,2.9375,0.64085,-0.0773612,-2.53159
3460,-1,-2,1,2,-1,-4,-3,-2,0.0644531,0.577148,0.73584,2.625,0.5625,2.9375,0.64085,-0.0773612,-2.53159
3462,-1,0,2,1,0,1,-1,-1,0.0473633,0.581055,0.71875,-0.25,2.9375,0.125,0.641555,-0.0760527,-2.53098
3462,-2,-5,3,-2,0,1,-1,-4,0.0473633,0.581055,0.71875,-0.25,2.9375,0.125,0.641555,-0.0760527,-2.53098
3483,-1,1,-8,-1,1,1,3,3,0.0473633,0.581055,0.71875,-0.25,2.9375,0.125,0.641555,-0.0760527,-2.53098
3483,1,12,36,2,0,0,-3,-1,0.0473633,0.581055,0.71875,-0.25,2.9375,0.125,0.641555,-0.0760527,-2.53098
3484,-1,-9,-3,-3,-2,-3,-3,-4,0.0644531,0.564453,0.724121,-3.0625,2.8125,-3.25,0.640949,-0.0744013,-2.53129
3484,-1,0,3,-1,0,0,0,0,0.0644531,0.564453,0.724121,-3.0625,2.8125,-3.25,0.640949,-0.0744013,-2.53129
3497,0,11,2,1,-2,0,0,-1,0.0644531,0.564453,0.724121,-3.0625,2.8125,-3.25,0.640949,-0.0744013,-2.53129
3497,-1,-1,11,-1,0,1,1,-2,0.0644531,0.564453,0.724121,-3.0625,2.8125,-3.25,0.640949,-0.0744013,-2.53129
3504,2,6,6,1,2,0,1,1,0.0698242,0.536621,0.733887,-2.875,3.375,-2.125,0.639725,-0.0731262,-2.5311
3504,-4,-5,-7,-5,-2,-2,-3,-2,0.0698242,0.536621,0.733887,-2.875,3.375,-2.125,0.639725,-0.0731262,-2.5311
3520,0,7,0,1,-1,-1,0,3,0.0698242,0.536621,0.733887,-2.875,3.375,-2.125,0.639725,-0.0731262,-2.5311
3520,-4,-18,-8,-3,-4,-2,-2,-1,0.0698242,0.536621,0.733887,-2.875,3.375,-2.125,0.639725,-0.0731262,-2.5311
3521,-1,-1,3,-1,-3,-2,-1,0,0.0576172,0.536133,0.717773,-4.875,2.75,-0.1875,0.638176,-0.0721128,-2.53063
3521,-1,6,13,-5,-3,-3,-3,-1,0.0576172,0.536133,0.717773,-4.875,2.75,-0.1875,0.638176,-0.0721128,-2.53063
3550,3,18,19,1,3,1,1,-1,0.0576172,0.536133,0.717773,-4.875,2.75,-0.1875,0.638176,-0.0721128,-2.53063
3550,-5,-47,-83,-6,-1,-1,-1,-2,0.0576172,0.536133,0.717773,-4.875,2.75,-0.1875,0.638176,-0.0721128,-2.53063
3551,0,2,-1,-1,4,2,-2,0,0.0615234,0.529297,0.719238,-5,2.0625,1.8125,0.63628,-0.0718559,-2.52955
3551,-2,-1,8,2,1,-2,0,-1,0.0615234,0.529297,0.719238,-5,2.0625,1.8125,0.63628,-0.0718559,-2.52955
3557,-3,-7,-5,-4,-4,-3,-1,1,0.0615234,0.529297,0.719238,-5,2.0625,1.8125,0.63628,-0.0718559,-2.52955
3557,4,41,10,4,-2,-1,-1,1,0.0615234,0.529297,0.719238,-5,2.0625,1.8125,0.63628,-0.0718559,-2.52955
3564,-2,-16,-6,-1,-2,-3,-1,-3,0.0546875,0.501953,0.724121,-4.875,1.5,3.3125,0.633919,-0.0719244,-2.52827
3564,-1,-8,-2,-2,-2,1,0,-2,0.0546875,0.501953,0.724121,-4.875,1.5,3.3125,0.633919,-0.0719244,-2.52827
3580,-1,-2,32,5,1,0,2,1,0.0546875,0.501953,0.724121,-4.875,1.5,3.3125,0.633919,-0.0719244,-2.52827
3580,0,7,-9,-2,-1,1,-2,-1,0.0546875,0.501953,0.724121,-4.875,1.5,3.3125,0.633919,-0.0719244,-2.52827
3582,0,-7,-9,-2,-1,-1,-2,-1,0.0356445,0.483887,0.727051,-2.5,0.5,6.8125,0.631977,-0.0725389,-2.52615
3582,0,8,6,1,1,0,0,-1,0.0356445,0.483887,0.727051,-2.5,0.5,6.8125,0.631977,-0.0725389,-2.52615
3603,-3,-10,-10,-2,-2,-4,-2,-3,0.0356445,0.483887,0.727051,-2.5,0.5,6.8125,0.631977,-0.0725389,-2.52615
3603,3,15,10,3,4,0,0,0,0.0356445,0.483887,0.727051,-2.5,0.5,6.8125,0.631977,-0.0725389,-2.52615
3604,-4,-4,-4,-6,-1,-1,2,-1,0.0644531,0.448242,0.745117,6.0625,1.8125,14.6875,0.631822,-0.0749822,-2.52157
3604,0,-7,0,2,2,1,-1,0,0.0644531,0.448242,0.745117,6.0625,1.8125,14.6875,0.631822,-0.0749822,-2.52157
3625,-1,-1,-12,-2,0,0,-2,0,0.0644531,0.448242,0.745117,6.0625,1.8125,14.6875,0.631822,-0.0749822,-2.52157
3625,-1,1,25,-2,-1,-1,-1,-1,0.0644531,0.448242,0.745117,6.0625,1.8125,14.6875,0.631822,-0.0749822,-2.52157
3627,1,8,13,-1,-3,1,1,1,0.0874023,0.525879,0.744141,4.9375,5.4375,3.4375,0.632984,-0.0747232,-2.51948
3627,-1,1,-5,0,-1,0,-1,0,0.0874023,0.525879,0.744141,4.9375,5.4375,3.4375,0.632984,-0.0747232,-2.51948
3647,-1,-3,-17,-2,-3,-1,0,-2,0.0874023,0.525879,0.744141,4.9375,5.4375,3.4375,0.632984,-0.0747232,-2.51948
3647,-3,-2,12,-2,-2,-3,-1,-2,0.0874023,0.525879,0.744141,4.9375,5.4375,3.4375,0.632984,-0.0747232,-2.51948
3649,2,8,1,-1,-3,-1,1,0,0.0830078,0.541504,0.721191,3.4375,1.0625,11.75,0.63409,-0.0771454,-2.51578
3649,-6,-9,-11,-3,-3,-2,-2,-3,0.0830078,0.541504,0.721191,3.4375,1.0625,11.75,0.63409,-0.0771454,-2.51578
3663,-1,-4,-4,-2,-1,1,-2,0,0.0830078,0.541504,0.721191,3.4375,1.0625,11.75,0.63409,-0.0771454,-2.51578
3663,-4,-6,-3,3,1,0,0,-1,0.0830078,0.541504,0.721191,3.4375,1.0625,11.75,0.63409,-0.0771454,-2.51578
3664,-1,-8,-12,-4,-1,-2,-3,-2,0.065918,0.530273,0.732422,0.9375,1.125,8.1875,0.63416,-0.0784315,-2.51329
3664,-1,-16,-14,-1,0,-2,-1,-1,0.065918,0.530273,0.732422,0.9375,1.125,8.1875,0.63416,-0.0784315,-2.51329
3676,-1,-16,-7,-5,-3,-4,-1,-2,0.065918,0.530273,0.732422,0.9375,1.125,8.1875,0.63416,-0.0784315,-2.51329
3676,-2,-4,-24,0,1,1,0,-1,0.065918,0.530273,0.732422,0.9375,1.125,8.1875,0.63416,-0.0784315,-2.51329
3684,-3,-3,9,-1,-3,-1,-1,-4,0.0864258,0.515137,0.732422,-2.5,-0.1875,7.375,0.632585,-0.0803463,-2.51121
3684,3,15,16,2,-4,0,-1,0,0.0864258,0.515137,0.732422,-2.5,-0.1875,7.375,0.632585,-0.0803463,-2.51121
3700,-1,2,-13,-1,0,-2,0,-2,0.0864258,0.515137,0.732422,-2.5,-0.1875,7.375,0.632585,-0.0803463,-2.51121
3700,1,2,12,0,-1,0,1,-1,0.0864258,0.515137,0.732422,-2.5,-0.1875,7.375,0.632585,-0.0803463,-2.51121
3702,-2,10,9,0,-2,-2,-1,-1,0.0703125,0.496094,0.752441,-2.25,-0.3125,9.875,0.630651,-0.082408,-2.50838
3702,0,-8,-8,-2,-3,-1,1,-1,0.0703125,0.496094,0.752441,-2.25,-0.3125,9.875,0.630651,-0.082408,-2.50838
3722,2,10,-1,-1,-2,1,-1,1,0.0703125,0.496094,0.752441,-2.25,-0.3125,9.875,0.630651,-0.082408,-2.50838
3722,2,-1,12,-1,0,0,0,-1,0.0703125,0.496094,0.752441,-2.25,-0.3125,9.875,0.630651,-0.082408,-2.50838
3724,-7,-16,-29,-3,1,-1,-1,-3,0.0698242,0.498047,0.742188,4.6875,1.0625,7.625,0.631122,-0.0835239,-2.50593
3724,1,11,1,-2,0,-2,-3,0,0.0698242,0.498047,0.742188,4.6875,1.0625,7.625,0.631122,-0.0835239,-2.50593
3737,-4,-14,-9,-2,2,-1,-1,-2,0.0698242,0.498047,0.742188,4.6875,1.0625,7.625,0.631122,-0.0835239,-2.50593
3737,-1,4,6,0,-2,-3,-1,0,0.0698242,0.498047,0.742188,4.6875,1.0625,7.625,0.631122,-0.0835239,-2.50593
3744,-1,9,10,2,2,-1,1,1,0.0908203,0.544922,0.728027,7.5625,2.6875,3.0625,0.633864,-0.0837491,-2.50445
3744,0,-8,-9,-4,-3,-1,-1,-2,0.0908203,0.544922,0.728027,7.5625,2.6875,3.0625,0.633864,-0.0837491,-2.50445
3760,3,19,3,2,1,0,-1,-1,0.0908203,0.544922,0.728027,7.5625,2.6875,3.0625,0.633864,-0.0837491,-2.50445
3760,1,-8,-5,-3,-3,0,-8,-1,0.0908203,0.544922,0.728027,7.5625,2.6875,3.0625,0.633864,-0.0837491,-2.50445
3761,-2,-3,1,-2,-1,1,9,-1,0.0786133,0.575684,0.707031,6.875,3.125,4.5625,0.637078,-0.0838539,-2.50262
3761,-6,-1,-2,0,0,1,1,-2,0.0786133,0.575684,0.707031,6.875,3.125,4.5625,0.637078,-0.0838539,-2.50262
3783,0,3,6,-1,-1,-1,-2,1,0.0786133,0.575684,0.707031,6.875,3.125,4.5625,0.637078,-0.0838539,-2.50262
3783,-5,-8,-13,-1,-2,0,-2,-1,0.0786133,0.575684,0.707031,6.875,3.125,4.5625,0.637078,-0.0838539,-2.50262
3784,-2,-5,8,-5,-1,-3,-4,-2,0.0634766,0.585449,0.707031,1.375,2.25,4.8125,0.638689,-0.0839093,-2.50095
3784,4,7,14,6,1,-2,-1,1,0.0634766,0.585449,0.707031,1.375,2.25,4.8125,0.638689,-0.0839093,-2.50095
3796,-2,-20,-34,-4,1,1,1,-1,0.0634766,0.585449,0.707031,1.375,2.25,4.8125,0.638689,-0.0839093,-2.50095
3796,-5,-6,-7,-3,-3,-2,0,-4,0.0634766,0.585449,0.707031,1.375,2.25,4.8125,0.638689,-0.0839093,-2.50095
3805,2,0,3,0,-1,-1,-2,0,0.0483398,0.562988,0.70752,-5.625,-0.125,5.25,0.637411,-0.0843582,-2.49953
3805,0,-5,2,-1,-2,0,0,-3,0.0483398,0.562988,0.70752,-5.625,-0.125,5.25,0.637411,-0.0843582,-2.49953
3820,-1,-1,5,3,-3,-2,-3,-2,0.0483398,0.562988,0.70752,-5.625,-0.125,5.25,0.637411,-0.0843582,-2.49953
3820,2,2,-1,-2,1,0,2,0,0.0483398,0.562988,0.70752,-5.625,-0.125,5.25,0.637411,-0.0843582,-2.49953
3821,0,12,25,-2,0,0,-2,-2,0.0415039,0.549316,0.701172,-7.25,-1.9375,4.3125,0.635376,-0.0848796,-2.49869
3821,2,-5,-4,-1,-2,-1,-2,-1,0.0415039,0.549316,0.701172,-7.25,-1.9375,4.3125,0.635376,-0.0848796,-2.49869
3842,-1,1,0,-1,0,-2,0,-2,0.0415039,0.549316,0.701172,-7.25,-1.9375,4.3125,0.635376,-0.0848796,-2.49869
3842,-3,-3,-4,-4,-2,-1,0,-2,0.0415039,0.549316,0.701172,-7.25,-1.9375,4.3125,0.635376,-0.0848796,-2.49869
3843,1,12,7,4,3,0,1,1,0.0605469,0.58252,0.716309,-4.625,-1.1875,0.625,0.634958,-0.0849696,-2.49883
3843,-1,9,26,-3,-1,0,-1,2,0.0605469,0.58252,0.716309,-4.625,-1.1875,0.625,0.634958,-0.0849696,-2.49883
3856,-3,5,6,0,-2,0,0,-2,0.0605469,0.58252,0.716309,-4.625,-1.1875,0.625,0.634958,-0.0849696,-2.49883
3856,0,-6,8,1,-2,-1,1,-1,0.0605469,0.58252,0.716309,-4.625,-1.1875,0.625,0.634958,-0.0849696,-2.49883
3882,1,1,-13,-2,-3,0,-2,0,0.0600586,0.578613,0.742676,-4.5625,0.1875,-1,0.633936,-0.084225,-2.49917
3882,0,2,-3,-1,-1,-3,-1,0,0.0600586,0.578613,0.742676,-4.5625,0.1875,-1,0.633936,-0.084225,-2.49917
3882,-1,-6,-5,-3,-3,0,3,0,0.0600586,0.578613,0.742676,-4.5625,0.1875,-1,0.633936,-0.084225,-2.49917
3882,-2,4,-1,-1,-3,-4,-2,-1,0.0600586,0.578613,0.742676,-4.5625,0.1875,-1,0.633936,-0.084225,-2.49917
3886,2,-4,7,3,0,0,-3,0,0.0493164,0.519043,0.731934,-7.625,-0.25,0.625,0.63094,-0.0838083,-2.49892
3886,-2,9,-14,-2,1,1,-1,-1,0.0493164,0.519043,0.731934,-7.625,-0.25,0.625,0.63094,-0.0838083,-2.49892
3902,-3,2,25,-4,-3,-4,-4,-2,0.0493164,0.519043,0.731934,-7.625,-0.25,0.625,0.63094,-0.0838083,-2.49892
3902,3,26,25,3,0,-4,-5,0,0.0493164,0.519043,0.731934,-7.625,-0.25,0.625,0.63094,-0.0838083,-2.49892
3904,-3,-38,-61,0,-2,3,12,-1,0.074707,0.489746,0.725098,-6.8125,-0.375,-0.0625,0.627912,-0.0839721,-2.49897
3904,-5,-26,-15,-3,0,4,3,-4,0.074707,0.489746,0.725098,-6.8125,-0.375,-0.0625,0.627912,-0.0839721,-2.49897
3925,0,4,8,2,2,2,-1,-1,0.074707,0.489746,0.725098,-6.8125,-0.375,-0.0625,0.627912,-0.0839721,-2.49897
3925,2,-7,-5,1,-1,-2,0,1,0.074707,0.489746,0.725098,-6.8125,-0.375,-0.0625,0.627912,-0.0839721,-2.49897
3927,-4,5,5,-3,-3,-7,-7,-3,0.0820312,0.492676,0.739746,-3.5,-0.375,0.375,0.625908,-0.0842515,-2.49886
3927,-1,-10,-15,-3,0,-1,0,-1,0.0820312,0.492676,0.739746,-3.5,-0.375,0.375,0.625908,-0.0842515,-2.49886
3948,0,-7,-5,0,-1,-4,0,0,0.0820312,0.492676,0.739746,-3.5,-0.375,0.375,0.625908,-0.0842515,-2.49886
3948,1,23,0,2,1,0,0,-1,0.0820312,0.492676,0.739746,-3.5,-0.375,0.375,0.625908,-0.0842515,-2.49886
3949,-2,-16,6,0,2,1,-2,0,0.0952148,0.495605,0.747559,4.5,1.125,0.5625,0.626544,-0.0845041,-2.49837
3949,1,12,17,-3,-2,-2,-1,0,0.0952148,0.495605,0.747559,4.5,1.125,0.5625,0.626544,-0.0845041,-2.49837
3962,-6,-42,-50,-5,-3,-3,-4,-2,0.0952148,0.495605,0.747559,4.5,1.125,0.5625,0.626544,-0.0845041,-2.49837
3962,-1,3,23,5,-2,-1,3,0,0.0952148,0.495605,0.747559,4.5,1.125,0.5625,0.626544,-0.0845041,-2.49837
3969,0,-1,-7,-5,-2,-1,-2,-3,0.100586,0.51709,0.739258,9.5,2.8125,0.125,0.629374,-0.084342,-2.49778
3969,0,4,-3,1,-1,-10,-3,-1,0.100586,0.51709,0.739258,9.5,2.8125,0.125,0.629374,-0.084342,-2.49778
3976,2,23,5,1,0,3,3,1,0.100586,0.51709,0.739258,9.5,2.8125,0.125,0.629374,-0.084342,-2.49778
3976,-2,-8,0,-1,2,9,2,0,0.100586,0.51709,0.739258,9.5,2.8125,0.125,0.629374,-0.084342,-2.49778
3993,-2,-6,3,-2,-3,-3,-3,-2,0.0898438,0.518555,0.720215,6.125,1.5,0.8125,0.631286,-0.0844213,-2.49708
3993,1,17,-3,-1,-3,-1,-2,-2,0.0898438,0.518555,0.720215,6.125,1.5,0.8125,0.631286,-0.0844213,-2.49708
4000,-3,-7,6,-2,-4,-3,-1,-1,0.0898438,0.518555,0.720215,6.125,1.5,0.8125,0.631286,-0.0844213,-2.49708
4000,-5,-25,-21,0,2,-2,-2,-1,0.0898438,0.518555,0.720215,6.125,1.5,0.8125,0.631286,-0.0844213,-2.49708
4002,-1,5,-17,-1,0,1,-4,-2,0.0927734,0.514648,0.719727,4.3125,0,1.75,0.632548,-0.0852884,-2.49663
4002,2,1,-4,0,-1,0,2,1,0.0927734,0.514648,0.719727,4.3125,0,1.75,0.632548,-0.0852884,-2.49663
4022,-1,1,10,2,2,-2,0,-1,0.0927734,0.514648,0.719727,4.3125,0,1.75,0.632548,-0.0852884,-2.49663
4022,0,6,-27,-6,-2,-1,1,-2,0.0927734,0.514648,0.719727,4.3125,0,1.75,0.632548,-0.0852884,-2.49663
4024,0,4,10,-6,-5,-1,-3,-1,0.0976562,0.516602,0.718262,3.5,-2.1875,1.8125,0.633459,-0.0866936,-2.4966
4024,-1,-2,7,1,0,0,-1,-1,0.0976562,0.516602,0.718262,3.5,-2.1875,1.8125,0.633459,-0.0866936,-2.4966
4036,-1,-12,-12,2,1,-2,0,0,0.0976562,0.516602,0.718262,3.5,-2.1875,1.8125,0.633459,-0.0866936,-2.4966
4036,-1,-10,8,-2,-3,-8,-1,0,0.0976562,0.516602,0.718262,3.5,-2.1875,1.8125,0.633459,-0.0866936,-2.4966
4045,2,26,15,4,2,8,1,0,0.090332,0.538574,0.719238,2.9375,-3.125,1.875,0.634694,-0.0882936,-2.4967
4045,-3,-30,-29,1,-3,0,-3,-2,0.090332,0.538574,0.719238,2.9375,-3.125,1.875,0.634694,-0.0882936,-2.4967
4060,3,24,65,-2,0,-1,-2,-1,0.090332,0.538574,0.719238,2.9375,-3.125,1.875,0.634694,-0.0882936,-2.4967
4060,-5,-30,-58,-4,1,-1,0,-1,0.090332,0.538574,0.719238,2.9375,-3.125,1.875,0.634694,-0.0882936,-2.4967
4062,-2,7,24,2,-1,-7,-7,-1,0.0844727,0.553711,0.734863,6.375,-1.4375,2.25,0.637181,-0.0891631,-2.49631
4062,-1,12,-24,-2,-2,-3,0,-1,0.0844727,0.553711,0.734863,6.375,-1.4375,2.25,0.637181,-0.0891631,-2.49631
4083,-1,-29,-22,0,-2,-2,-3,-1,0.0844727,0.553711,0.734863,6.375,-1.4375,2.25,0.637181,-0.0891631,-2.49631
4083,3,21,19,0,0,1,-2,0,0.0844727,0.553711,0.734863,6.375,-1.4375,2.25,0.637181,-0.0891631,-2.49631
4084,-7,-56,-31,-9,-4,-3,0,-4,0.0795898,0.558594,0.722168,6.125,-0.375,3.0625,0.639595,-0.0898596,-2.49554
4084,2,7,23,5,-2,-1,-1,-1,0.0795898,0.558594,0.722168,6.125,-0.375,3.0625,0.639595,-0.0898596,-2.49554
4106,-1,11,-4,-2,-5,-7,-1,0,0.0795898,0.558594,0.722168,6.125,-0.375,3.0625,0.639595,-0.0898596,-2.49554
4106,0,0,-2,1,-3,6,-1,0,0.0795898,0.558594,0.722168,6.125,-0.375,3.0625,0.639595,-0.0898596,-2.49554
4107,6,46,59,1,3,0,0,2,0.0551758,0.549805,0.71582,1.375,-0.5625,1.125,0.64036,-0.0896282,-2.49542
4107,1,-7,-36,-5,2,1,-2,3,0.0551758,0.549805,0.71582,1.375,-0.5625,1.125,0.64036,-0.0896282,-2.49542
4119,-10,-63,-21,-4,-1,0,1,-4,0.0551758,0.549805,0.71582,1.375,-0.5625,1.125,0.64036,-0.0896282,-2.49542
4119,1,-11,-14,1,-2,0,0,-1,0.0551758,0.549805,0.71582,1.375,-0.5625,1.125,0.64036,-0.0896282,-2.49542
4126,4,36,24,8,-1,-2,1,1,0.0639648,0.552734,0.71582,1.25,-2.4375,1.75,0.641264,-0.0902159,-2.49541
4126,-5,-12,1,-6,-2,-1,-2,-3,0.0639648,0.552734,0.71582,1.25,-2.4375,1.75,0.641264,-0.0902159,-2.49541
4158,0,23,-3,3,1,5,1,1,0.0639648,0.552734,0.71582,1.25,-2.4375,1.75,0.641264,-0.0902159,-2.49541
4158,0,6,18,1,1,-3,0,0,0.0639648,0.552734,0.71582,1.25,-2.4375,1.75,0.641264,-0.0902159,-2.49541
4159,-2,-10,-28,-3,0,-1,-2,-2,0.0698242,0.553223,0.711914,-3.625,-2.3125,1.8125,0.640321,-0.0909695,-2.49538
4159,1,9,24,0,2,2,1,2,0.0698242,0.553223,0.711914,-3.625,-2.3125,1.8125,0.640321,-0.0909695,-2.49538
4166,4,13,-1,1,0,1,-2,0,0.0698242,0.553223,0.711914,-3.625,-2.3125,1.8125,0.640321,-0.0909695,-2.49538
4166,-2,-13,4,-5,-4,-3,-2,-3,0.0698242,0.553223,0.711914,-3.625,-2.3125,1.8125,0.640321,-0.0909695,-2.49538
4167,-3,-17,-27,1,-5,-7,-2,-2,0.0703125,0.541992,0.731934,-1.75,-3.125,2,0.639741,-0.0919486,-2.4955
4167,-3,-7,25,0,-3,2,-3,-5,0.0703125,0.541992,0.731934,-1.75,-3.125,2,0.639741,-0.0919486,-2.4955
4180,0,9,-25,-6,1,1,2,1,0.0703125,0.541992,0.731934,-1.75,-3.125,2,0.639741,-0.0919486,-2.4955
4180,-1,22,26,2,5,2,-1,0,0.0703125,0.541992,0.731934,-1.75,-3.125,2,0.639741,-0.0919486,-2.4955
4181,-7,-38,-43,-11,-4,0,-3,-4,0.0893555,0.558105,0.741211,-1,-0.5,-1.4375,0.639606,-0.0918526,-2.49604
4181,1,21,41,3,-5,-14,-3,-1,0.0893555,0.558105,0.741211,-1,-0.5,-1.4375,0.639606,-0.0918526,-2.49604
4203,-6,-45,-62,-7,-3,6,0,-3,0.0893555,0.558105,0.741211,-1,-0.5,-1.4375,0.639606,-0.0918526,-2.49604
4203,0,-2,4,-1,0,0,0,1,0.0893555,0.558105,0.741211,-1,-0.5,-1.4375,0.639606,-0.0918526,-2.49604
4204,-1,6,5,4,3,0,1,-2,0.0917969,0.556641,0.716797,-1.375,-0.125,-1.5625,0.639574,-0.0918023,-2.49652
4204,-1,4,7,2,2,3,0,1,0.0917969,0.556641,0.716797,-1.375,-0.125,-1.5625,0.639574,-0.0918023,-2.49652
4225,8,35,29,2,-1,-8,-3,0,0.0917969,0.556641,0.716797,-1.375,-0.125,-1.5625,0.639574,-0.0918023,-2.49652
4225,2,-18,-27,-4,-4,-4,0,-1,0.0917969,0.556641,0.716797,-1.375,-0.125,-1.5625,0.639574,-0.0918023,-2.49652
4226,-8,2,18,-1,0,3,2,1,0.0756836,0.55127,0.73584,-5,1,-0.75,0.63803,-0.0911561,-2.49648
4226,-4,-33,3,-6,-6,-5,-4,-3,0.0756836,0.55127,0.73584,-5,1,-0.75,0.63803,-0.0911561,-2.49648
4240,7,10,-16,3,1,0,-1,-1,0.0756836,0.55127,0.73584,-5,1,-0.75,0.63803,-0.0911561,-2.49648
4240,-6,-23,-17,-2,-2,-3,-4,-1,0.0756836,0.55127,0.73584,-5,1,-0.75,0.63803,-0.0911561,-2.49648
4253,-3,16,14,3,0,0,-2,-3,0.0844727,0.520508,0.739746,-1.125,1.6875,-1.5,0.637027,-0.0903827,-2.4965
4253,-1,6,-3,0,0,1,0,-1,0.0844727,0.520508,0.739746,-1.125,1.6875,-1.5,0.637027,-0.0903827,-2.4965
4262,0,2,10,0,5,4,1,1,0.0844727,0.520508,0.739746,-1.125,1.6875,-1.5,0.637027,-0.0903827,-2.4965
4262,0,20,20,2,0,-7,-2,0,0.0844727,0.520508,0.739746,-1.125,1.6875,-1.5,0.637027,-0.0903827,-2.4965
4263,0,-25,-33,-3,-5,0,3,-2,0.0898438,0.529785,0.720215,-1.0625,2.3125,-1.125,0.636579,-0.0897368,-2.49639
4263,-3,-14,-17,-2,-1,3,4,0,0.0898438,0.529785,0.720215,-1.0625,2.3125,-1.125,0.636579,-0.0897368,-2.49639
4285,-2,9,21,1,-3,-7,-5,-2,0.0898438,0.529785,0.720215,-1.0625,2.3125,-1.125,0.636579,-0.0897368,-2.49639
4285,0,11,2,-2,-3,7,-4,-2,0.0898438,0.529785,0.720215,-1.0625,2.3125,-1.125,0.636579,-0.0897368,-2.49639
4286,5,3,5,0,1,-4,-2,2,0.0791016,0.53125,0.72998,-3.6875,3,-1.75,0.635199,-0.088511,-2.49618
4286,-6,-11,-13,0,2,-1,-1,-1,0.0791016,0.53125,0.72998,-3.6875,3,-1.75,0.635199,-0.088511,-2.49618
4299,-2,5,15,-2,-3,3,3,1,0.0791016,0.53125,0.72998,-3.6875,3,-1.75,0.635199,-0.088511,-2.49618
4299,-1,-5,-20,1,-1,-2,0,-1,0.0791016,0.53125,0.72998,-3.6875,3,-1.75,0.635199,-0.088511,-2.49618
4307,1,-1,26,-1,-3,-3,-4,0,0.0878906,0.520508,0.734375,-4,4.375,-2.5,0.633388,-0.0870068,-2.49599
4307,1,13,-6,-1,0,2,-1,-1,0.0878906,0.520508,0.734375,-4,4.375,-2.5,0.633388,-0.0870068,-2.49599
4323,-4,14,2,1,1,-1,0,0,0.0878906,0.520508,0.734375,-4,4.375,-2.5,0.633388,-0.0870068,-2.49599
4323,-5,-51,-54,-8,-5,-2,-1,-4,0.0878906,0.520508,0.734375,-4,4.375,-2.5,0.633388,-0.0870068,-2.49599
4323,4,7,2,1,1,3,0,1,0.0981445,0.521973,0.728516,-0.25,5.5,-4.4375,0.633033,-0.0850996,-2.49606
4323,-7,8,13,2,1,-2,-1,-1,0.0981445,0.521973,0.728516,-0.25,5.5,-4.4375,0.633033,-0.0850996,-2.49606
4345,3,29,2,2,-2,-4,-2,-3,0.0981445,0.521973,0.728516,-0.25,5.5,-4.4375,0.633033,-0.0850996,-2.49606
4345,-4,-31,17,-8,-2,0,-1,-3,0.0981445,0.521973,0.728516,-0.25,5.5,-4.4375,0.633033,-0.0850996,-2.49606
4346,2,10,-28,-5,-3,-4,-2,-1,0.0908203,0.539062,0.729004,-0.5625,5.625,-3.9375,0.633001,-0.0830949,-2.49597
4346,5,-13,-1,-1,0,-3,1,1,0.0908203,0.539062,0.729004,-0.5625,5.625,-3.9375,0.633001,-0.0830949,-2.49597
4368,-6,-24,-14,-5,-5,-1,-4,-4,0.0908203,0.539062,0.729004,-0.5625,5.625,-3.9375,0.633001,-0.0830949,-2.49597
4368,-1,19,39,-2,-2,-2,1,1,0.0908203,0.539062,0.729004,-0.5625,5.625,-3.9375,0.633001,-0.0830949,-2.49597
4369,-1,4,0,-3,1,-1,-2,-2,0.0722656,0.531738,0.716797,-3.125,3.75,-3,0.63207,-0.081424,-2.49601
4369,0,7,13,-2,-1,2,0,1,0.0722656,0.531738,0.716797,-3.125,3.75,-3,0.63207,-0.081424,-2.49601
4382,8,7,-2,3,-1,1,1,0,0.0722656,0.531738,0.716797,-3.125,3.75,-3,0.63207,-0.081424,-2.49601
4382,0,13,16,1,-2,-2,0,0,0.0722656,0.531738,0.716797,-3.125,3.75,-3,0.63207,-0.081424,-2.49601
4384,-4,-24,-1,1,-4,-4,-3,0,0.0693359,0.525391,0.720215,-5,2.8125,-2.5,0.6303,-0.0800656,-2.49619
4384,-1,10,0,3,0,6,0,0,0.0693359,0.525391,0.720215,-5,2.8125,-2.5,0.6303,-0.0800656,-2.49619
4404,-1,-11,-7,0,0,-1,0,0,0.0693359,0.525391,0.720215,-5,2.8125,-2.5,0.6303,-0.0800656,-2.49619
4404,1,11,2,-1,-3,-4,-4,-2,0.0693359,0.525391,0.720215,-5,2.8125,-2.5,0.6303,-0.0800656,-2.49619
4412,0,3,-5,-2,0,1,1,1,-0.133301,0.394531,0.746094,-1.5,2.5,4.0625,0.626808,-0.0753566,-2.49418
4412,0,-7,-21,-2,-2,-2,-2,-4,-0.133301,0.394531,0.746094,-1.5,2.5,4.0625,0.626808,-0.0753566,-2.49418
4419,-2,-2,6,-7,-3,-3,-1,-1,-0.133301,0.394531,0.746094,-1.5,2.5,4.0625,0.626808,-0.0753566,-2.49418
4419,-3,-5,-6,2,1,2,-1,0,-0.133301,0.394531,0.746094,-1.5,2.5,4.0625,0.626808,-0.0753566,-2.49418
4434,-1,10,7,2,1,2,0,0,0.231934,0.578125,0.675781,-8.0625,0.9375,-27.1875,0.62627,-0.0736762,-2.50188
4434,5,-6,-21,-4,-2,-1,-1,1,0.231934,0.578125,0.675781,-8.0625,0.9375,-27.1875,0.62627,-0.0736762,-2.50188
4443,-4,1,11,-1,1,0,-2,-1,0.231934,0.578125,0.675781,-8.0625,0.9375,-27.1875,0.62627,-0.0736762,-2.50188
4443,0,16,8,2,1,-3,0,0,0.231934,0.578125,0.675781,-8.0625,0.9375,-27.1875,0.62627,-0.0736762,-2.50188
4444,-5,-23,-20,-4,-2,-5,-2,-3,0.125,0.5625,0.693359,8,2.625,8.1875,0.629923,-0.0760057,-2.49906
4444,-2,-2,-7,-4,-3,-1,-2,-2,0.125,0.5625,0.693359,8,2.625,8.1875,0.629923,-0.0760057,-2.49906
4465,-2,-6,17,2,-1,1,1,1,0.125,0.5625,0.693359,8,2.625,8.1875,0.629923,-0.0760057,-2.49906
4465,-2,-10,-47,-3,-2,-1,0,0,0.125,0.5625,0.693359,8,2.625,8.1875,0.629923,-0.0760057,-2.49906
4467,1,16,7,0,1,3,2,0,0.0634766,0.559082,0.705078,-0.125,2.75,-0.8125,0.630828,-0.0749275,-2.49877
4467,5,-10,-6,-1,0,-1,0,-2,0.0634766,0.559082,0.705078,-0.125,2.75,-0.8125,0.630828,-0.0749275,-2.49877
4479,-7,-22,22,-1,-2,-1,-3,-3,0.0634766,0.559082,0.705078,-0.125,2.75,-0.8125,0.630828,-0.0749275,-2.49877
4479,-2,4,-3,-2,-2,0,1,-1,0.0634766,0.559082,0.705078,-0.125,2.75,-0.8125,0.630828,-0.0749275,-2.49877
4487,-2,9,9,-3,-3,-1,-1,0,0.0717773,0.534668,0.715332,-8,0.8125,-3.125,0.628458,-0.0741296,-2.49954
4487,-3,10,26,1,0,-3,-1,0,0.0717773,0.534668,0.715332,-8,0.8125,-3.125,0.628458,-0.0741296,-2.49954
4502,1,4,-14,-1,0,-2,-1,0,0.0717773,0.534668,0.715332,-8,0.8125,-3.125,0.628458,-0.0741296,-2.49954
4502,2,6,3,4,1,-3,3,0,0.0717773,0.534668,0.715332,-8,0.8125,-3.125,0.628458,-0.0741296,-2.49954
4504,-7,7,18,-2,-2,-4,-1,-3,0.0395508,0.505859,0.745605,-8.4375,-0.3125,2.4375,0.62472,-0.0740387,-2.49877
4504,-3,-4,-30,-4,-2,3,-3,-1,0.0395508,0.505859,0.745605,-8.4375,-0.3125,2.4375,0.62472,-0.0740387,-2.49877
4525,1,4,3,-2,-1,0,0,0,0.0395508,0.505859,0.745605,-8.4375,-0.3125,2.4375,0.62472,-0.0740387,-2.49877
4525,0,7,14,0,2,0,-2,0,0.0395508,0.505859,0.745605,-8.4375,-0.3125,2.4375,0.62472,-0.0740387,-2.49877
4531,3,4,-3,4,1,-1,0,0,0.0170898,0.496582,0.748047,-8.0625,0.1875,1.5,0.621134,-0.0731213,-2.49826
4531,1,7,7,2,1,-4,-2,-1,0.0170898,0.496582,0.748047,-8.0625,0.1875,1.5,0.621134,-0.0731213,-2.49826
4539,0,7,-19,2,-1,2,0,-1,0.0170898,0.496582,0.748047,-8.0625,0.1875,1.5,0.621134,-0.0731213,-2.49826
4539,-3,-25,-9,-6,-3,3,0,0,0.0170898,0.496582,0.748047,-8.0625,0.1875,1.5,0.621134,-0.0731213,-2.49826
4546,-1,-25,-3,-2,-4,-2,-3,-3,-0.0166016,0.483887,0.784668,-4.125,1.75,0,0.618145,-0.0706338,-2.49775
4546,-1,-10,-7,0,3,2,2,-1,-0.0166016,0.483887,0.784668,-4.125,1.75,0,0.618145,-0.0706338,-2.49775
4562,2,13,7,2,0,-2,-2,-1,-0.0166016,0.483887,0.784668,-4.125,1.75,0,0.618145,-0.0706338,-2.49775
4562,0,18,10,-3,1,-4,-1,-2,-0.0166016,0.483887,0.784668,-4.125,1.75,0,0.618145,-0.0706338,-2.49775
4564,0,-17,-33,-1,-1,3,-1,0,-0.0229492,0.492676,0.773438,-1.4375,1.6875,0.875,0.61652,-0.0682566,-2.49714
4564,-3,-8,-8,0,-4,-3,-1,-3,-0.0229492,0.492676,0.773438,-1.4375,1.6875,0.875,0.61652,-0.0682566,-2.49714
4585,-2,-1,-2,-2,-3,-6,-2,-2,-0.0229492,0.492676,0.773438,-1.4375,1.6875,0.875,0.61652,-0.0682566,-2.49714
4585,2,23,25,5,0,7,2,2,-0.0229492,0.492676,0.773438,-1.4375,1.6875,0.875,0.61652,-0.0682566,-2.49714
4586,-3,-24,-23,-6,-4,-2,0,0,-0.0698242,0.473145,0.76123,-2.75,0.8125,6.75,0.614197,-0.0662941,-2.49494
4586,1,13,5,0,2,1,-1,1,-0.0698242,0.473145,0.76123,-2.75,0.8125,6.75,0.614197,-0.0662941,-2.49494
4599,-3,-12,6,0,0,0,0,1,-0.0698242,0.473145,0.76123,-2.75,0.8125,6.75,0.614197,-0.0662941,-2.49494
4599,-4,-13,1,-2,-2,-2,0,-3,-0.0698242,0.473145,0.76123,-2.75,0.8125,6.75,0.614197,-0.0662941,-2.49494
4615,1,14,5,1,2,2,2,-1,0.0258789,0.495605,0.733398,-1.25,-0.6875,5,0.613243,-0.0666898,-2.49358
4615,-1,3,1,-1,-1,-5,-1,1,0.0258789,0.495605,0.733398,-1.25,-0.6875,5,0.613243,-0.0666898,-2.49358
4622,-4,15,-3,0,-2,-4,-1,-1,0.0258789,0.495605,0.733398,-1.25,-0.6875,5,0.613243,-0.0666898,-2.49358
4622,1,-5,1,0,1,3,-1,2,0.0258789,0.495605,0.733398,-1.25,-0.6875,5,0.613243,-0.0666898,-2.49358
4624,1,11,27,1,0,-4,0,0,0.0830078,0.523438,0.71875,1.5,-0.25,5.9375,0.614006,-0.0684137,-2.49198
4624,0,-25,-35,-4,-5,-3,-2,-4,0.0830078,0.523438,0.71875,1.5,-0.25,5.9375,0.614006,-0.0684137,-2.49198
4645,-4,-13,14,-3,-4,-5,-1,-3,0.0830078,0.523438,0.71875,1.5,-0.25,5.9375,0.614006,-0.0684137,-2.49198
4645,-2,6,-21,-2,-2,1,-1,-2,0.0830078,0.523438,0.71875,1.5,-0.25,5.9375,0.614006,-0.0684137,-2.49198
4646,2,6,17,5,3,-1,0,1,0.10498,0.548828,0.714355,4.6875,-0.1875,6.3125,0.616347,-0.0707525,-2.49019
4646,1,10,10,1,0,-1,-1,0,0.10498,0.548828,0.714355,4.6875,-0.1875,6.3125,0.616347,-0.0707525,-2.49019
4668,-2,-4,-1,0,0,4,0,0,0.10498,0.548828,0.714355,4.6875,-0.1875,6.3125,0.616347,-0.0707525,-2.49019
4668,-1,1,-4,-4,-2,-5,-2,-4,0.10498,0.548828,0.714355,4.6875,-0.1875,6.3125,0.616347,-0.0707525,-2.49019
4669,3,-9,-11,-3,-2,-2,-2,1,0.090332,0.550781,0.722656,4.375,0.4375,6.125,0.618508,-0.0724878,-2.48847
4669,-5,2,29,2,-1,4,1,-3,0.090332,0.550781,0.722656,4.375,0.4375,6.125,0.618508,-0.0724878,-2.48847
4682,-1,-21,-29,-5,-2,0,-1,0,0.090332,0.550781,0.722656,4.375,0.4375,6.125,0.618508,-0.0724878,-2.48847
4682,0,16,22,2,-1,-2,-1,-2,0.090332,0.550781,0.722656,4.375,0.4375,6.125,0.618508,-0.0724878,-2.48847
4683,-5,-29,-24,-1,1,0,0,0,0.0727539,0.537598,0.725098,-0.4375,-0.25,6,0.61868,-0.0739069,-2.48677
4683,1,1,10,-1,-2,0,-2,0,0.0727539,0.537598,0.725098,-0.4375,-0.25,6,0.61868,-0.0739069,-2.48677
4712,0,5,4,0,-2,-4,-1,0,0.0727539,0.537598,0.725098,-0.4375,-0.25,6,0.61868,-0.0739069,-2.48677
4712,-2,2,-6,-2,1,-5,0,0,0.0727539,0.537598,0.725098,-0.4375,-0.25,6,0.61868,-0.0739069,-2.48677
4714,4,13,17,3,4,11,0,-2,0.0576172,0.516602,0.743164,-2.0625,-0.3125,5.125,0.617535,-0.0747863,-2.48534
4714,-3,-9,11,0,-3,-3,-4,0,0.0576172,0.516602,0.743164,-2.0625,-0.3125,5.125,0.617535,-0.0747863,-2.48534
4718,-1,-6,-8,-4,-3,1,-2,-2,0.0576172,0.516602,0.743164,-2.0625,-0.3125,5.125,0.617535,-0.0747863,-2.48534
4718,0,-3,-10,-2,-5,-3,-2,0,0.0576172,0.516602,0.743164,-2.0625,-0.3125,5.125,0.617535,-0.0747863,-2.48534
4735,-1,13,11,2,-3,-4,-1,0,0.0703125,0.489258,0.743652,-1.625,-0.5625,5.125,0.616172,-0.0759835,-2.48397
4735,-1,-5,-20,-2,3,2,1,-2,0.0703125,0.489258,0.743652,-1.625,-0.5625,5.125,0.616172,-0.0759835,-2.48397
4743,2,10,3,2,1,1,1,-1,0.0703125,0.489258,0.743652,-1.625,-0.5625,5.125,0.616172,-0.0759835,-2.48397
4743,0,-27,-6,-2,-3,0,-1,-3,0.0703125,0.489258,0.743652,-1.625,-0.5625,5.125,0.616172,-0.0759835,-2.48397
4744,3,7,-37,0,-5,-7,-3,0,0.074707,0.507324,0.739746,1.75,-0.125,4.6875,0.616422,-0.0771664,-2.48271
4744,-5,9,23,2,-2,1,-1,-1,0.074707,0.507324,0.739746,1.75,-0.125,4.6875,0.616422,-0.0771664,-2.48271
4765,0,1,-11,0,-1,0,0,-2,0.074707,0.507324,0.739746,1.75,-0.125,4.6875,0.616422,-0.0771664,-2.48271
4765,1,0,7,2,-1,-2,-2,0,0.074707,0.507324,0.739746,1.75,-0.125,4.6875,0.616422,-0.0771664,-2.48271
4766,-1,7,0,-5,-2,2,-1,-1,0.0795898,0.52832,0.743164,4.0625,0.6875,5.8125,0.617635,-0.07837,-2.48074
4766,1,13,-4,-1,-1,-2,0,0,0.0795898,0.52832,0.743164,4.0625,0.6875,5.8125,0.617635,-0.07837,-2.48074
4778,0,-1,5,4,3,4,-1,0,0.0795898,0.52832,0.743164,4.0625,0.6875,5.8125,0.617635,-0.07837,-2.48074
4778,-2,-12,29,-3,-2,1,-2,-2,0.0795898,0.52832,0.743164,4.0625,0.6875,5.8125,0.617635,-0.07837,-2.48074
4788,0,9,5,-2,-3,-4,1,-1,0.0864258,0.524414,0.740234,2.3125,0.9375,4.8125,0.618248,-0.0793483,-2.47928
4788,0,-2,-2,2,-1,-3,-4,-2,0.0864258,0.524414,0.740234,2.3125,0.9375,4.8125,0.618248,-0.0793483,-2.47928
4802,2,17,12,3,2,1,2,0,0.0864258,0.524414,0.740234,2.3125,0.9375,4.8125,0.618248,-0.0793483,-2.47928
4802,-2,0,12,0,2,-4,0,0,0.0864258,0.524414,0.740234,2.3125,0.9375,4.8125,0.618248,-0.0793483,-2.47928
4803,-1,3,-20,-3,-1,2,2,-2,0.0952148,0.518066,0.732422,3.25,1.8125,3.5625,0.619302,-0.0801974,-2.47787
4803,-2,-5,-5,-3,-3,-14,-2,-1,0.0952148,0.518066,0.732422,3.25,1.8125,3.5625,0.619302,-0.0801974,-2.47787
4825,1,3,-2,3,0,8,2,-1,0.0952148,0.518066,0.732422,3.25,1.8125,3.5625,0.619302,-0.0801974,-2.47787
4825,-2,-14,5,-1,-1,-2,-3,0,0.0952148,0.518066,0.732422,3.25,1.8125,3.5625,0.619302,-0.0801974,-2.47787
4826,-1,0,-8,2,4,-2,0,2,0.0952148,0.518066,0.737305,5.8125,2.75,2.875,0.621058,-0.08049,-2.4764
4826,0,-3,-8,-4,0,2,2,1,0.0952148,0.518066,0.737305,5.8125,2.75,2.875,0.621058,-0.08049,-2.4764
4838,-6,-2,-1,-4,-2,-6,-1,-2,0.0952148,0.518066,0.737305,5.8125,2.75,2.875,0.621058,-0.08049,-2.4764
4838,2,10,5,3,-3,-5,-3,-2,0.0952148,0.518066,0.737305,5.8125,2.75,2.875,0.621058,-0.08049,-2.4764
4847,-1,1,0,-2,0,6,2,0,0.0756836,0.537109,0.735352,7.625,4.0625,3,0.623686,-0.0799652,-2.47473
4847,0,2,-2,-1,-3,-9,-3,-2,0.0756836,0.537109,0.735352,7.625,4.0625,3,0.623686,-0.0799652,-2.47473
4862,-2,-25,-24,-3,-1,-4,-4,-2,0.0756836,0.537109,0.735352,7.625,4.0625,3,0.623686,-0.0799652,-2.47473
4862,-4,-6,-10,-5,-4,0,0,-2,0.0756836,0.537109,0.735352,7.625,4.0625,3,0.623686,-0.0799652,-2.47473
4863,-6,14,22,3,1,-16,-8,-5,0.0693359,0.523926,0.738281,6.625,4.5,2.75,0.625687,-0.0792391,-2.47297
4863,1,-12,-20,0,2,19,8,1,0.0693359,0.523926,0.738281,6.625,4.5,2.75,0.625687,-0.0792391,-2.47297
4886,0,5,-10,-3,-5,-3,0,1,0.0693359,0.523926,0.738281,6.625,4.5,2.75,0.625687,-0.0792391,-2.47297
4886,-1,13,12,-1,-1,3,-2,-3,0.0693359,0.523926,0.738281,6.625,4.5,2.75,0.625687,-0.0792391,-2.47297
4891,-3,-20,-17,-3,-6,-8,-4,-2,0.0742188,0.527832,0.729492,4.875,4.375,3.0625,0.627207,-0.0787552,-2.4712
4891,2,11,12,-2,1,-1,0,1,0.0742188,0.527832,0.729492,4.875,4.375,3.0625,0.627207,-0.0787552,-2.4712
4899,-2,3,-1,-1,-3,-6,-2,-1,0.0742188,0.527832,0.729492,4.875,4.375,3.0625,0.627207,-0.0787552,-2.4712
4899,0,-12,-35,-2,-4,-6,-2,-1,0.0742188,0.527832,0.729492,4.875,4.375,3.0625,0.627207,-0.0787552,-2.4712
4907,0,5,45,1,4,12,-1,0,0.0795898,0.530762,0.736816,6.625,5.3125,3.5625,0.629204,-0.0781563,-2.46908
4907,-2,7,-16,-3,-3,0,6,0,0.0795898,0.530762,0.736816,6.625,5.3125,3.5625,0.629204,-0.0781563,-2.46908
4922,-1,-18,-10,-2,0,2,-2,-1,0.0795898,0.530762,0.736816,6.625,5.3125,3.5625,0.629204,-0.0781563,-2.46908
4922,-1,2,0,4,0,-2,-1,-2,0.0795898,0.530762,0.736816,6.625,5.3125,3.5625,0.629204,-0.0781563,-2.46908
4929,4,14,25,1,-4,-1,1,-1,0.0732422,0.53418,0.734863,7.0625,6.875,3.9375,0.631531,-0.0771386,-2.46658
4929,-1,-18,-27,-7,-2,1,-5,-1,0.0732422,0.53418,0.734863,7.0625,6.875,3.9375,0.631531,-0.0771386,-2.46658
4945,0,-14,11,1,-2,-9,-5,0,0.0732422,0.53418,0.734863,7.0625,6.875,3.9375,0.631531,-0.0771386,-2.46658
4945,-4,-20,-54,-3,-1,-2,-2,-1,0.0732422,0.53418,0.734863,7.0625,6.875,3.9375,0.631531,-0.0771386,-2.46658
4947,2,9,-2,1,-4,-1,-2,1,0.0605469,0.527344,0.727539,7.625,7.6875,5.375,0.633694,-0.0758864,-2.46336
4947,-6,11,13,4,4,11,-1,-3,0.0605469,0.527344,0.727539,7.625,7.6875,5.375,0.633694,-0.0758864,-2.46336
4959,0,16,6,-5,-2,-3,2,-1,0.0605469,0.527344,0.727539,7.625,7.6875,5.375,0.633694,-0.0758864,-2.46336
4959,0,22,30,3,0,3,-2,-2,0.0605469,0.527344,0.727539,7.625,7.6875,5.375,0.633694,-0.0758864,-2.46336
4967,-7,-44,-16,-9,1,-2,1,0,0.0585938,0.533203,0.722656,4.4375,6.9375,6.5625,0.635065,-0.0750438,-2.46013
4967,-1,-21,-35,-6,-6,-10,-4,-2,0.0585938,0.533203,0.722656,4.4375,6.9375,6.5625,0.635065,-0.0750438,-2.46013
4990,1,9,13,6,-1,3,-1,0,0.0585938,0.533203,0.722656,4.4375,6.9375,6.5625,0.635065,-0.0750438,-2.46013
4990,-2,0,3,-1,1,3,0,0,0.0585938,0.533203,0.722656,4.4375,6.9375,6.5625,0.635065,-0.0750438,-2.46013
4992,2,10,-1,-1,-1,-7,0,0,0.0698242,0.524414,0.709473,5.4375,6.5,5.6875,0.636717,-0.0745163,-2.45706
4992,2,24,36,4,3,12,2,0,0.0698242,0.524414,0.709473,5.4375,6.5,5.6875,0.636717,-0.0745163,-2.45706
5012,-5,-32,-18,-4,1,-4,-1,-1,0.0698242,0.524414,0.709473,5.4375,6.5,5.6875,0.636717,-0.0745163,-2.45706
5012,1,14,-1,-4,-3,0,1,1,0.0698242,0.524414,0.709473,5.4375,6.5,5.6875,0.636717,-0.0745163,-2.45706
5014,-5,-9,-4,-1,-2,-4,-2,-2,0.0732422,0.541504,0.717285,5.6875,6.75,6,0.638683,-0.0739666,-2.45405
5014,-4,2,9,0,-2,-10,-2,0,0.0732422,0.541504,0.717285,5.6875,6.75,6,0.638683,-0.0739666,-2.45405
5035,8,26,42,1,-1,5,4,0,0.0732422,0.541504,0.717285,5.6875,6.75,6,0.638683,-0.0739666,-2.45405
5035,-3,-28,-43,-6,-2,-1,0,-1,0.0732422,0.541504,0.717285,5.6875,6.75,6,0.638683,-0.0739666,-2.45405
5036,-2,-17,-15,-1,-1,0,-2,-2,0.0703125,0.558594,0.714355,5.3125,6.625,6.375,0.640865,-0.0735602,-2.45083
5036,-2,-13,3,0,-1,-5,-3,-2,0.0703125,0.558594,0.714355,5.3125,6.625,6.375,0.640865,-0.0735602,-2.45083
5042,0,10,11,1,-2,-1,-4,-1,0.0703125,0.558594,0.714355,5.3125,6.625,6.375,0.640865,-0.0735602,-2.45083
5042,2,14,16,2,3,0,1,2,0.0703125,0.558594,0.714355,5.3125,6.625,6.375,0.640865,-0.0735602,-2.45083
5045,-2,4,-3,-5,-1,3,1,-1,0.0654297,0.54834,0.713867,3.625,5.75,6.375,0.642169,-0.0732861,-2.44788
5045,-1,2,-7,3,-4,-8,-4,-1,0.0654297,0.54834,0.713867,3.625,5.75,6.375,0.642169,-0.0732861,-2.44788
5065,-2,7,11,-1,-2,-3,-2,-1,0.0654297,0.54834,0.713867,3.625,5.75,6.375,0.642169,-0.0732861,-2.44788
5065,1,11,0,0,3,-1,-1,-2,0.0654297,0.54834,0.713867,3.625,5.75,6.375,0.642169,-0.0732861,-2.44788
5066,-2,-1,-30,-1,-2,1,1,1,0.0668945,0.541016,0.713867,2.75,4.5,6.0625,0.64306,-0.0733218,-2.44516
5066,3,2,6,3,1,3,0,1,0.0668945,0.541016,0.713867,2.75,4.5,6.0625,0.64306,-0.0733218,-2.44516
5087,-6,-20,-8,-4,-2,0,-3,-1,0.0668945,0.541016,0.713867,2.75,4.5,6.0625,0.64306,-0.0733218,-2.44516
5087,4,-8,-8,4,0,-4,3,1,0.0668945,0.541016,0.713867,2.75,4.5,6.0625,0.64306,-0.0733218,-2.44516
5089,-7,1,11,-1,-1,5,-1,-5,0.0698242,0.536621,0.712891,2.6875,3.125,6.1875,0.643933,-0.0737884,-2.4428
5089,1,10,13,-3,-4,-7,-1,-1,0.0698242,0.536621,0.712891,2.6875,3.125,6.1875,0.643933,-0.0737884,-2.4428
5102,0,10,-22,-5,0,4,-2,-2,0.0698242,0.536621,0.712891,2.6875,3.125,6.1875,0.643933,-0.0737884,-2.4428
5102,-1,-12,-3,0,0,0,-3,0,0.0698242,0.536621,0.712891,2.6875,3.125,6.1875,0.643933,-0.0737884,-2.4428
5105,2,5,-12,0,-3,-6,-3,-1,0.0693359,0.543457,0.712891,2,1.875,5.75,0.644514,-0.074565,-2.44078
5105,-1,-4,14,-2,-3,1,0,-1,0.0693359,0.543457,0.712891,2,1.875,5.75,0.644514,-0.074565,-2.44078
5125,1,6,-14,0,0,-3,0,1,0.0693359,0.543457,0.712891,2,1.875,5.75,0.644514,-0.074565,-2.44078
5125,-2,-3,31,-1,-3,-2,-4,-2,0.0693359,0.543457,0.712891,2,1.875,5.75,0.644514,-0.074565,-2.44078
5132,1,9,-3,-2,-3,4,1,0,0.0693359,0.541504,0.713867,3.8125,2.125,4.375,0.645903,-0.0749641,-2.4392
5132,-2,4,5,1,1,-3,1,0,0.0693359,0.541504,0.713867,3.8125,2.125,4.375,0.645903,-0.0749641,-2.4392
5148,5,4,9,0,2,-2,2,2,0.0693359,0.541504,0.713867,3.8125,2.125,4.375,0.645903,-0.0749641,-2.4392
5148,-9,-6,-7,-4,-4,0,-2,-4,0.0693359,0.541504,0.713867,3.8125,2.125,4.375,0.645903,-0.0749641,-2.4392
5149,0,-9,-19,-2,-2,-5,-3,-1,0.0620117,0.547852,0.716797,5.75,1.1875,3.5625,0.647851,-0.0751713,-2.43794
5149,-3,-18,-22,-6,-4,-8,-4,-2,0.0620117,0.547852,0.716797,5.75,1.1875,3.5625,0.647851,-0.0751713,-2.43794
5161,-1,3,22,2,1,10,2,1,0.0620117,0.547852,0.716797,5.75,1.1875,3.5625,0.647851,-0.0751713,-2.43794
5161,4,12,0,4,2,5,1,-1,0.0620117,0.547852,0.716797,5.75,1.1875,3.5625,0.647851,-0.0751713,-2.43794
5164,-2,2,6,-4,-3,-3,-3,-2,0.065918,0.56543,0.703613,2.75,-0.5,2.875,0.649448,-0.0758946,-2.4372
5164,-1,4,12,3,0,-1,-1,-2,0.065918,0.56543,0.703613,2.75,-0.5,2.875,0.649448,-0.0758946,-2.4372
5184,3,7,-14,-8,-3,-10,-4,-1,0.065918,0.56543,0.703613,2.75,-0.5,2.875,0.649448,-0.0758946,-2.4372
5184,-10,-6,2,-1,-3,-1,0,-6,0.065918,0.56543,0.703613,2.75,-0.5,2.875,0.649448,-0.0758946,-2.4372
5187,0,6,16,4,0,0,0,-2,0.0693359,0.5625,0.707031,1.1875,-1.5625,2.875,0.650246,-0.0768873,-2.43681
5187,0,-24,-42,-5,0,-1,-1,0,0.0693359,0.5625,0.707031,1.1875,-1.5625,2.875,0.650246,-0.0768873,-2.43681
5207,-4,-12,15,-2,-5,4,2,-1,0.0693359,0.5625,0.707031,1.1875,-1.5625,2.875,0.650246,-0.0768873,-2.43681
5207,6,-3,-2,-1,1,-7,-2,1,0.0693359,0.5625,0.707031,1.1875,-1.5625,2.875,0.650246,-0.0768873,-2.43681
5209,-1,-3,2,1,1,-2,-3,-1,0.0712891,0.55957,0.713379,2.375,-1.375,2.1875,0.651485,-0.077721,-2.43655
5209,0,18,12,7,3,4,1,-1,0.0712891,0.55957,0.713379,2.375,-1.375,2.1875,0.651485,-0.077721,-2.43655
5222,-1,18,14,-3,-1,0,-1,0,0.0712891,0.55957,0.713379,2.375,-1.375,2.1875,0.651485,-0.077721,-2.43655
5222,-1,-11,9,-5,-2,1,-2,0,0.0712891,0.55957,0.713379,2.375,-1.375,2.1875,0.651485,-0.077721,-2.43655
5229,0,-4,-18,0,-1,1,0,-2,0.0615234,0.552734,0.710449,1.5625,-1.5,1,0.652183,-0.0781349,-2.43653
5229,1,-4,8,-2,-4,1,-1,0,0.0615234,0.552734,0.710449,1.5625,-1.5,1,0.652183,-0.0781349,-2.43653
5245,-2,9,-1,-2,-2,-12,-6,-2,0.0615234,0.552734,0.710449,1.5625,-1.5,1,0.652183,-0.0781349,-2.43653
5245,0,11,12,3,0,11,3,0,0.0615234,0.552734,0.710449,1.5625,-1.5,1,0.652183,-0.0781349,-2.43653
5247,-1,-4,7,-2,3,2,2,2,0.0654297,0.556152,0.708984,0.5,-2.5625,-0.125,0.652742,-0.0786724,-2.43713
5247,2,18,10,2,-2,-2,-3,-2,0.0654297,0.556152,0.708984,0.5,-2.5625,-0.125,0.652742,-0.0786724,-2.43713
5268,-5,-17,1,2,0,-1,1,-3,0.0654297,0.556152,0.708984,0.5,-2.5625,-0.125,0.652742,-0.0786724,-2.43713
5268,-3,-7,-27,-5,-5,-10,-1,-2,0.0654297,0.556152,0.708984,0.5,-2.5625,-0.125,0.652742,-0.0786724,-2.43713
5269,1,-5,-5,3,2,-2,-1,-1,0.0683594,0.556641,0.719238,0.4375,-2.1875,-0.25,0.653074,-0.0791558,-2.43766
5269,1,-1,-7,-8,-4,-2,-1,-2,0.0683594,0.556641,0.719238,0.4375,-2.1875,-0.25,0.653074,-0.0791558,-2.43766
5290,-2,-5,-15,2,1,2,0,1,0.0683594,0.556641,0.719238,0.4375,-2.1875,-0.25,0.653074,-0.0791558,-2.43766
5290,-11,8,11,2,1,-1,-2,-3,0.0683594,0.556641,0.719238,0.4375,-2.1875,-0.25,0.653074,-0.0791558,-2.43766
5292,5,12,-4,-1,-3,-1,3,1,0.0693359,0.562988,0.705566,0.75,-1.625,-0.8125,0.653797,-0.0793587,-2.43828
5292,-5,-21,3,-7,-3,-4,-2,-2,0.0693359,0.562988,0.705566,0.75,-1.625,-0.8125,0.653797,-0.0793587,-2.43828
5305,-1,-21,-30,-4,-5,0,-1,-3,0.0693359,0.562988,0.705566,0.75,-1.625,-0.8125,0.653797,-0.0793587,-2.43828
5305,2,16,-3,-5,1,-2,-2,-1,0.0693359,0.562988,0.705566,0.75,-1.625,-0.8125,0.653797,-0.0793587,-2.43828
5311,-1,3,32,4,-1,-6,-1,0,0.0683594,0.564941,0.712891,-0.3125,-1,-1.0625,0.654033,-0.0792875,-2.43869
5311,-3,-9,-56,-3,0,3,-2,-1,0.0683594,0.564941,0.712891,-0.3125,-1,-1.0625,0.654033,-0.0792875,-2.43869
5335,-2,-22,-17,0,-1,0,-9,-2,0.0683594,0.564941,0.712891,-0.3125,-1,-1.0625,0.654033,-0.0792875,-2.43869
5335,1,-3,11,-3,-2,-2,10,2,0.0683594,0.564941,0.712891,-0.3125,-1,-1.0625,0.654033,-0.0792875,-2.43869
5336,-2,8,23,-6,-3,-1,-3,-4,0.0703125,0.550293,0.712402,-2.125,-1.9375,-1,0.653433,-0.0796316,-2.4394
5336,2,3,9,2,0,2,1,0,0.0703125,0.550293,0.712402,-2.125,-1.9375,-1,0.653433,-0.0796316,-2.4394
5342,2,32,-1,5,2,-13,0,1,0.0703125,0.550293,0.712402,-2.125,-1.9375,-1,0.653433,-0.0796316,-2.4394
5342,-1,-36,-41,-12,-3,8,-4,-3,0.0703125,0.550293,0.712402,-2.125,-1.9375,-1,0.653433,-0.0796316,-2.4394
5349,0,-8,1,2,-1,-5,-2,1,0.0712891,0.535156,0.711914,-0.875,-2,-0.9375,0.653018,-0.0799476,-2.44003
5349,-2,1,10,2,-1,0,2,-1,0.0712891,0.535156,0.711914,-0.875,-2,-0.9375,0.653018,-0.0799476,-2.44003
5365,-2,0,-11,-2,-1,12,0,-1,0.0712891,0.535156,0.711914,-0.875,-2,-0.9375,0.653018,-0.0799476,-2.44003
5365,2,17,15,0,-1,2,0,-1,0.0712891,0.535156,0.711914,-0.875,-2,-0.9375,0.653018,-0.0799476,-2.44003
5366,1,-18,-12,-4,0,-2,2,-1,0.0722656,0.546875,0.708984,-0.9375,-2,-0.4375,0.652807,-0.0803647,-2.44053
5366,-8,-2,-10,0,0,4,-2,-5,0.0722656,0.546875,0.708984,-0.9375,-2,-0.4375,0.652807,-0.0803647,-2.44053
5388,-1,-6,13,-1,-6,-7,-1,-3,0.0722656,0.546875,0.708984,-0.9375,-2,-0.4375,0.652807,-0.0803647,-2.44053
5388,4,-1,-3,2,-1,-14,-3,1,0.0722656,0.546875,0.708984,-0.9375,-2,-0.4375,0.652807,-0.0803647,-2.44053
5388,-4,0,-2,-7,-1,9,-1,-2,0.0771484,0.54541,0.721191,-0.5625,-2,-0.4375,0.652591,-0.0809196,-2.44109
5388,3,8,9,3,2,2,1,3,0.0771484,0.54541,0.721191,-0.5625,-2,-0.4375,0.652591,-0.0809196,-2.44109
5402,-1,13,-1,0,1,6,3,2,0.0771484,0.54541,0.721191,-0.5625,-2,-0.4375,0.652591,-0.0809196,-2.44109
5402,4,-1,24,0,-1,-2,-1,1,0.0771484,0.54541,0.721191,-0.5625,-2,-0.4375,0.652591,-0.0809196,-2.44109
5409,-6,-4,-5,-4,-5,-8,-2,-3,0.0849609,0.545898,0.719238,-1.1875,-1.375,0,0.652183,-0.0816277,-2.44136
5409,3,2,12,-4,1,2,-3,-2,0.0849609,0.545898,0.719238,-1.1875,-1.375,0,0.652183,-0.0816277,-2.44136
5425,-1,0,-6,1,0,0,6,-2,0.0849609,0.545898,0.719238,-1.1875,-1.375,0,0.652183,-0.0816277,-2.44136
5425,0,7,-4,2,-1,-3,-10,-1,0.0849609,0.545898,0.719238,-1.1875,-1.375,0,0.652183,-0.0816277,-2.44136
5427,5,12,8,3,2,0,-3,0,0.0732422,0.544434,0.709473,-0.75,-1.5625,0.875,0.651971,-0.0822079,-2.44143
5427,4,14,1,2,-2,-2,-1,0,0.0732422,0.544434,0.709473,-0.75,-1.5625,0.875,0.651971,-0.0822079,-2.44143
5447,-5,-39,-9,-9,-4,-10,-4,-3,0.0732422,0.544434,0.709473,-0.75,-1.5625,0.875,0.651971,-0.0822079,-2.44143
5447,-1,9,0,3,0,9,4,-1,0.0732422,0.544434,0.709473,-0.75,-1.5625,0.875,0.651971,-0.0822079,-2.44143
5449,2,-3,-7,-3,-4,-1,1,0,0.0771484,0.55127,0.713379,-0.875,-1.875,0.5,0.651835,-0.0828609,-2.44173
5449,-7,0,-2,0,-1,5,0,1,0.0771484,0.55127,0.713379,-0.875,-1.875,0.5,0.651835,-0.0828609,-2.44173
5462,2,4,6,0,0,2,4,-1,0.0771484,0.55127,0.713379,-0.875,-1.875,0.5,0.651835,-0.0828609,-2.44173
5462,3,1,-11,0,3,-2,-8,1,0.0771484,0.55127,0.713379,-0.875,-1.875,0.5,0.651835,-0.0828609,-2.44173
5485,-4,36,4,0,3,4,-3,-1,0.0791016,0.554688,0.717773,-1,-1.4375,0.1875,0.651648,-0.0833938,-2.44198
5485,-8,-75,-20,-9,-8,-11,-5,-4,0.0791016,0.554688,0.717773,-1,-1.4375,0.1875,0.651648,-0.0833938,-2.44198
5493,-1,5,13,3,-1,-1,-3,0,0.0791016,0.554688,0.717773,-1,-1.4375,0.1875,0.651648,-0.0833938,-2.44198
5493,-3,-8,-23,-7,-5,-9,1,-1,0.0791016,0.554688,0.717773,-1,-1.4375,0.1875,0.651648,-0.0833938,-2.44198
5493,4,14,8,6,0,3,1,1,0.0708008,0.543457,0.716309,-0.5625,-1.4375,1.375,0.65128,-0.0839802,-2.44182
5493,3,15,1,2,-2,-3,0,1,0.0708008,0.543457,0.716309,-0.5625,-1.4375,1.375,0.65128,-0.0839802,-2.44182
5507,-11,-12,-39,-5,1,2,-1,-2,0.0708008,0.543457,0.716309,-0.5625,-1.4375,1.375,0.65128,-0.0839802,-2.44182
5507,-2,3,7,-2,-3,0,0,-1,0.0708008,0.543457,0.716309,-0.5625,-1.4375,1.375,0.65128,-0.0839802,-2.44182
5514,-1,-6,-8,0,0,-5,-1,1,0.0722656,0.540039,0.711914,-1.8125,-1.625,0.5,0.650725,-0.0843806,-2.44205
5514,2,3,-1,-2,-3,-8,-1,-1,0.0722656,0.540039,0.711914,-1.8125,-1.625,0.5,0.650725,-0.0843806,-2.44205
5521,0,0,8,2,0,6,1,0,0.0722656,0.540039,0.711914,-1.8125,-1.625,0.5,0.650725,-0.0843806,-2.44205
5521,6,-4,-2,-2,-4,-4,0,-2,0.0722656,0.540039,0.711914,-1.8125,-1.625,0.5,0.650725,-0.0843806,-2.44205
5530,-9,-14,-12,-2,0,-5,-5,-2,0.0737305,0.543457,0.722168,-0.9375,-1.0625,0.0625,0.650316,-0.0847227,-2.44219
5530,1,7,6,2,0,-11,-10,0,0.0737305,0.543457,0.722168,-0.9375,-1.0625,0.0625,0.650316,-0.0847227,-2.44219
5545,-3,-6,2,0,-3,6,1,-4,0.0737305,0.543457,0.722168,-0.9375,-1.0625,0.0625,0.650316,-0.0847227,-2.44219
5545,-1,3,1,0,2,8,3,0,0.0737305,0.543457,0.722168,-0.9375,-1.0625,0.0625,0.650316,-0.0847227,-2.44219
5547,8,-5,28,0,1,4,17,2,0.0800781,0.538086,0.714844,0.5625,-1.125,-0.25,0.650312,-0.0850508,-2.4424
5547,-1,5,-16,-4,-1,-4,-15,-1,0.0800781,0.538086,0.714844,0.5625,-1.125,-0.25,0.650312,-0.0850508,-2.4424
5568,1,-3,0,-3,-2,-12,-7,0,0.0800781,0.538086,0.714844,0.5625,-1.125,-0.25,0.650312,-0.0850508,-2.4424
5568,5,5,2,2,-3,-8,-4,-3,0.0800781,0.538086,0.714844,0.5625,-1.125,-0.25,0.650312,-0.0850508,-2.4424
5569,-2,-20,-8,-6,-4,4,-1,-1,0.0874023,0.550293,0.719238,0.625,-0.875,-1.3125,0.650759,-0.0852702,-2.44307
5569,0,22,6,1,-1,9,16,2,0.0874023,0.550293,0.719238,0.625,-0.875,-1.3125,0.650759,-0.0852702,-2.44307
5590,0,2,34,-1,-1,0,1,1,0.0874023,0.550293,0.719238,0.625,-0.875,-1.3125,0.650759,-0.0852702,-2.44307
5590,-5,-29,-25,-4,1,9,-3,0,0.0874023,0.550293,0.719238,0.625,-0.875,-1.3125,0.650759,-0.0852702,-2.44307
5592,1,-1,14,3,0,0,-1,1,0.0854492,0.543945,0.71875,1.4375,-0.75,-1.125,0.651226,-0.0854282,-2.44352
5592,-3,7,1,-2,2,-1,2,-5,0.0854492,0.543945,0.71875,1.4375,-0.75,-1.125,0.651226,-0.0854282,-2.44352
5604,-2,6,-9,-1,-1,-5,-4,-1,0.0854492,0.543945,0.71875,1.4375,-0.75,-1.125,0.651226,-0.0854282,-2.44352
5604,-6,4,4,1,-3,-6,-5,-3,0.0854492,0.543945,0.71875,1.4375,-0.75,-1.125,0.651226,-0.0854282,-2.44352
5607,-4,-10,-6,-2,2,1,4,2,0.0717773,0.557129,0.712402,0.375,-1.5625,-0.8125,0.651686,-0.0855475,-2.44406
5607,-1,-9,0,-1,1,5,-5,-11,0.0717773,0.557129,0.712402,0.375,-1.5625,-0.8125,0.651686,-0.0855475,-2.44406
5627,4,8,11,1,-1,-1,-1,0,0.0717773,0.557129,0.712402,0.375,-1.5625,-0.8125,0.651686,-0.0855475,-2.44406
5627,-1,10,-7,-3,-4,-5,-3,-3,0.0717773,0.557129,0.712402,0.375,-1.5625,-0.8125,0.651686,-0.0855475,-2.44406
5629,-4,-8,-24,0,-3,-7,-4,-3,0.081543,0.550781,0.703125,-2.25,-1.75,-1.25,0.651238,-0.0858358,-2.44467
5629,0,7,10,-2,-2,-4,1,1,0.081543,0.550781,0.703125,-2.25,-1.75,-1.25,0.651238,-0.0858358,-2.44467
5641,3,10,27,0,3,-1,0,0,0.081543,0.550781,0.703125,-2.25,-1.75,-1.25,0.651238,-0.0858358,-2.44467
5641,-6,-30,-75,-7,-4,-10,-3,-3,0.081543,0.550781,0.703125,-2.25,-1.75,-1.25,0.651238,-0.0858358,-2.44467
5658,0,0,3,2,2,14,-5,0,0.0766602,0.54248,0.728027,-1.125,-1.125,-1.3125,0.65064,-0.0858165,-2.44524
5658,-2,-6,-13,0,-1,1,3,-3,0.0766602,0.54248,0.728027,-1.125,-1.125,-1.3125,0.65064,-0.0858165,-2.44524
5665,0,12,19,2,-3,-5,-16,-4,0.0766602,0.54248,0.728027,-1.125,-1.125,-1.3125,0.65064,-0.0858165,-2.44524
5665,1,12,21,-4,0,1,11,3,0.0766602,0.54248,0.728027,-1.125,-1.125,-1.3125,0.65064,-0.0858165,-2.44524
5666,-1,4,-6,2,-1,-5,-1,-2,0.0742188,0.541504,0.718262,-0.0625,-0.875,-0.8125,0.650671,-0.0858078,-2.44535
5666,0,-6,11,1,-2,-8,-12,2,0.0742188,0.541504,0.718262,-0.0625,-0.875,-0.8125,0.650671,-0.0858078,-2.44535
5688,0,-7,-24,0,0,0,9,1,0.0742188,0.541504,0.718262,-0.0625,-0.875,-0.8125,0.650671,-0.0858078,-2.44535
5688,1,4,21,6,4,10,4,1,0.0742188,0.541504,0.718262,-0.0625,-0.875,-0.8125,0.650671,-0.0858078,-2.44535
5689,3,0,0,-2,-1,4,-4,-7,0.0717773,0.549316,0.714355,-0.125,-0.5,-0.75,0.650671,-0.0858078,-2.44535
5689,-2,27,22,1,-1,-8,4,3,0.0717773,0.549316,0.714355,-0.125,-0.5,-0.75,0.650671,-0.0858078,-2.44535
5702,-3,-40,-57,-1,2,13,3,0,0.0717773,0.549316,0.714355,-0.125,-0.5,-0.75,0.650671,-0.0858078,-2.44535
5702,1,-3,7,-4,-2,-6,-1,1,0.0717773,0.549316,0.714355,-0.125,-0.5,-0.75,0.650671,-0.0858078,-2.44535
5710,0,16,5,-1,-4,-1,0,1,0.0732422,0.556152,0.732422,-0.9375,0.3125,-1.25,0.650399,-0.0853347,-2.44562
5710,-1,-17,2,-1,-2,-6,-4,-1,0.0732422,0.556152,0.732422,-0.9375,0.3125,-1.25,0.650399,-0.0853347,-2.44562
5725,2,8,7,1,-1,-1,0,0,0.0732422,0.556152,0.732422,-0.9375,0.3125,-1.25,0.650399,-0.0853347,-2.44562
5725,-1,26,0,-2,-1,-1,-9,-1,0.0732422,0.556152,0.732422,-0.9375,0.3125,-1.25,0.650399,-0.0853347,-2.44562
5726,-2,-29,-8,-3,-1,-4,7,1,0.0708008,0.541016,0.716797,0.3125,0.8125,-0.8125,0.650266,-0.0852936,-2.44558
5726,-1,2,4,-4,-3,4,2,-1,0.0708008,0.541016,0.716797,0.3125,0.8125,-0.8125,0.650266,-0.0852936,-2.44558
5747,-8,-6,-7,2,-1,-14,2,-1,0.0708008,0.541016,0.716797,0.3125,0.8125,-0.8125,0.650266,-0.0852936,-2.44558
5747,-4,-4,14,5,0,4,-12,-4,0.0708008,0.541016,0.716797,0.3125,0.8125,-0.8125,0.650266,-0.0852936,-2.44558
5749,11,19,1,-2,0,10,-5,1,0.0673828,0.541992,0.705078,0.75,0.3125,-0.625,0.650266,-0.0852936,-2.44558
5749,-3,-12,-12,4,2,0,2,0,0.0673828,0.541992,0.705078,0.75,0.3125,-0.625,0.650266,-0.0852936,-2.44558
5761,-2,-8,20,-7,-4,-4,2,-2,0.0673828,0.541992,0.705078,0.75,0.3125,-0.625,0.650266,-0.0852936,-2.44558
5761,-3,-16,4,-3,-7,-9,0,-3,0.0673828,0.541992,0.705078,0.75,0.3125,-0.625,0.650266,-0.0852936,-2.44558
5770,-4,-2,-5,-6,-4,-11,-3,-3,0.0732422,0.553223,0.711426,-0.5625,-0.3125,-0.9375,0.650443,-0.0852262,-2.4456
5770,5,1,-2,2,1,-1,5,2,0.0732422,0.553223,0.711426,-0.5625,-0.3125,-0.9375,0.650443,-0.0852262,-2.4456
5785,2,10,-5,1,0,1,-6,-1,0.0732422,0.553223,0.711426,-0.5625,-0.3125,-0.9375,0.650443,-0.0852262,-2.4456
5785,-4,6,1,2,5,10,5,1,0.0732422,0.553223,0.711426,-0.5625,-0.3125,-0.9375,0.650443,-0.0852262,-2.4456
5786,-4,-1,8,-5,-4,2,-3,-2,0.0766602,0.544922,0.711914,-2.625,-1.625,-0.125,0.649573,-0.0856157,-2.44586
5786,-2,-16,4,-2,-3,-13,-5,0,0.0766602,0.544922,0.711914,-2.625,-1.625,-0.125,0.649573,-0.0856157,-2.44586
5807,-1,-17,-16,-4,-5,10,0,-1,0.0766602,0.544922,0.711914,-2.625,-1.625,-0.125,0.649573,-0.0856157,-2.44586
5807,0,2,2,3,-3,-13,5,4,0.0766602,0.544922,0.711914,-2.625,-1.625,-0.125,0.649573,-0.0856157,-2.44586
5809,-2,3,-10,0,-2,-6,-6,-8,0.074707,0.54248,0.712402,-3.9375,-2.0625,1.25,0.648317,-0.0864638,-2.44601
5809,-6,4,-43,-3,1,4,-3,-3,0.074707,0.54248,0.712402,-3.9375,-2.0625,1.25,0.648317,-0.0864638,-2.44601
5822,-3,-1,1,0,-2,-10,-7,1,0.074707,0.54248,0.712402,-3.9375,-2.0625,1.25,0.648317,-0.0864638,-2.44601
5822,5,8,11,-1,1,9,1,0,0.074707,0.54248,0.712402,-3.9375,-2.0625,1.25,0.648317,-0.0864638,-2.44601
5830,-9,-10,-20,-3,-4,-19,-4,-1,0.0854492,0.541504,0.719238,-2.8125,-1.8125,-0.5625,0.647386,-0.0870241,-2.44652
5830,0,-1,10,-5,-5,1,1,-1,0.0854492,0.541504,0.719238,-2.8125,-1.8125,-0.5625,0.647386,-0.0870241,-2.44652
5846,1,-1,-12,-4,2,11,1,0,0.0854492,0.541504,0.719238,-2.8125,-1.8125,-0.5625,0.647386,-0.0870241,-2.44652
5846,-4,-2,11,-2,-2,-3,-3,-3,0.0854492,0.541504,0.719238,-2.8125,-1.8125,-0.5625,0.647386,-0.0870241,-2.44652
5847,-1,6,10,-2,0,-4,-7,2,0.0874023,0.546387,0.725586,-0.3125,-1.25,-0.25,0.647195,-0.0875201,-2.44686
5847,-1,-3,-8,0,0,9,-1,-1,0.0874023,0.546387,0.725586,-0.3125,-1.25,-0.25,0.647195,-0.0875201,-2.44686
5867,5,30,33,0,-3,-21,-1,2,0.0874023,0.546387,0.725586,-0.3125,-1.25,-0.25,0.647195,-0.0875201,-2.44686
5867,-4,-34,4,-5,-6,4,-4,-5,0.0874023,0.546387,0.725586,-0.3125,-1.25,-0.25,0.647195,-0.0875201,-2.44686
5869,-5,-2,-19,-3,2,26,8,1,0.0805664,0.550293,0.722168,-0.875,-0.375,-0.125,0.647195,-0.0875201,-2.44686
5869,3,-3,10,-2,-2,-17,5,0,0.0805664,0.550293,0.722168,-0.875,-0.375,-0.125,0.647195,-0.0875201,-2.44686
5881,5,6,3,5,0,14,-2,0,0.0805664,0.550293,0.722168,-0.875,-0.375,-0.125,0.647195,-0.0875201,-2.44686
5881,1,19,7,2,8,22,-5,-1,0.0805664,0.550293,0.722168,-0.875,-0.375,-0.125,0.647195,-0.0875201,-2.44686
5889,3,9,47,4,1,-1,4,1,0.0708008,0.552734,0.716797,-0.0625,0.5625,-0.5625,0.6472,-0.0873817,-2.44681
5889,-11,-72,-73,-13,-10,-20,-15,-6,0.0708008,0.552734,0.716797,-0.0625,0.5625,-0.5625,0.6472,-0.0873817,-2.44681
5904,1,10,10,-1,-9,-32,-7,-3,0.0708008,0.552734,0.716797,-0.0625,0.5625,-0.5625,0.6472,-0.0873817,-2.44681
