0,-8,18,-4,-2,-1,-1,-6,-3,0.103516,0.765137,0.492188,3.1875,-2.6875,9.625,0.988166,-0.0780579,-2.33996
0,-16,-66,-5,-3,-1,1,3,-4,0.103516,0.765137,0.492188,3.1875,-2.6875,9.625,0.988166,-0.0780579,-2.33996
1,0,-16,5,-5,-3,-3,-9,0,0.103516,0.765137,0.492188,3.1875,-2.6875,9.625,0.988166,-0.0780579,-2.33996
1,6,23,0,-3,-1,-1,2,0,0.103516,0.765137,0.492188,3.1875,-2.6875,9.625,0.988166,-0.0780579,-2.33996
1,-3,-41,-5,-5,0,-1,1,-1,0.103516,0.765137,0.492188,3.1875,-2.6875,9.625,0.988166,-0.0780579,-2.33996
1,4,19,-1,2,0,0,2,1,0.103516,0.765137,0.492188,3.1875,-2.6875,9.625,0.988166,-0.0780579,-2.33996
13,-2,4,1,0,0,-2,-4,-2,0.103516,0.765137,0.492188,3.1875,-2.6875,9.625,0.988166,-0.0780579,-2.33996
13,-7,-4,2,-1,0,-3,-2,-2,0.103516,0.765137,0.492188,3.1875,-2.6875,9.625,0.988166,-0.0780579,-2.33996
16,10,7,2,1,-1,2,2,0,0.0849609,0.755371,0.48291,1.625,-0.375,10.1875,0.988999,-0.0813403,-2.3382
16,-15,13,-4,-1,-2,-4,-15,-1,0.0849609,0.755371,0.48291,1.625,-0.375,10.1875,0.988999,-0.0813403,-2.3382
19,-9,-9,-2,-1,-1,2,8,-7,0.0849609,0.755371,0.48291,1.625,-0.375,10.1875,0.988999,-0.0813403,-2.3382
19,17,7,3,0,-4,0,10,7,0.0849609,0.755371,0.48291,1.625,-0.375,10.1875,0.988999,-0.0813403,-2.3382
38,-3,-17,-25,-3,-2,-3,-10,-4,0.0722656,0.762695,0.491699,0.6875,0.3125,12.1875,0.989162,-0.0847339,-2.33571
38,12,75,24,3,1,-1,-2,0,0.0722656,0.762695,0.491699,0.6875,0.3125,12.1875,0.989162,-0.0847339,-2.33571
42,-1,-49,-13,0,0,-2,-5,1,0.0722656,0.762695,0.491699,0.6875,0.3125,12.1875,0.989162,-0.0847339,-2.33571
42,-9,11,2,1,2,-1,3,-2,0.0722656,0.762695,0.491699,0.6875,0.3125,12.1875,0.989162,-0.0847339,-2.33571
57,-6,-27,1,-1,-4,-2,3,0,0.0693359,0.777832,0.500977,-0.9375,-0.625,11.0625,0.988901,-0.0877422,-2.33384
57,9,28,-8,1,-1,0,3,3,0.0693359,0.777832,0.500977,-0.9375,-0.625,11.0625,0.988901,-0.0877422,-2.33384
73,10,67,24,-2,1,-2,2,5,0.0693359,0.777832,0.500977,-0.9375,-0.625,11.0625,0.988901,-0.0877422,-2.33384
73,-10,-68,-5,-2,0,0,-5,-1,0.0693359,0.777832,0.500977,-0.9375,-0.625,11.0625,0.988901,-0.0877422,-2.33384
76,1,18,9,0,0,0,2,-1,0.0849609,0.775391,0.463867,-3.625,-1.625,8.5,0.988514,-0.090713,-2.33277
76,-1,-4,-10,-1,-2,-1,-3,-3,0.0849609,0.775391,0.463867,-3.625,-1.625,8.5,0.988514,-0.090713,-2.33277
88,3,9,2,2,-1,0,-2,-3,0.0849609,0.775391,0.463867,-3.625,-1.625,8.5,0.988514,-0.090713,-2.33277
88,-10,-26,-24,-7,-2,0,-1,-4,0.0849609,0.775391,0.463867,-3.625,-1.625,8.5,0.988514,-0.090713,-2.33277
101,5,19,5,-4,-3,-4,-8,1,0.12207,0.796387,0.445312,-9.0625,-5.6875,4.75,0.987137,-0.0940513,-2.33373
101,-7,-29,-1,2,4,1,13,-1,0.12207,0.796387,0.445312,-9.0625,-5.6875,4.75,0.987137,-0.0940513,-2.33373
109,-2,-11,-14,4,2,1,2,0,0.12207,0.796387,0.445312,-9.0625,-5.6875,4.75,0.987137,-0.0940513,-2.33373
109,4,20,19,3,0,1,-4,1,0.12207,0.796387,0.445312,-9.0625,-5.6875,4.75,0.987137,-0.0940513,-2.33373
149,-5,-59,-6,0,0,-3,11,-2,0.0615234,0.766602,0.513184,-12.75,-3.5625,-0.0625,0.978916,-0.097598,-2.33656
149,-4,21,9,1,0,0,-2,-4,0.0615234,0.766602,0.513184,-12.75,-3.5625,-0.0625,0.978916,-0.097598,-2.33656
150,-3,0,-2,-4,-2,-3,1,0,0.0615234,0.766602,0.513184,-12.75,-3.5625,-0.0625,0.978916,-0.097598,-2.33656
150,10,32,12,0,-2,1,4,3,0.0615234,0.766602,0.513184,-12.75,-3.5625,-0.0625,0.978916,-0.097598,-2.33656
151,-5,-18,-9,-2,-1,0,-5,0,0.0615234,0.766602,0.513184,-12.75,-3.5625,-0.0625,0.978916,-0.097598,-2.33656
151,2,29,16,-1,-1,0,5,-1,0.0615234,0.766602,0.513184,-12.75,-3.5625,-0.0625,0.978916,-0.097598,-2.33656
153,-2,6,4,-1,0,-1,-2,0,0.0615234,0.766602,0.513184,-12.75,-3.5625,-0.0625,0.978916,-0.097598,-2.33656
153,-5,-25,-2,-1,2,-1,-17,-7,0.0615234,0.766602,0.513184,-12.75,-3.5625,-0.0625,0.978916,-0.097598,-2.33656
162,13,18,-9,1,-1,-1,-4,2,0.0615234,0.766602,0.513184,-12.75,-3.5625,-0.0625,0.978916,-0.097598,-2.33656
162,-13,-22,-5,1,-2,-2,3,-1,0.0615234,0.766602,0.513184,-12.75,-3.5625,-0.0625,0.978916,-0.097598,-2.33656
168,4,1,2,-2,-1,-1,-2,0,0.0678711,0.797363,0.478027,-22.375,-4,-8.1875,0.972715,-0.0955401,-2.33937
168,-7,-4,-5,-1,-1,-3,4,1,0.0678711,0.797363,0.478027,-22.375,-4,-8.1875,0.972715,-0.0955401,-2.33937
175,7,14,0,-2,-2,-6,1,-1,0.0678711,0.797363,0.478027,-22.375,-4,-8.1875,0.972715,-0.0955401,-2.33937
175,-1,-12,-14,-1,1,-2,-5,-1,0.0678711,0.797363,0.478027,-22.375,-4,-8.1875,0.972715,-0.0955401,-2.33937
191,-6,-9,-1,1,1,0,2,-7,0.0966797,0.787598,0.506836,-4.1875,-1.375,-15.3125,0.972135,-0.0916059,-2.34282
191,8,5,-2,0,-4,-2,5,10,0.0966797,0.787598,0.506836,-4.1875,-1.375,-15.3125,0.972135,-0.0916059,-2.34282
199,-2,18,14,3,-1,2,9,8,0.0966797,0.787598,0.506836,-4.1875,-1.375,-15.3125,0.972135,-0.0916059,-2.34282
199,0,-1,-19,-3,-3,-2,-9,0,0.0966797,0.787598,0.506836,-4.1875,-1.375,-15.3125,0.972135,-0.0916059,-2.34282
214,-2,-27,8,0,-2,-6,-3,-4,0.0224609,0.745117,0.503418,2,1.1875,-11.9375,0.973042,-0.0866141,-2.34485
214,-6,-45,-23,0,1,0,3,-6,0.0224609,0.745117,0.503418,2,1.1875,-11.9375,0.973042,-0.0866141,-2.34485
222,-6,-4,5,-1,-1,-2,-6,-4,0.0224609,0.745117,0.503418,2,1.1875,-11.9375,0.973042,-0.0866141,-2.34485
222,2,43,13,5,1,-1,1,1,0.0224609,0.745117,0.503418,2,1.1875,-11.9375,0.973042,-0.0866141,-2.34485
237,-1,-6,-16,-2,-3,0,-1,-1,0.034668,0.722168,0.496582,0.5625,-0.375,-15.5625,0.973512,-0.0814025,-2.34801
237,-5,9,1,0,-3,0,-7,0,0.034668,0.722168,0.496582,0.5625,-0.375,-15.5625,0.973512,-0.0814025,-2.34801
238,-3,18,16,0,-3,0,-1,-1,0.034668,0.722168,0.496582,0.5625,-0.375,-15.5625,0.973512,-0.0814025,-2.34801
238,5,-23,-18,-1,1,-1,0,-2,0.034668,0.722168,0.496582,0.5625,-0.375,-15.5625,0.973512,-0.0814025,-2.34801
259,9,55,34,1,0,1,-1,2,0.0629883,0.728027,0.513184,-6.875,-0.125,-9.625,0.970899,-0.0783502,-2.34988
259,2,-63,-31,-6,-3,-1,12,1,0.0629883,0.728027,0.513184,-6.875,-0.125,-9.625,0.970899,-0.0783502,-2.34988
260,-15,-2,0,-2,-3,-2,-12,-8,0.0629883,0.728027,0.513184,-6.875,-0.125,-9.625,0.970899,-0.0783502,-2.34988
260,5,3,10,0,1,0,4,2,0.0629883,0.728027,0.513184,-6.875,-0.125,-9.625,0.970899,-0.0783502,-2.34988
274,-6,-4,-2,0,-1,-2,-2,-1,0.0483398,0.755859,0.51123,-14.4375,0.375,-1.625,0.966143,-0.0773463,-2.35013
274,4,18,8,-1,-1,-3,-2,0,0.0483398,0.755859,0.51123,-14.4375,0.375,-1.625,0.966143,-0.0773463,-2.35013
282,1,3,-17,-5,-1,1,3,1,0.0483398,0.755859,0.51123,-14.4375,0.375,-1.625,0.966143,-0.0773463,-2.35013
282,-2,-36,-18,-2,-2,0,-2,-2,0.0483398,0.755859,0.51123,-14.4375,0.375,-1.625,0.966143,-0.0773463,-2.35013
313,1,-2,-11,0,2,2,-3,-2,0.0473633,0.704102,0.504883,-17.1875,-1.125,0,0.959899,-0.076977,-2.35045
313,-4,38,14,2,2,0,3,-2,0.0473633,0.704102,0.504883,-17.1875,-1.125,0,0.959899,-0.076977,-2.35045
314,3,-28,-13,-2,-1,-1,0,-1,0.0473633,0.704102,0.504883,-17.1875,-1.125,0,0.959899,-0.076977,-2.35045
314,-1,6,21,-3,-4,-2,-1,-3,0.0473633,0.704102,0.504883,-17.1875,-1.125,0,0.959899,-0.076977,-2.35045
320,-1,-3,-12,-1,-1,-2,-3,2,0.0849609,0.692383,0.535156,-10.25,-0.1875,-0.8125,0.955436,-0.0772319,-2.35052
320,3,38,14,1,0,0,5,1,0.0849609,0.692383,0.535156,-10.25,-0.1875,-0.8125,0.955436,-0.0772319,-2.35052
321,-5,-13,-1,0,1,-3,-1,-2,0.0849609,0.692383,0.535156,-10.25,-0.1875,-0.8125,0.955436,-0.0772319,-2.35052
321,0,-37,-24,-3,-1,-3,-3,2,0.0849609,0.692383,0.535156,-10.25,-0.1875,-0.8125,0.955436,-0.0772319,-2.35052
335,0,-13,-5,-2,-1,4,6,-3,0.109863,0.710938,0.560059,-3.375,3.75,-0.6875,0.95315,-0.0773194,-2.34958
335,-3,2,-6,-3,-2,-4,-16,-2,0.109863,0.710938,0.560059,-3.375,3.75,-0.6875,0.95315,-0.0773194,-2.34958
342,2,16,13,0,0,2,16,-3,0.109863,0.710938,0.560059,-3.375,3.75,-0.6875,0.95315,-0.0773194,-2.34958
342,0,29,18,0,1,-1,2,2,0.109863,0.710938,0.560059,-3.375,3.75,-0.6875,0.95315,-0.0773194,-2.34958
357,-2,7,-16,0,-2,-3,-3,1,0.0878906,0.73877,0.557617,-6.875,7.25,1.1875,0.94995,-0.0766478,-2.34708
357,-6,-43,1,0,-1,0,-6,-5,0.0878906,0.73877,0.557617,-6.875,7.25,1.1875,0.94995,-0.0766478,-2.34708
357,-4,-17,-24,-1,0,1,-4,0,0.0878906,0.73877,0.557617,-6.875,7.25,1.1875,0.94995,-0.0766478,-2.34708
357,-2,17,16,-1,-3,-1,-1,-1,0.0878906,0.73877,0.557617,-6.875,7.25,1.1875,0.94995,-0.0766478,-2.34708
379,0,-27,-7,-6,-2,0,-1,-2,0.0844727,0.734863,0.561035,-13.9375,8.6875,2.375,0.944345,-0.0758901,-2.34417
379,7,28,5,-2,-1,-4,-2,11,0.0844727,0.734863,0.561035,-13.9375,8.6875,2.375,0.944345,-0.0758901,-2.34417
380,10,48,9,4,3,-1,-5,-9,0.0844727,0.734863,0.561035,-13.9375,8.6875,2.375,0.944345,-0.0758901,-2.34417
380,-14,-41,-16,-2,-2,-1,8,-1,0.0844727,0.734863,0.561035,-13.9375,8.6875,2.375,0.944345,-0.0758901,-2.34417
402,-3,-10,0,3,0,-1,-11,-4,0.0932617,0.702148,0.564453,-18,9.3125,2.5625,0.936738,-0.0753291,-2.34078
402,0,-15,-16,2,0,2,7,4,0.0932617,0.702148,0.564453,-18,9.3125,2.5625,0.936738,-0.0753291,-2.34078
403,5,18,13,-3,-6,-1,-8,1,0.0932617,0.702148,0.564453,-18,9.3125,2.5625,0.936738,-0.0753291,-2.34078
403,3,24,20,0,-1,1,-2,0,0.0932617,0.702148,0.564453,-18,9.3125,2.5625,0.936738,-0.0753291,-2.34078
416,0,14,-9,-2,-1,-1,1,1,0.11377,0.685547,0.576172,-11.625,9.875,1.6875,0.931232,-0.074874,-2.33757
416,0,6,0,-3,0,0,0,-8,0.11377,0.685547,0.576172,-11.625,9.875,1.6875,0.931232,-0.074874,-2.33757
417,-20,-15,3,1,2,0,0,-4,0.11377,0.685547,0.576172,-11.625,9.875,1.6875,0.931232,-0.074874,-2.33757
417,1,-4,-10,-1,-1,1,-5,-2,0.11377,0.685547,0.576172,-11.625,9.875,1.6875,0.931232,-0.074874,-2.33757
438,-4,-3,11,2,-2,-1,5,0,0.113281,0.699219,0.582031,-1.75,11.9375,3.0625,0.92915,-0.0744101,-2.33353
438,-3,-5,-9,-3,-1,-1,-4,-5,0.113281,0.699219,0.582031,-1.75,11.9375,3.0625,0.92915,-0.0744101,-2.33353
440,5,13,-2,0,0,0,0,4,0.113281,0.699219,0.582031,-1.75,11.9375,3.0625,0.92915,-0.0744101,-2.33353
440,3,45,9,-1,0,-3,-3,0,0.113281,0.699219,0.582031,-1.75,11.9375,3.0625,0.92915,-0.0744101,-2.33353
462,-4,22,4,-1,0,0,0,-3,0.0703125,0.693359,0.564453,-3,11.6875,2.3125,0.926925,-0.0726955,-2.32975
462,-13,-44,-12,-1,-2,-2,0,-7,0.0703125,0.693359,0.564453,-3,11.6875,2.3125,0.926925,-0.0726955,-2.32975
463,0,-13,2,-2,-3,-2,-4,1,0.0703125,0.693359,0.564453,-3,11.6875,2.3125,0.926925,-0.0726955,-2.32975
463,3,17,15,3,1,1,-2,2,0.0703125,0.693359,0.564453,-3,11.6875,2.3125,0.926925,-0.0726955,-2.32975
477,1,3,-29,-3,2,0,3,0,0.0688477,0.675293,0.554199,0.3125,8.625,0.625,0.925967,-0.0711295,-2.32708
477,4,19,10,2,0,0,1,-1,0.0688477,0.675293,0.554199,0.3125,8.625,0.625,0.925967,-0.0711295,-2.32708
478,-1,5,5,-3,-2,-1,-1,0,0.0688477,0.675293,0.554199,0.3125,8.625,0.625,0.925967,-0.0711295,-2.32708
478,-2,-7,4,0,-3,-1,-2,-3,0.0688477,0.675293,0.554199,0.3125,8.625,0.625,0.925967,-0.0711295,-2.32708
499,-1,-14,3,0,-1,-2,1,1,0.0786133,0.692383,0.544434,5.3125,6.4375,0.25,0.927253,-0.0703439,-2.32513
499,-4,-14,5,-1,0,1,-1,-1,0.0786133,0.692383,0.544434,5.3125,6.4375,0.25,0.927253,-0.0703439,-2.32513
499,-2,-5,-5,1,2,-2,-4,-1,0.0786133,0.692383,0.544434,5.3125,6.4375,0.25,0.927253,-0.0703439,-2.32513
499,0,-21,-3,-5,-2,-2,-3,-2,0.0786133,0.692383,0.544434,5.3125,6.4375,0.25,0.927253,-0.0703439,-2.32513
522,-1,-7,2,-8,-3,-2,-4,-1,0.0625,0.689941,0.539062,9,4.625,1.125,0.929746,-0.0697164,-2.32363
522,-3,3,4,-5,-2,-1,-1,-3,0.0625,0.689941,0.539062,9,4.625,1.125,0.929746,-0.0697164,-2.32363
522,3,20,-6,-1,-1,0,1,2,0.0625,0.689941,0.539062,9,4.625,1.125,0.929746,-0.0697164,-2.32363
522,0,-19,-5,-2,0,-3,-2,-2,0.0625,0.689941,0.539062,9,4.625,1.125,0.929746,-0.0697164,-2.32363
536,-1,-2,-6,-5,-2,-2,-1,-1,0.0654297,0.692383,0.555176,13.125,3.1875,-1.375,0.933405,-0.0687779,-2.32285
536,2,5,-4,6,2,0,3,1,0.0654297,0.692383,0.555176,13.125,3.1875,-1.375,0.933405,-0.0687779,-2.32285
544,2,27,15,2,0,0,2,1,0.0654297,0.692383,0.555176,13.125,3.1875,-1.375,0.933405,-0.0687779,-2.32285
544,-6,-42,-35,-2,-1,-2,0,-4,0.0654297,0.692383,0.555176,13.125,3.1875,-1.375,0.933405,-0.0687779,-2.32285
559,0,30,20,0,-1,-2,1,0,0.0644531,0.708984,0.542969,15.75,3.0625,-2.0625,0.938457,-0.0677513,-2.32236
559,1,-12,0,-2,-2,-3,-1,0,0.0644531,0.708984,0.542969,15.75,3.0625,-2.0625,0.938457,-0.0677513,-2.32236
559,1,18,7,2,-3,-3,-3,-1,0.0644531,0.708984,0.542969,15.75,3.0625,-2.0625,0.938457,-0.0677513,-2.32236
559,-3,3,7,-1,0,0,0,-4,0.0644531,0.708984,0.542969,15.75,3.0625,-2.0625,0.938457,-0.0677513,-2.32236
590,1,2,4,5,1,-3,1,1,0.0644531,0.737793,0.525391,16.8125,1.875,-0.4375,0.944486,-0.0672634,-2.32197
590,2,9,-5,-4,-2,-2,-2,-1,0.0644531,0.737793,0.525391,16.8125,1.875,-0.4375,0.944486,-0.0672634,-2.32197
590,-1,-2,-2,0,2,-1,-2,-1,0.0644531,0.737793,0.525391,16.8125,1.875,-0.4375,0.944486,-0.0672634,-2.32197
590,1,0,-6,-3,-1,-1,-2,-1,0.0644531,0.737793,0.525391,16.8125,1.875,-0.4375,0.944486,-0.0672634,-2.32197
597,-1,-5,-6,2,-1,0,-1,0,0.0595703,0.753906,0.522949,14.3125,2.375,-1.5625,0.949766,-0.0662667,-2.32153
597,2,15,6,0,-1,1,-2,1,0.0595703,0.753906,0.522949,14.3125,2.375,-1.5625,0.949766,-0.0662667,-2.32153
597,2,-15,-13,-1,-2,-1,-1,-1,0.0595703,0.753906,0.522949,14.3125,2.375,-1.5625,0.949766,-0.0662667,-2.32153
597,0,3,5,-1,-1,1,0,-1,0.0595703,0.753906,0.522949,14.3125,2.375,-1.5625,0.949766,-0.0662667,-2.32153
619,-2,-9,7,2,1,1,-1,0,0.0532227,0.755371,0.517578,14.6875,2.4375,-3.9375,0.955312,-0.0645024,-2.3217
619,-3,15,0,0,-3,0,1,-1,0.0532227,0.755371,0.517578,14.6875,2.4375,-3.9375,0.955312,-0.0645024,-2.3217
620,-1,-20,-13,-4,-3,-3,0,-2,0.0532227,0.755371,0.517578,14.6875,2.4375,-3.9375,0.955312,-0.0645024,-2.3217
620,0,4,0,0,-2,-1,-2,-1,0.0532227,0.755371,0.517578,14.6875,2.4375,-3.9375,0.955312,-0.0645024,-2.3217
650,2,27,1,0,0,1,1,-1,0.046875,0.745117,0.515137,15.4375,1.625,-5.9375,0.96082,-0.0622707,-2.32245
650,-1,-7,12,4,2,-1,-4,-1,0.046875,0.745117,0.515137,15.4375,1.625,-5.9375,0.96082,-0.0622707,-2.32245
651,-3,-29,-10,-1,0,0,10,0,0.046875,0.745117,0.515137,15.4375,1.625,-5.9375,0.96082,-0.0622707,-2.32245
651,-1,3,3,-1,-4,-1,0,0,0.046875,0.745117,0.515137,15.4375,1.625,-5.9375,0.96082,-0.0622707,-2.32245
656,3,32,5,0,-2,1,0,-1,0.0390625,0.750488,0.514648,17.0625,1.4375,-6.8125,0.96684,-0.0596998,-2.32332
656,-4,-33,-14,-2,-2,0,-2,-4,0.0390625,0.750488,0.514648,17.0625,1.4375,-6.8125,0.96684,-0.0596998,-2.32332
657,-1,-13,6,-1,0,1,-3,-1,0.0390625,0.750488,0.514648,17.0625,1.4375,-6.8125,0.96684,-0.0596998,-2.32332
657,-3,-12,-24,-3,-3,-2,-2,-1,0.0390625,0.750488,0.514648,17.0625,1.4375,-6.8125,0.96684,-0.0596998,-2.32332
679,6,38,11,-2,-3,-2,1,1,0.0351562,0.773926,0.504395,14.9375,1.3125,-7.8125,0.972569,-0.0567261,-2.32444
679,-7,-55,-23,-7,-4,-2,-2,-6,0.0351562,0.773926,0.504395,14.9375,1.3125,-7.8125,0.972569,-0.0567261,-2.32444
680,-2,-12,-3,1,1,0,-3,-4,0.0351562,0.773926,0.504395,14.9375,1.3125,-7.8125,0.972569,-0.0567261,-2.32444
680,-1,5,10,2,1,0,1,0,0.0351562,0.773926,0.504395,14.9375,1.3125,-7.8125,0.972569,-0.0567261,-2.32444
701,-1,-11,-12,-1,0,0,-5,0,0.0351562,0.773438,0.500977,14.3125,2.5,-7.875,0.978091,-0.0536142,-2.32532
701,-1,22,13,-3,-2,-1,1,0,0.0351562,0.773438,0.500977,14.3125,2.5,-7.875,0.978091,-0.0536142,-2.32532
709,-1,-11,-15,1,-2,-1,-2,2,0.0351562,0.773438,0.500977,14.3125,2.5,-7.875,0.978091,-0.0536142,-2.32532
709,1,18,27,-1,-2,-1,-1,-2,0.0351562,0.773438,0.500977,14.3125,2.5,-7.875,0.978091,-0.0536142,-2.32532
725,-8,-25,-32,-5,-3,-1,-1,-2,0.0400391,0.755371,0.494629,11.125,1.9375,-7.1875,0.98217,-0.0510673,-2.32617
725,-2,-34,-2,-2,-1,-1,0,-3,0.0400391,0.755371,0.494629,11.125,1.9375,-7.1875,0.98217,-0.0510673,-2.32617
725,1,-5,-4,-2,-1,0,-1,0,0.0400391,0.755371,0.494629,11.125,1.9375,-7.1875,0.98217,-0.0510673,-2.32617
725,3,28,1,1,4,-1,0,-1,0.0400391,0.755371,0.494629,11.125,1.9375,-7.1875,0.98217,-0.0510673,-2.32617
739,-4,-41,1,-2,-3,-2,-3,-4,0.043457,0.74707,0.488281,9.125,1.625,-5.1875,0.985558,-0.0492254,-2.32681
739,3,42,9,1,-2,-1,-1,0,0.043457,0.74707,0.488281,9.125,1.625,-5.1875,0.985558,-0.0492254,-2.32681
740,-2,-12,4,-1,-2,-2,-4,-2,0.043457,0.74707,0.488281,9.125,1.625,-5.1875,0.985558,-0.0492254,-2.32681
740,-4,-41,-20,0,-1,0,-1,0,0.043457,0.74707,0.488281,9.125,1.625,-5.1875,0.985558,-0.0492254,-2.32681
763,0,23,1,-4,0,-1,-4,-2,0.0483398,0.744141,0.484375,6.3125,0.9375,-4.1875,0.987981,-0.0479276,-2.32731
763,-3,-6,-7,-3,-1,-2,-1,0,0.0483398,0.744141,0.484375,6.3125,0.9375,-4.1875,0.987981,-0.0479276,-2.32731
763,-1,4,-2,-1,-1,0,0,-2,0.0483398,0.744141,0.484375,6.3125,0.9375,-4.1875,0.987981,-0.0479276,-2.32731
763,3,12,25,1,0,-1,-1,1,0.0483398,0.744141,0.484375,6.3125,0.9375,-4.1875,0.987981,-0.0479276,-2.32731
777,-1,5,-20,2,3,1,1,2,0.050293,0.737793,0.500488,9,1.375,-4.25,0.990696,-0.0466596,-2.32767
777,3,9,12,-1,-1,-1,9,3,0.050293,0.737793,0.500488,9,1.375,-4.25,0.990696,-0.0466596,-2.32767
777,-4,-35,-23,-2,-3,-1,0,-1,0.050293,0.737793,0.500488,9,1.375,-4.25,0.990696,-0.0466596,-2.32767
777,-7,-26,-13,-5,-4,-2,-8,-7,0.050293,0.737793,0.500488,9,1.375,-4.25,0.990696,-0.0466596,-2.32767
799,6,-12,5,2,-2,1,3,5,0.059082,0.751465,0.489746,11.9375,2.375,-4.4375,0.994921,-0.0452995,-2.32783
799,-7,41,18,1,0,-1,-6,-10,0.059082,0.751465,0.489746,11.9375,2.375,-4.4375,0.994921,-0.0452995,-2.32783
800,-1,-6,-14,-5,0,-3,-2,1,0.059082,0.751465,0.489746,11.9375,2.375,-4.4375,0.994921,-0.0452995,-2.32783
800,-2,-5,0,-2,-1,-1,5,1,0.059082,0.751465,0.489746,11.9375,2.375,-4.4375,0.994921,-0.0452995,-2.32783
823,-2,-14,8,0,0,0,0,-3,0.0522461,0.772949,0.475098,6.75,1.3125,-3.625,0.997711,-0.0442472,-2.32812
823,3,15,-3,2,1,1,-5,2,0.0522461,0.772949,0.475098,6.75,1.3125,-3.625,0.997711,-0.0442472,-2.32812
823,1,26,7,-1,-2,1,-3,-3,0.0522461,0.772949,0.475098,6.75,1.3125,-3.625,0.997711,-0.0442472,-2.32812
823,0,-17,-7,-2,-2,-2,-4,-2,0.0522461,0.772949,0.475098,6.75,1.3125,-3.625,0.997711,-0.0442472,-2.32812
836,-9,-81,-22,-6,-5,-4,0,-3,0.0429688,0.776367,0.467285,0.75,0.0625,-1.75,0.9987,-0.0438855,-2.32847
836,1,3,-1,1,-3,-2,-1,-1,0.0429688,0.776367,0.467285,0.75,0.0625,-1.75,0.9987,-0.0438855,-2.32847
837,-6,-8,15,2,2,0,0,-2,0.0429688,0.776367,0.467285,0.75,0.0625,-1.75,0.9987,-0.0438855,-2.32847
837,1,8,-2,0,2,-2,2,1,0.0429688,0.776367,0.467285,0.75,0.0625,-1.75,0.9987,-0.0438855,-2.32847
867,4,18,15,0,0,-8,7,1,0.0288086,0.768555,0.479492,-0.6875,-0.375,-1.1875,0.998861,-0.0433519,-2.32874
867,2,-15,-6,0,0,8,0,3,0.0288086,0.768555,0.479492,-0.6875,-0.375,-1.1875,0.998861,-0.0433519,-2.32874
868,-3,6,0,-3,-3,-1,7,0,0.0288086,0.768555,0.479492,-0.6875,-0.375,-1.1875,0.998861,-0.0433519,-2.32874
868,1,26,2,-1,0,0,-8,1,0.0288086,0.768555,0.479492,-0.6875,-0.375,-1.1875,0.998861,-0.0433519,-2.32874
889,-2,18,9,-1,2,-2,-1,-2,0.0273438,0.755371,0.484863,2.4375,-1.25,-2.0625,0.99973,-0.0427402,-2.32946
889,-3,15,-5,-1,-1,-2,-3,-2,0.0273438,0.755371,0.484863,2.4375,-1.25,-2.0625,0.99973,-0.0427402,-2.32946
890,-2,-30,-1,-4,-1,-3,-4,1,0.0273438,0.755371,0.484863,2.4375,-1.25,-2.0625,0.99973,-0.0427402,-2.32946
890,2,13,-7,-2,0,0,2,3,0.0273438,0.755371,0.484863,2.4375,-1.25,-2.0625,0.99973,-0.0427402,-2.32946
896,1,19,15,1,0,3,-2,-1,0.0322266,0.758789,0.489258,3.5,-1.0625,-2.1875,1.00091,-0.042083,-2.33022
896,-2,-33,-5,-3,0,-5,1,-2,0.0322266,0.758789,0.489258,3.5,-1.0625,-2.1875,1.00091,-0.042083,-2.33022
897,-4,14,4,-1,0,11,-5,-8,0.0322266,0.758789,0.489258,3.5,-1.0625,-2.1875,1.00091,-0.042083,-2.33022
897,1,32,-8,-2,-1,-2,-1,0,0.0322266,0.758789,0.489258,3.5,-1.0625,-2.1875,1.00091,-0.042083,-2.33022
918,-7,-25,-1,-3,-4,-3,-6,-2,0.0234375,0.768555,0.48877,1.625,-0.125,-1,1.00156,-0.0415254,-2.33038
918,2,18,-4,-1,-1,-1,-1,1,0.0234375,0.768555,0.48877,1.625,-0.125,-1,1.00156,-0.0415254,-2.33038
920,3,16,25,1,1,-7,1,1,0.0234375,0.768555,0.48877,1.625,-0.125,-1,1.00156,-0.0415254,-2.33038
920,-5,6,-14,-2,-1,1,0,-4,0.0234375,0.768555,0.48877,1.625,-0.125,-1,1.00156,-0.0415254,-2.33038
943,2,15,8,1,-3,-9,1,-1,0.0209961,0.760254,0.495117,-1,-1.625,1.125,1.00098,-0.0417239,-2.33067
943,0,7,-7,-1,0,3,7,1,0.0209961,0.760254,0.495117,-1,-1.625,1.125,1.00098,-0.0417239,-2.33067
943,-3,-22,2,0,0,-3,-2,0,0.0209961,0.760254,0.495117,-1,-1.625,1.125,1.00098,-0.0417239,-2.33067
943,-4,-13,-4,-2,-2,3,2,1,0.0209961,0.760254,0.495117,-1,-1.625,1.125,1.00098,-0.0417239,-2.33067
956,0,-7,3,-1,-3,-5,-6,-3,0.0395508,0.75293,0.493164,-2.6875,-2.375,0.4375,0.99993,-0.0424464,-2.33124
956,-1,-6,6,-2,0,-1,16,-5,0.0395508,0.75293,0.493164,-2.6875,-2.375,0.4375,0.99993,-0.0424464,-2.33124
964,0,21,-6,-1,1,-2,-21,18,0.0395508,0.75293,0.493164,-2.6875,-2.375,0.4375,0.99993,-0.0424464,-2.33124
964,2,-2,-8,3,1,6,-5,-10,0.0395508,0.75293,0.493164,-2.6875,-2.375,0.4375,0.99993,-0.0424464,-2.33124
979,-8,-15,3,-4,0,1,5,-8,0.0610352,0.758301,0.5,1.6875,-0.4375,-1.6875,1.00027,-0.0425104,-2.33167
979,3,27,13,1,-3,-6,2,5,0.0610352,0.758301,0.5,1.6875,-0.4375,-1.6875,1.00027,-0.0425104,-2.33167
980,-2,1,-5,-2,-3,4,6,-5,0.0610352,0.758301,0.5,1.6875,-0.4375,-1.6875,1.00027,-0.0425104,-2.33167
980,8,-17,-3,-1,-2,-3,-1,4,0.0610352,0.758301,0.5,1.6875,-0.4375,-1.6875,1.00027,-0.0425104,-2.33167
1002,-5,-22,-7,0,-1,2,-3,3,0.0605469,0.773926,0.501953,8.0625,2.25,-1.5625,1.00291,-0.0421722,-2.33138
1002,-5,13,3,1,-1,1,-8,-9,0.0605469,0.773926,0.501953,8.0625,2.25,-1.5625,1.00291,-0.0421722,-2.33138
1003,1,17,-15,-6,-4,-6,-2,-6,0.0605469,0.773926,0.501953,8.0625,2.25,-1.5625,1.00291,-0.0421722,-2.33138
1003,0,-30,-21,1,-2,-8,1,4,0.0605469,0.773926,0.501953,8.0625,2.25,-1.5625,1.00291,-0.0421722,-2.33138
1016,-1,12,15,0,2,5,0,-3,0.0400391,0.782715,0.494629,7.0625,3.5,-2.875,1.00534,-0.040683,-2.33082
1016,-4,-6,-15,-1,-2,-1,-8,1,0.0400391,0.782715,0.494629,7.0625,3.5,-2.875,1.00534,-0.040683,-2.33082
1024,0,4,4,2,1,3,6,-2,0.0400391,0.782715,0.494629,7.0625,3.5,-2.875,1.00534,-0.040683,-2.33082
1024,1,10,19,-2,-3,-1,3,3,0.0400391,0.782715,0.494629,7.0625,3.5,-2.875,1.00534,-0.040683,-2.33082
1039,5,8,-6,0,0,-5,-4,-3,0.0322266,0.773926,0.483887,0.1875,2.4375,-2.8125,1.00562,-0.0393765,-2.33069
1039,-2,-10,-4,-4,0,-9,-8,0,0.0322266,0.773926,0.483887,0.1875,2.4375,-2.8125,1.00562,-0.0393765,-2.33069
1040,2,19,6,4,4,10,3,-11,0.0322266,0.773926,0.483887,0.1875,2.4375,-2.8125,1.00562,-0.0393765,-2.33069
1040,1,-18,-6,-4,-2,1,-3,-2,0.0322266,0.773926,0.483887,0.1875,2.4375,-2.8125,1.00562,-0.0393765,-2.33069
1062,-5,-28,-16,-2,0,1,0,-1,0.0283203,0.757324,0.481445,-2.1875,1.5,-2,1.00485,-0.0383458,-2.33057
1062,-2,-8,1,-1,-2,5,-11,0,0.0283203,0.757324,0.481445,-2.1875,1.5,-2,1.00485,-0.0383458,-2.33057
1063,4,-6,-1,-1,-2,-13,-13,-8,0.0283203,0.757324,0.481445,-2.1875,1.5,-2,1.00485,-0.0383458,-2.33057
1063,-2,6,13,1,1,3,-2,8,0.0283203,0.757324,0.481445,-2.1875,1.5,-2,1.00485,-0.0383458,-2.33057
1076,1,19,-10,-2,0,-1,3,1,0.0297852,0.740723,0.482422,3.1875,0.6875,-2.5625,1.00566,-0.0373844,-2.33075
1076,5,13,13,2,1,1,1,-4,0.0297852,0.740723,0.482422,3.1875,0.6875,-2.5625,1.00566,-0.0373844,-2.33075
1084,-3,-47,-25,-6,-4,-6,0,2,0.0297852,0.740723,0.482422,3.1875,0.6875,-2.5625,1.00566,-0.0373844,-2.33075
1084,-6,-15,-5,0,-2,2,15,-4,0.0297852,0.740723,0.482422,3.1875,0.6875,-2.5625,1.00566,-0.0373844,-2.33075
1099,-2,8,-1,-4,-7,9,-11,-11,0.0400391,0.755859,0.489258,7.25,1.375,-4.6875,1.00802,-0.0359372,-2.33114
1099,0,-5,-5,3,6,-12,-19,-5,0.0400391,0.755859,0.489258,7.25,1.375,-4.6875,1.00802,-0.0359372,-2.33114
1100,5,5,15,1,1,5,8,8,0.0400391,0.755859,0.489258,7.25,1.375,-4.6875,1.00802,-0.0359372,-2.33114
1100,-8,12,8,-2,0,-8,-3,-8,0.0400391,0.755859,0.489258,7.25,1.375,-4.6875,1.00802,-0.0359372,-2.33114
1122,1,0,8,-1,1,5,4,2,0.0336914,0.779785,0.48291,9.375,2.6875,-4,1.01126,-0.0343237,-2.33111
1122,-1,-68,-27,-5,-5,-2,7,5,0.0336914,0.779785,0.48291,9.375,2.6875,-4,1.01126,-0.0343237,-2.33111
1129,-9,15,1,-1,-3,-4,-4,-9,0.0200195,0.805176,0.490234,7.125,4.1875,-3.5625,1.01412,-0.0322818,-2.33055
1129,0,-4,-2,-4,-1,-1,-4,-4,0.0200195,0.805176,0.490234,7.125,4.1875,-3.5625,1.01412,-0.0322818,-2.33055
1145,-1,-4,7,0,-2,-14,4,1,0.0200195,0.805176,0.490234,7.125,4.1875,-3.5625,1.01412,-0.0322818,-2.33055
1145,0,5,2,0,0,8,1,2,0.0200195,0.805176,0.490234,7.125,4.1875,-3.5625,1.01412,-0.0322818,-2.33055
1147,3,-13,-7,1,-2,-2,0,8,0.0234375,0.774414,0.474609,2.25,3.875,-3.5,1.01502,-0.0303886,-2.33002
1147,4,15,-2,-1,-2,-1,5,2,0.0234375,0.774414,0.474609,2.25,3.875,-3.5,1.01502,-0.0303886,-2.33002
1167,-7,-9,-5,-1,-3,-6,-7,-5,0.0234375,0.774414,0.474609,2.25,3.875,-3.5,1.01502,-0.0303886,-2.33002
1167,0,12,3,-1,-3,-6,2,1,0.0234375,0.774414,0.474609,2.25,3.875,-3.5,1.01502,-0.0303886,-2.33002
1169,-6,-5,-1,1,4,10,2,-6,0.0234375,0.757324,0.46582,-1.4375,3.0625,-3.0625,1.01452,-0.0288917,-2.32959
1169,1,-4,4,2,-2,-11,-8,-5,0.0234375,0.757324,0.46582,-1.4375,3.0625,-3.0625,1.01452,-0.0288917,-2.32959
1181,5,9,-6,-3,1,4,1,9,0.0234375,0.757324,0.46582,-1.4375,3.0625,-3.0625,1.01452,-0.0288917,-2.32959
1181,-5,-31,2,0,0,3,1,-6,0.0234375,0.757324,0.46582,-1.4375,3.0625,-3.0625,1.01452,-0.0288917,-2.32959
1189,-2,-17,-9,-3,-2,-12,15,3,0.0224609,0.758789,0.472656,0.6875,4,-2.0625,1.01472,-0.0274497,-2.32884
1189,-1,-2,-3,-3,-3,1,-10,5,0.0224609,0.758789,0.472656,0.6875,4,-2.0625,1.01472,-0.0274497,-2.32884
1205,3,6,3,1,1,4,12,-4,0.0224609,0.758789,0.472656,0.6875,4,-2.0625,1.01472,-0.0274497,-2.32884
1205,-4,16,1,-2,-4,-1,4,-5,0.0224609,0.758789,0.472656,0.6875,4,-2.0625,1.01472,-0.0274497,-2.32884
1207,-2,-1,6,0,-3,3,-2,-10,0.019043,0.750977,0.475098,8.6875,4.625,-1.5625,1.01754,-0.0260905,-2.32778
1207,-2,2,-2,-2,-1,-8,-17,-3,0.019043,0.750977,0.475098,8.6875,4.625,-1.5625,1.01754,-0.0260905,-2.32778
1227,0,-10,-5,0,3,-4,0,4,0.019043,0.750977,0.475098,8.6875,4.625,-1.5625,1.01754,-0.0260905,-2.32778
1227,2,22,0,1,1,5,-1,0,0.019043,0.750977,0.475098,8.6875,4.625,-1.5625,1.01754,-0.0260905,-2.32778
1228,-3,-20,11,-3,-4,-6,-5,9,0.00976562,0.783691,0.478516,7.5625,5.0625,-2,1.02022,-0.0242454,-2.32662
1228,-2,2,-6,1,2,6,10,-3,0.00976562,0.783691,0.478516,7.5625,5.0625,-2,1.02022,-0.0242454,-2.32662
1250,-4,1,-2,-3,-1,9,-2,-1,0.00976562,0.783691,0.478516,7.5625,5.0625,-2,1.02022,-0.0242454,-2.32662
1250,-1,7,-2,-5,-4,-10,-9,0,0.00976562,0.783691,0.478516,7.5625,5.0625,-2,1.02022,-0.0242454,-2.32662
1251,3,20,-2,0,1,1,-1,-3,0.0107422,0.797852,0.467773,2.75,5.1875,-1.125,1.02152,-0.022724,-2.32522
1251,4,4,8,2,-5,-15,3,1,0.0107422,0.797852,0.467773,2.75,5.1875,-1.125,1.02152,-0.022724,-2.32522
1265,-3,-6,-3,2,1,11,4,-10,0.0107422,0.797852,0.467773,2.75,5.1875,-1.125,1.02152,-0.022724,-2.32522
1265,4,32,1,2,1,3,7,7,0.0107422,0.797852,0.467773,2.75,5.1875,-1.125,1.02152,-0.022724,-2.32522
1266,-5,-17,-4,-3,-2,-1,-5,-3,0.0126953,0.778809,0.466309,-1.75,5.375,0.75,1.02106,-0.0217952,-2.32352
1266,-7,-64,-36,-3,-3,-6,5,-1,0.0126953,0.778809,0.466309,-1.75,5.375,0.75,1.02106,-0.0217952,-2.32352
1287,0,-7,6,-2,-12,-24,-15,0,0.0126953,0.778809,0.466309,-1.75,5.375,0.75,1.02106,-0.0217952,-2.32352
1287,1,10,11,-1,1,1,-23,-4,0.0126953,0.778809,0.466309,-1.75,5.375,0.75,1.02106,-0.0217952,-2.32352
1289,2,33,8,3,2,0,9,1,0.00732422,0.760742,0.462402,-0.9375,4.4375,1.5,1.02085,-0.0211046,-2.32193
1289,-2,11,7,0,0,-5,-1,-3,0.00732422,0.760742,0.462402,-0.9375,4.4375,1.5,1.02085,-0.0211046,-2.32193
1302,1,-8,-10,1,-1,1,3,0,0.00732422,0.760742,0.462402,-0.9375,4.4375,1.5,1.02085,-0.0211046,-2.32193
1302,4,-7,-3,0,-2,-6,-6,1,0.00732422,0.760742,0.462402,-0.9375,4.4375,1.5,1.02085,-0.0211046,-2.32193
1316,2,25,4,0,1,7,0,-11,0.0283203,0.770996,0.470703,3.4375,4.1875,0.8125,1.02203,-0.0208587,-2.32058
1316,-7,-41,-10,-3,0,14,3,-6,0.0283203,0.770996,0.470703,3.4375,4.1875,0.8125,1.02203,-0.0208587,-2.32058
1324,-4,0,-2,1,0,-5,-7,-4,0.0283203,0.770996,0.470703,3.4375,4.1875,0.8125,1.02203,-0.0208587,-2.32058
1324,-3,-8,-1,-5,-5,-6,9,-7,0.0283203,0.770996,0.470703,3.4375,4.1875,0.8125,1.02203,-0.0208587,-2.32058
1326,4,11,2,-1,-4,-6,-11,1,0.0356445,0.779297,0.480957,6.4375,6.25,0.5,1.0241,-0.0203308,-2.31852
1326,-7,13,8,-1,3,4,6,-3,0.0356445,0.779297,0.480957,6.4375,6.25,0.5,1.0241,-0.0203308,-2.31852
1347,4,14,2,0,-1,15,-19,2,0.0356445,0.779297,0.480957,6.4375,6.25,0.5,1.0241,-0.0203308,-2.31852
1347,-6,-22,-5,-1,-1,-6,23,-3,0.0356445,0.779297,0.480957,6.4375,6.25,0.5,1.0241,-0.0203308,-2.31852
1349,4,-11,-16,0,9,16,1,21,0.0107422,0.786621,0.475098,5.125,7.5625,0.25,1.02593,-0.0188094,-2.31617
1349,1,39,26,2,-2,3,-8,-9,0.0107422,0.786621,0.475098,5.125,7.5625,0.25,1.02593,-0.0188094,-2.31617
1362,-7,-55,-31,-12,-11,-21,-5,-2,0.0107422,0.786621,0.475098,5.125,7.5625,0.25,1.02593,-0.0188094,-2.31617
1362,0,-1,-3,4,1,20,0,3,0.0107422,0.786621,0.475098,5.125,7.5625,0.25,1.02593,-0.0188094,-2.31617
1367,2,3,2,2,3,-1,3,1,0.0170898,0.788574,0.48584,2.75,8.625,-0.25,1.02663,-0.0171582,-2.3137
1367,-2,11,1,2,3,10,4,-1,0.0170898,0.788574,0.48584,2.75,8.625,-0.25,1.02663,-0.0171582,-2.3137
1385,-3,14,3,-1,-1,-8,-3,-7,0.0170898,0.788574,0.48584,2.75,8.625,-0.25,1.02663,-0.0171582,-2.3137
1385,5,-7,-6,-3,-4,-9,-7,0,0.0170898,0.788574,0.48584,2.75,8.625,-0.25,1.02663,-0.0171582,-2.3137
1386,-9,-3,-1,-4,-18,-24,25,-9,0.0302734,0.780273,0.473633,4.9375,11.0625,-2.625,1.02817,-0.0148772,-2.31085
1386,1,-1,-2,1,15,25,0,12,0.0302734,0.780273,0.473633,4.9375,11.0625,-2.625,1.02817,-0.0148772,-2.31085
1407,4,14,8,0,2,-18,10,1,0.0302734,0.780273,0.473633,4.9375,11.0625,-2.625,1.02817,-0.0148772,-2.31085
1407,-8,-24,-3,-2,-1,8,-8,-3,0.0302734,0.780273,0.473633,4.9375,11.0625,-2.625,1.02817,-0.0148772,-2.31085
1408,1,15,0,-1,-8,-1,-3,0,0.0268555,0.804199,0.462891,6.75,11.875,-3.125,1.03099,-0.012178,-2.30783
1408,0,-3,-1,1,-3,3,-21,3,0.0268555,0.804199,0.462891,6.75,11.875,-3.125,1.03099,-0.012178,-2.30783
1430,-1,11,7,1,7,9,55,7,0.0268555,0.804199,0.462891,6.75,11.875,-3.125,1.03099,-0.012178,-2.30783
1430,5,14,3,-1,13,19,8,0,0.0268555,0.804199,0.462891,6.75,11.875,-3.125,1.03099,-0.012178,-2.30783
1431,3,-8,1,-1,-13,-26,-14,3,0.0180664,0.809082,0.472168,6.0625,14.8125,-5.25,1.03334,-0.00819665,-2.30429
1431,-6,2,-2,-5,-18,9,5,-9,0.0180664,0.809082,0.472168,6.0625,14.8125,-5.25,1.03334,-0.00819665,-2.30429
1452,1,29,2,4,12,45,-23,8,0.0180664,0.809082,0.472168,6.0625,14.8125,-5.25,1.03334,-0.00819665,-2.30429
1452,-2,-10,-5,-4,-14,-1,-7,1,0.0180664,0.809082,0.472168,6.0625,14.8125,-5.25,1.03334,-0.00819665,-2.30429
1453,5,-6,5,7,32,51,22,3,-0.00683594,0.808594,0.481445,5.3125,16.8125,-8.6875,1.03511,-0.00235591,-2.30082
1453,2,3,1,-1,-5,17,5,1,-0.00683594,0.808594,0.481445,5.3125,16.8125,-8.6875,1.03511,-0.00235591,-2.30082
1469,-3,12,6,-4,-19,-72,-26,-9,-0.00683594,0.808594,0.481445,5.3125,16.8125,-8.6875,1.03511,-0.00235591,-2.30082
1469,7,22,5,8,18,39,11,5,-0.00683594,0.808594,0.481445,5.3125,16.8125,-8.6875,1.03511,-0.00235591,-2.30082
1471,-5,15,-5,-7,-11,-22,-20,-3,-0.00390625,0.827637,0.470703,4.3125,18.0625,-12.9375,1.03694,0.00474657,-2.2977
1471,-3,-28,-1,-4,-2,-36,1,-4,-0.00390625,0.827637,0.470703,4.3125,18.0625,-12.9375,1.03694,0.00474657,-2.2977
1481,3,-7,-6,-2,-16,11,-4,0,-0.00390625,0.827637,0.470703,4.3125,18.0625,-12.9375,1.03694,0.00474657,-2.2977
1481,3,-1,7,7,24,19,21,12,-0.00390625,0.827637,0.470703,4.3125,18.0625,-12.9375,1.03694,0.00474657,-2.2977
1490,-7,12,2,-2,15,32,-12,-20,0.00341797,0.807617,0.470703,11.375,21.4375,-15.1875,1.04104,0.0126579,-2.29396
1490,2,-16,-14,-7,-27,-47,-14,7,0.00341797,0.807617,0.470703,11.375,21.4375,-15.1875,1.04104,0.0126579,-2.29396
1505,0,-10,-3,-1,13,27,6,5,0.00341797,0.807617,0.470703,11.375,21.4375,-15.1875,1.04104,0.0126579,-2.29396
1505,-10,-12,-1,0,-23,-62,-5,-3,0.00341797,0.807617,0.470703,11.375,21.4375,-15.1875,1.04104,0.0126579,-2.29396
1507,-3,5,3,0,-3,-14,-7,-3,-0.019043,0.791992,0.475586,6.25,23,-15.125,1.04301,0.021251,-2.28966
1507,2,6,1,2,16,29,33,0,-0.019043,0.791992,0.475586,6.25,23,-15.125,1.04301,0.021251,-2.28966
1535,3,-8,-3,-1,-17,-35,-16,2,-0.019043,0.791992,0.475586,6.25,23,-15.125,1.04301,0.021251,-2.28966
1535,-2,4,-2,-1,34,67,12,2,-0.019043,0.791992,0.475586,6.25,23,-15.125,1.04301,0.021251,-2.28966
1536,-8,-12,-5,-6,-29,-28,6,-7,-0.0151367,0.811035,0.452637,-7.1875,22.3125,-12.375,1.04107,0.0286429,-2.28506
1536,-1,0,-2,-2,14,21,-53,1,-0.0151367,0.811035,0.452637,-7.1875,22.3125,-12.375,1.04107,0.0286429,-2.28506
1540,7,-3,7,9,18,12,39,42,-0.0151367,0.811035,0.452637,-7.1875,22.3125,-12.375,1.04107,0.0286429,-2.28506
1540,0,0,-6,-9,-32,-60,-33,-24,-0.0151367,0.811035,0.452637,-7.1875,22.3125,-12.375,1.04107,0.0286429,-2.28506
1549,9,31,9,8,43,70,49,14,-0.00341797,0.828613,0.472656,-18.0625,22.4375,-11.25,1.03525,0.0352467,-2.28025
1549,-18,-41,-4,-6,-23,-27,-8,-14,-0.00341797,0.828613,0.472656,-18.0625,22.4375,-11.25,1.03525,0.0352467,-2.28025
1565,-3,14,8,-2,4,-16,-11,-26,-0.00341797,0.828613,0.472656,-18.0625,22.4375,-11.25,1.03525,0.0352467,-2.28025
1565,-11,-16,-6,-2,0,1,17,9,-0.00341797,0.828613,0.472656,-18.0625,22.4375,-11.25,1.03525,0.0352467,-2.28025
1566,9,-16,2,-2,-18,-57,-63,19,-0.0234375,0.790039,0.475586,-14.8125,23.5625,-10.0625,1.0303,0.0421411,-2.27501
1566,14,17,4,6,11,30,25,16,-0.0234375,0.790039,0.475586,-14.8125,23.5625,-10.0625,1.0303,0.0421411,-2.27501
1587,-3,3,-3,-2,-9,-43,2,-32,-0.0234375,0.790039,0.475586,-14.8125,23.5625,-10.0625,1.0303,0.0421411,-2.27501
1587,1,-7,-3,-5,-24,-38,-29,-8,-0.0234375,0.790039,0.475586,-14.8125,23.5625,-10.0625,1.0303,0.0421411,-2.27501
1589,-8,-13,-6,2,24,90,31,-16,-0.0634766,0.755371,0.46582,-16.0625,21.875,-10.5625,1.02474,0.0497127,-2.27039
1589,-3,13,4,6,2,-9,-14,9,-0.0634766,0.755371,0.46582,-16.0625,21.875,-10.5625,1.02474,0.0497127,-2.27039
1601,-10,-20,-5,-6,-35,-51,0,16,-0.0634766,0.755371,0.46582,-16.0625,21.875,-10.5625,1.02474,0.0497127,-2.27039
1601,8,11,0,5,57,47,-4,18,-0.0634766,0.755371,0.46582,-16.0625,21.875,-10.5625,1.02474,0.0497127,-2.27039
1610,-5,-7,-1,-2,-3,-13,-5,-37,-0.0356445,0.778809,0.457031,-21.875,18.9375,-9.25,1.01796,0.0555127,-2.26629
1610,9,3,-3,-8,-32,-95,-22,-16,-0.0356445,0.778809,0.457031,-21.875,18.9375,-9.25,1.01796,0.0555127,-2.26629
1640,0,5,1,9,29,39,-27,6,-0.0356445,0.778809,0.457031,-21.875,18.9375,-9.25,1.01796,0.0555127,-2.26629
1640,-15,-4,-8,-14,-52,-72,28,-17,-0.0356445,0.778809,0.457031,-21.875,18.9375,-9.25,1.01796,0.0555127,-2.26629
1641,5,-6,-2,-4,-10,-23,11,-8,-0.034668,0.782715,0.472656,-26.375,18.3125,-10.125,1.00928,0.061412,-2.26273
1641,1,14,4,12,81,127,58,22,-0.034668,0.782715,0.472656,-26.375,18.3125,-10.125,1.00928,0.061412,-2.26273
1654,-1,-18,-2,-10,-34,-65,-12,20,-0.034668,0.782715,0.472656,-26.375,18.3125,-10.125,1.00928,0.061412,-2.26273
1654,-3,2,0,4,30,67,-1,-24,-0.034668,0.782715,0.472656,-26.375,18.3125,-10.125,1.00928,0.061412,-2.26273
1670,-4,-15,-7,-3,-4,-17,-22,8,-0.0922852,0.774902,0.51123,-18.5,20.6875,-12,1.00269,0.0694821,-2.25884
1670,-3,8,-5,-11,-51,-107,6,-13,-0.0922852,0.774902,0.51123,-18.5,20.6875,-12,1.00269,0.0694821,-2.25884
1670,8,8,0,5,18,73,53,0,-0.0922852,0.774902,0.51123,-18.5,20.6875,-12,1.00269,0.0694821,-2.25884
1670,11,-6,-1,3,17,35,20,58,-0.0922852,0.774902,0.51123,-18.5,20.6875,-12,1.00269,0.0694821,-2.25884
1673,-11,-8,-4,-3,-18,-43,-6,-18,-0.128906,0.775879,0.499512,-17.5625,20.3125,-17.0625,0.996835,0.0795924,-2.25617
1673,-4,-6,-9,-8,-16,-58,-13,-4,-0.128906,0.775879,0.499512,-17.5625,20.3125,-17.0625,0.996835,0.0795924,-2.25617
1701,-5,-2,-2,-3,-7,12,-47,-24,-0.128906,0.775879,0.499512,-17.5625,20.3125,-17.0625,0.996835,0.0795924,-2.25617
1701,-15,-3,-4,-9,-16,-2,54,31,-0.128906,0.775879,0.499512,-17.5625,20.3125,-17.0625,0.996835,0.0795924,-2.25617
1702,11,18,3,1,9,17,-63,-56,-0.132324,0.754883,0.475098,-22.625,16.6875,-17.6875,0.989551,0.089233,-2.25455
1702,1,-3,-1,2,-1,-13,41,16,-0.132324,0.754883,0.475098,-22.625,16.6875,-17.6875,0.989551,0.089233,-2.25455
1707,-19,-1,-2,-4,10,-5,-80,-90,-0.132324,0.754883,0.475098,-22.625,16.6875,-17.6875,0.989551,0.089233,-2.25455
1707,-1,13,1,-4,-43,-32,29,-16,-0.132324,0.754883,0.475098,-22.625,16.6875,-17.6875,0.989551,0.089233,-2.25455
1709,4,-5,1,6,-2,51,-5,5,-0.0883789,0.706543,0.494141,-25.4375,13.0625,-14.625,0.980405,0.0961527,-2.25361
1709,13,-7,-3,4,70,124,-7,14,-0.0883789,0.706543,0.494141,-25.4375,13.0625,-14.625,0.980405,0.0961527,-2.25361
1721,-15,-5,0,2,12,-16,54,16,-0.0883789,0.706543,0.494141,-25.4375,13.0625,-14.625,0.980405,0.0961527,-2.25361
1721,-7,12,5,-2,-29,-83,9,-14,-0.0883789,0.706543,0.494141,-25.4375,13.0625,-14.625,0.980405,0.0961527,-2.25361
1737,-11,-15,-7,-4,-9,9,22,-64,-0.0849609,0.708984,0.507324,-17.25,13.0625,-14.9375,0.973835,0.102941,-2.25282
1737,-13,-3,0,-8,5,8,-59,-18,-0.0849609,0.708984,0.507324,-17.25,13.0625,-14.9375,0.973835,0.102941,-2.25282
1744,14,23,10,3,-11,13,35,-1,-0.0849609,0.708984,0.507324,-17.25,13.0625,-14.9375,0.973835,0.102941,-2.25282
1744,-6,-42,-16,0,20,14,-39,-39,-0.0849609,0.708984,0.507324,-17.25,13.0625,-14.9375,0.973835,0.102941,-2.25282
1751,-6,15,3,-1,21,10,36,86,-0.115723,0.729492,0.498047,-13,11.875,-14,0.969404,0.109707,-2.25209
1751,1,-3,-2,-2,-26,-28,-15,-17,-0.115723,0.729492,0.498047,-13,11.875,-14,0.969404,0.109707,-2.25209
1767,-12,10,-6,1,-21,2,-7,-34,-0.115723,0.729492,0.498047,-13,11.875,-14,0.969404,0.109707,-2.25209
1767,5,4,4,8,51,70,3,-9,-0.115723,0.729492,0.498047,-13,11.875,-14,0.969404,0.109707,-2.25209
1769,7,13,-1,-5,-5,-15,2,-5,-0.134277,0.70459,0.484863,-15,7.375,-10.6875,0.96426,0.115105,-2.25199
1769,2,3,-2,-3,-40,-64,8,-10,-0.134277,0.70459,0.484863,-15,7.375,-10.6875,0.96426,0.115105,-2.25199
1789,-11,-3,5,5,29,59,6,6,-0.134277,0.70459,0.484863,-15,7.375,-10.6875,0.96426,0.115105,-2.25199
1789,17,11,2,-1,-41,-92,-18,35,-0.134277,0.70459,0.484863,-15,7.375,-10.6875,0.96426,0.115105,-2.25199
1791,0,-5,-2,3,33,99,4,-9,-0.114746,0.675293,0.503418,-17.5,3.8125,-8,0.957494,0.118455,-2.25258
1791,-5,30,10,3,-4,-64,-11,1,-0.114746,0.675293,0.503418,-17.5,3.8125,-8,0.957494,0.118455,-2.25258
1804,-5,-44,-10,-5,-1,-16,-18,-29,-0.114746,0.675293,0.503418,-17.5,3.8125,-8,0.957494,0.118455,-2.25258
1804,-13,-58,-8,-2,-25,-37,-51,11,-0.114746,0.675293,0.503418,-17.5,3.8125,-8,0.957494,0.118455,-2.25258
1812,5,-13,-4,1,32,22,-1,22,-0.120605,0.651855,0.527344,-8.25,4.25,-4.875,0.953463,0.121162,-2.25249
1812,19,5,6,-1,-39,-15,-63,71,-0.120605,0.651855,0.527344,-8.25,4.25,-4.875,0.953463,0.121162,-2.25249
1835,21,10,2,2,23,51,3,43,-0.120605,0.651855,0.527344,-8.25,4.25,-4.875,0.953463,0.121162,-2.25249
1835,13,30,12,7,8,-19,-29,14,-0.120605,0.651855,0.527344,-8.25,4.25,-4.875,0.953463,0.121162,-2.25249
1836,-9,-3,-1,-2,-36,-111,4,-18,-0.131348,0.650879,0.527344,-5.25,5.625,0.8125,0.950564,0.122775,-2.25093
1836,-1,-3,1,7,15,42,86,32,-0.131348,0.650879,0.527344,-5.25,5.625,0.8125,0.950564,0.122775,-2.25093
1850,18,14,0,-3,6,2,-16,35,-0.131348,0.650879,0.527344,-5.25,5.625,0.8125,0.950564,0.122775,-2.25093
1850,6,0,-3,-1,28,67,12,-25,-0.131348,0.650879,0.527344,-5.25,5.625,0.8125,0.950564,0.122775,-2.25093
1856,-11,-2,3,-6,-35,-78,-25,-20,-0.125,0.702148,0.49707,-9.3125,2.25,6.8125,0.94771,0.121817,-2.24888
1856,-19,-17,-14,-7,10,29,-7,-41,-0.125,0.702148,0.49707,-9.3125,2.25,6.8125,0.94771,0.121817,-2.24888
1865,5,1,-6,-6,-3,12,20,21,-0.125,0.702148,0.49707,-9.3125,2.25,6.8125,0.94771,0.121817,-2.24888
1865,17,34,2,0,-7,-7,82,52,-0.125,0.702148,0.49707,-9.3125,2.25,6.8125,0.94771,0.121817,-2.24888
1866,-18,-34,-8,-1,-6,-13,-10,13,-0.124023,0.645996,0.492676,-8.5,0.6875,15.0625,0.944672,0.118328,-2.24553
1866,2,7,-1,0,0,-32,-40,-27,-0.124023,0.645996,0.492676,-8.5,0.6875,15.0625,0.944672,0.118328,-2.24553
1889,4,0,-3,8,32,48,79,30,-0.124023,0.645996,0.492676,-8.5,0.6875,15.0625,0.944672,0.118328,-2.24553
1889,16,28,8,-4,-12,-16,-95,65,-0.124023,0.645996,0.492676,-8.5,0.6875,15.0625,0.944672,0.118328,-2.24553
1889,-4,4,-7,-1,47,40,5,42,-0.112305,0.609863,0.51709,-1.9375,-3.625,17.0625,0.942816,0.113265,-2.24325
1889,0,9,-1,-3,-17,-19,4,-17,-0.112305,0.609863,0.51709,-1.9375,-3.625,17.0625,0.942816,0.113265,-2.24325
1918,3,-23,-3,-4,-34,-42,21,13,-0.112305,0.609863,0.51709,-1.9375,-3.625,17.0625,0.942816,0.113265,-2.24325
1918,0,-4,0,4,50,68,-5,-22,-0.112305,0.609863,0.51709,-1.9375,-3.625,17.0625,0.942816,0.113265,-2.24325
1932,-29,-19,-14,-13,-88,-128,-75,-32,-0.0908203,0.68457,0.54834,0.0625,-6.75,24.4375,0.942119,0.10499,-2.24021
1932,3,-15,-8,-2,13,23,31,5,-0.0908203,0.68457,0.54834,0.0625,-6.75,24.4375,0.942119,0.10499,-2.24021
1934,-4,6,4,5,30,15,-33,9,-0.0908203,0.68457,0.54834,0.0625,-6.75,24.4375,0.942119,0.10499,-2.24021
1934,-27,-3,-2,-3,-35,-18,54,-101,-0.0908203,0.68457,0.54834,0.0625,-6.75,24.4375,0.942119,0.10499,-2.24021
1936,-6,-9,-1,-7,-46,-97,-27,-71,-0.11084,0.736816,0.572754,2.3125,-3.75,24.5625,0.942625,0.0977027,-2.23623
1936,-44,-31,-6,1,57,113,9,-71,-0.11084,0.736816,0.572754,2.3125,-3.75,24.5625,0.942625,0.0977027,-2.23623
1955,-24,-11,-1,-5,-33,-81,-20,-37,-0.11084,0.736816,0.572754,2.3125,-3.75,24.5625,0.942625,0.0977027,-2.23623
1955,-12,5,0,1,40,47,36,-22,-0.11084,0.736816,0.572754,2.3125,-3.75,24.5625,0.942625,0.0977027,-2.23623
1956,18,8,4,2,6,-26,-7,-12,-0.121582,0.739746,0.574707,4.25,0.875,24.4375,0.943732,0.0918768,-2.23109
1956,9,32,3,3,2,38,44,27,-0.121582,0.739746,0.574707,4.25,0.875,24.4375,0.943732,0.0918768,-2.23109
1978,19,-13,-3,2,27,75,54,20,-0.121582,0.739746,0.574707,4.25,0.875,24.4375,0.943732,0.0918768,-2.23109
1978,3,-20,0,-2,-6,70,-23,-8,-0.121582,0.739746,0.574707,4.25,0.875,24.4375,0.943732,0.0918768,-2.23109
1979,27,13,4,2,10,50,82,52,-0.097168,0.785156,0.545898,1.5625,3.625,18.9375,0.945283,0.0875914,-2.2261
1979,-20,0,5,-2,-11,-22,-61,-52,-0.097168,0.785156,0.545898,1.5625,3.625,18.9375,0.945283,0.0875914,-2.2261
1983,1,-12,-8,-12,-32,-125,-102,59,-0.097168,0.785156,0.545898,1.5625,3.625,18.9375,0.945283,0.0875914,-2.2261
1983,7,19,4,13,49,7,-65,102,-0.097168,0.785156,0.545898,1.5625,3.625,18.9375,0.945283,0.0875914,-2.2261
1999,7,-10,-7,-9,-9,33,30,57,-0.0864258,0.813965,0.503418,4.1875,6.3125,11.3125,0.948598,0.0857302,-2.22176
1999,14,12,7,6,-29,-82,-26,-5,-0.0864258,0.813965,0.503418,4.1875,6.3125,11.3125,0.948598,0.0857302,-2.22176
2007,-5,7,-11,-18,-35,-51,-6,0,-0.0864258,0.813965,0.503418,4.1875,6.3125,11.3125,0.948598,0.0857302,-2.22176
2007,-10,-22,-6,-9,-62,-85,-18,-45,-0.0864258,0.813965,0.503418,4.1875,6.3125,11.3125,0.948598,0.0857302,-2.22176
2009,8,38,12,28,87,67,19,43,-0.0830078,0.822266,0.498535,4.875,5.75,5.75,0.952294,0.0852959,-2.21888
2009,35,-27,0,0,-21,-12,17,61,-0.0830078,0.822266,0.498535,4.875,5.75,5.75,0.952294,0.0852959,-2.21888
2047,-3,17,7,6,-27,7,52,-35,-0.0830078,0.822266,0.498535,4.875,5.75,5.75,0.952294,0.0852959,-2.21888
2047,18,15,3,9,34,45,71,-40,-0.0830078,0.822266,0.498535,4.875,5.75,5.75,0.952294,0.0852959,-2.21888
2048,-13,-13,6,6,70,65,11,16,-0.0620117,0.80957,0.50293,-0.25,5.5,0.125,0.953745,0.0858889,-2.21713
2048,-22,-10,-4,-4,35,-24,54,9,-0.0620117,0.80957,0.50293,-0.25,5.5,0.125,0.953745,0.0858889,-2.21713
2049,-7,-16,-7,-10,-7,22,22,14,-0.0620117,0.80957,0.50293,-0.25,5.5,0.125,0.953745,0.0858889,-2.21713
2049,-23,-27,-17,-13,-20,68,-23,-33,-0.0620117,0.80957,0.50293,-0.25,5.5,0.125,0.953745,0.0858889,-2.21713
2092,-2,7,6,3,-45,-54,-12,-35,-0.0698242,0.751465,0.529785,0.6875,7.3125,-2.5,0.95429,0.0877751,-2.21553
2092,-1,17,2,12,12,30,42,-29,-0.0698242,0.751465,0.529785,0.6875,7.3125,-2.5,0.95429,0.0877751,-2.21553
2093,-7,-23,2,12,108,85,47,31,-0.0698242,0.751465,0.529785,0.6875,7.3125,-2.5,0.95429,0.0877751,-2.21553
2093,-12,25,4,-11,-39,-100,-62,1,-0.0698242,0.751465,0.529785,0.6875,7.3125,-2.5,0.95429,0.0877751,-2.21553
2097,10,-20,-12,-17,-122,-106,-24,-19,-0.0966797,0.746094,0.524902,0.6875,8.5,-4.6875,0.954656,0.0911725,-2.21392
2097,4,-38,-7,10,27,-41,19,42,-0.0966797,0.746094,0.524902,0.6875,8.5,-4.6875,0.954656,0.0911725,-2.21392
2098,25,36,20,23,55,54,38,-19,-0.0966797,0.746094,0.524902,0.6875,8.5,-4.6875,0.954656,0.0911725,-2.21392
2098,19,-6,-4,-9,-60,-60,2,89,-0.0966797,0.746094,0.524902,0.6875,8.5,-4.6875,0.954656,0.0911725,-2.21392
2104,-1,-3,-5,-7,-58,-44,10,62,-0.107422,0.743652,0.492188,-1,5.75,-6.375,0.955096,0.0946668,-2.21359
2104,-3,0,8,6,20,-15,-9,-17,-0.107422,0.743652,0.492188,-1,5.75,-6.375,0.955096,0.0946668,-2.21359
2111,-37,49,11,7,-55,-59,71,42,-0.124023,0.746582,0.492188,-5.1875,0.625,-5.5,0.95395,0.0973667,-2.21446
2111,22,-2,2,13,76,95,62,110,-0.124023,0.746582,0.492188,-5.1875,0.625,-5.5,0.95395,0.0973667,-2.21446
2134,-16,-17,-8,-9,-34,-31,-67,62,-0.124023,0.746582,0.492188,-5.1875,0.625,-5.5,0.95395,0.0973667,-2.21446
2134,-22,-18,-21,-26,-48,-78,80,4,-0.124023,0.746582,0.492188,-5.1875,0.625,-5.5,0.95395,0.0973667,-2.21446
2143,35,15,3,1,30,-1,-25,-36,-0.123047,0.704102,0.503906,-9,-5.125,-5.0625,0.950534,0.098663,-2.21689
2143,-1,-2,-14,-21,-103,-71,-100,-75,-0.123047,0.704102,0.503906,-9,-5.125,-5.0625,0.950534,0.098663,-2.21689
2157,43,4,1,4,6,-19,-33,34,-0.123047,0.704102,0.503906,-9,-5.125,-5.0625,0.950534,0.098663,-2.21689
2157,16,5,11,14,-7,51,28,-5,-0.123047,0.704102,0.503906,-9,-5.125,-5.0625,0.950534,0.098663,-2.21689
2158,-32,-43,-14,-3,73,103,52,-68,-0.0957031,0.679688,0.519043,-9.6875,-8.875,-2.1875,0.946233,0.0976786,-2.21982
2158,-6,30,3,-6,33,16,-96,-57,-0.0957031,0.679688,0.519043,-9.6875,-8.875,-2.1875,0.946233,0.0976786,-2.21982
2164,-16,-37,-4,-15,-91,-97,-93,-44,-0.0957031,0.679688,0.519043,-9.6875,-8.875,-2.1875,0.946233,0.0976786,-2.21982
2164,-3,-4,0,16,68,55,7,-42,-0.0957031,0.679688,0.519043,-9.6875,-8.875,-2.1875,0.946233,0.0976786,-2.21982
2178,-29,-16,-12,0,33,59,-66,-82,-0.078125,0.684082,0.542969,-5.75,-10.25,-1.1875,0.943107,0.0958395,-2.22315
2178,-11,-10,7,7,36,52,2,-57,-0.078125,0.684082,0.542969,-5.75,-10.25,-1.1875,0.943107,0.0958395,-2.22315
2187,-6,19,2,2,-25,-25,58,-59,-0.078125,0.684082,0.542969,-5.75,-10.25,-1.1875,0.943107,0.0958395,-2.22315
2187,-4,2,0,5,-21,-4,3,19,-0.078125,0.684082,0.542969,-5.75,-10.25,-1.1875,0.943107,0.0958395,-2.22315
2188,21,-7,-10,-7,-12,96,44,99,-0.0712891,0.709961,0.561523,-3.1875,-8.75,1.3125,0.940806,0.0932781,-2.22547
2188,31,10,8,3,-13,-99,22,54,-0.0712891,0.709961,0.561523,-3.1875,-8.75,1.3125,0.940806,0.0932781,-2.22547
2209,-50,-5,-12,-14,15,-50,18,-31,-0.0712891,0.709961,0.561523,-3.1875,-8.75,1.3125,0.940806,0.0932781,-2.22547
2209,-5,2,6,-4,-30,-123,-47,-53,-0.0712891,0.709961,0.561523,-3.1875,-8.75,1.3125,0.940806,0.0932781,-2.22547
2210,6,-8,-8,-13,-65,-127,-32,-31,-0.0664062,0.690918,0.567871,-3.25,-5.5,1.625,0.938388,0.0913405,-2.22675
2210,19,25,0,-2,-74,4,36,-10,-0.0664062,0.690918,0.567871,-3.25,-5.5,1.625,0.938388,0.0913405,-2.22675
2224,18,4,10,7,-3,-8,26,22,-0.0664062,0.690918,0.567871,-3.25,-5.5,1.625,0.938388,0.0913405,-2.22675
2224,14,35,5,6,45,112,-34,-25,-0.0664062,0.690918,0.567871,-3.25,-5.5,1.625,0.938388,0.0913405,-2.22675
2230,-8,-66,0,0,45,10,43,14,-0.0478516,0.721191,0.551758,-3.125,-2.5,1,0.936791,0.0897176,-2.22722
2230,-24,-20,-5,-11,-20,-59,18,3,-0.0478516,0.721191,0.551758,-3.125,-2.5,1,0.936791,0.0897176,-2.22722
2255,-49,-12,-15,-14,-43,-64,-95,-106,-0.0478516,0.721191,0.551758,-3.125,-2.5,1,0.936791,0.0897176,-2.22722
2255,28,4,0,-9,-28,-44,-15,68,-0.0478516,0.721191,0.551758,-3.125,-2.5,1,0.936791,0.0897176,-2.22722
2256,9,15,11,8,-9,-61,-93,-14,-0.0625,0.758301,0.53418,2.375,-1.25,-1.1875,0.93808,0.0892449,-2.22787
2256,-10,10,-4,-3,46,57,-41,-10,-0.0625,0.758301,0.53418,2.375,-1.25,-1.1875,0.93808,0.0892449,-2.22787
2277,24,3,7,6,-45,-47,-39,-45,-0.0625,0.758301,0.53418,2.375,-1.25,-1.1875,0.93808,0.0892449,-2.22787
2277,-12,-43,-16,-7,12,13,19,101,-0.0625,0.758301,0.53418,2.375,-1.25,-1.1875,0.93808,0.0892449,-2.22787
2279,6,24,9,2,-9,28,-3,34,-0.0839844,0.754395,0.53125,-1.125,-3.25,-2.4375,0.938016,0.0892994,-2.22916
2279,-27,-11,-11,-13,-92,-108,30,15,-0.0839844,0.754395,0.53125,-1.125,-3.25,-2.4375,0.938016,0.0892994,-2.22916
2284,4,46,2,14,91,80,33,-15,-0.0839844,0.754395,0.53125,-1.125,-3.25,-2.4375,0.938016,0.0892994,-2.22916
2284,-10,-15,1,1,-33,-19,-32,16,-0.0839844,0.754395,0.53125,-1.125,-3.25,-2.4375,0.938016,0.0892994,-2.22916
2299,29,21,5,-1,-15,-38,65,1,-0.0595703,0.722656,0.530273,-4.1875,-5.4375,-5.4375,0.936304,0.0892242,-2.23175
2299,-3,8,17,13,-12,38,-45,-31,-0.0595703,0.722656,0.530273,-4.1875,-5.4375,-5.4375,0.936304,0.0892242,-2.23175
2307,-31,-19,-27,-26,1,-9,-9,-20,-0.0595703,0.722656,0.530273,-4.1875,-5.4375,-5.4375,0.936304,0.0892242,-2.23175
2307,-17,-13,-3,-3,-47,-83,-35,-12,-0.0595703,0.722656,0.530273,-4.1875,-5.4375,-5.4375,0.936304,0.0892242,-2.23175
2308,-7,-27,1,-1,-21,-40,-58,27,-0.0639648,0.723633,0.547363,-2.25,-5.3125,-5.375,0.935058,0.0891548,-2.23454
2308,-21,26,-2,-7,-5,31,-39,-30,-0.0639648,0.723633,0.547363,-2.25,-5.3125,-5.375,0.935058,0.0891548,-2.23454
2330,13,-21,-4,1,7,52,66,18,-0.0639648,0.723633,0.547363,-2.25,-5.3125,-5.375,0.935058,0.0891548,-2.23454
2330,-4,-1,5,9,42,55,-55,-35,-0.0639648,0.723633,0.547363,-2.25,-5.3125,-5.375,0.935058,0.0891548,-2.23454
2331,17,-2,-5,-9,-45,-43,-34,35,-0.126465,0.721191,0.557129,0,-4,-5.625,0.934346,0.0909378,-2.23684
2331,6,0,2,0,17,1,64,-14,-0.126465,0.721191,0.557129,0,-4,-5.625,0.934346,0.0909378,-2.23684
2344,13,30,11,9,-18,-36,-2,40,-0.126465,0.721191,0.557129,0,-4,-5.625,0.934346,0.0909378,-2.23684
2344,15,-8,-2,2,-21,-45,103,63,-0.126465,0.721191,0.557129,0,-4,-5.625,0.934346,0.0909378,-2.23684
2352,12,-3,-3,0,73,90,49,-5,-0.0732422,0.708008,0.55957,-7.375,-3.875,-6,0.930904,0.0916625,-2.23914
2352,-13,-21,-10,-8,-47,-100,-65,15,-0.0732422,0.708008,0.55957,-7.375,-3.875,-6,0.930904,0.0916625,-2.23914
2368,4,-11,-4,-1,32,-10,24,46,-0.0732422,0.708008,0.55957,-7.375,-3.875,-6,0.930904,0.0916625,-2.23914
2368,-1,15,10,-3,-4,-36,-30,10,-0.0732422,0.708008,0.55957,-7.375,-3.875,-6,0.930904,0.0916625,-2.23914
2369,-2,26,-14,-13,-96,-79,-88,-20,-0.0600586,0.703613,0.543457,-5.1875,-2.0625,-4.25,0.928655,0.0918816,-2.24061
2369,-25,-33,-4,14,101,127,78,34,-0.0600586,0.703613,0.543457,-5.1875,-2.0625,-4.25,0.928655,0.0918816,-2.24061
2390,30,2,16,10,-23,44,-87,0,-0.0600586,0.703613,0.543457,-5.1875,-2.0625,-4.25,0.928655,0.0918816,-2.24061
2390,-40,-9,-9,-8,-15,-12,-16,-107,-0.0600586,0.703613,0.543457,-5.1875,-2.0625,-4.25,0.928655,0.0918816,-2.24061
2391,2,-3,-6,1,80,90,117,41,-0.105957,0.681152,0.540527,-2.0625,-1.875,-1.75,0.927192,0.0925935,-2.24159
2391,9,12,10,-1,-16,-9,101,36,-0.105957,0.681152,0.540527,-2.0625,-1.875,-1.75,0.927192,0.0925935,-2.24159
2403,-2,3,-4,-5,-48,-47,-41,3,-0.105957,0.681152,0.540527,-2.0625,-1.875,-1.75,0.927192,0.0925935,-2.24159
2403,8,-12,-13,-7,-18,-57,34,0,-0.105957,0.681152,0.540527,-2.0625,-1.875,-1.75,0.927192,0.0925935,-2.24159
2412,2,22,10,10,-11,-6,9,25,-0.0966797,0.743652,0.630859,-11.875,-1.375,-4.875,0.921669,0.0937402,-2.24314
2412,19,-2,-2,-3,-24,12,-38,-48,-0.0966797,0.743652,0.630859,-11.875,-1.375,-4.875,0.921669,0.0937402,-2.24314
2427,-24,7,-1,5,33,115,-47,-41,-0.0966797,0.743652,0.630859,-11.875,-1.375,-4.875,0.921669,0.0937402,-2.24314
2427,-12,16,10,8,63,68,60,-61,-0.0966797,0.743652,0.630859,-11.875,-1.375,-4.875,0.921669,0.0937402,-2.24314
2428,-14,5,-2,-8,-26,-46,-25,10,-0.127441,0.711914,0.529297,0.125,-2.3125,-1.75,0.921749,0.0948135,-2.24416
2428,-16,-56,-19,-20,-46,-98,-65,29,-0.127441,0.711914,0.529297,0.125,-2.3125,-1.75,0.921749,0.0948135,-2.24416
2450,20,-8,3,-3,13,-1,-5,-47,-0.127441,0.711914,0.529297,0.125,-2.3125,-1.75,0.921749,0.0948135,-2.24416
2450,-7,17,-6,-7,-58,-85,-94,-39,-0.127441,0.711914,0.529297,0.125,-2.3125,-1.75,0.921749,0.0948135,-2.24416
2451,16,24,6,5,-51,-97,-18,29,-0.0810547,0.724609,0.569336,-4.3125,-1.4375,-0.75,0.919963,0.0945175,-2.2447
2451,22,-15,1,7,35,74,-46,112,-0.0810547,0.724609,0.569336,-4.3125,-1.4375,-0.75,0.919963,0.0945175,-2.2447
2464,-32,-6,-2,-11,-33,-68,-11,-21,-0.0810547,0.724609,0.569336,-4.3125,-1.4375,-0.75,0.919963,0.0945175,-2.2447
2464,10,-6,-3,-2,-23,-59,9,12,-0.0810547,0.724609,0.569336,-4.3125,-1.4375,-0.75,0.919963,0.0945175,-2.2447
2472,-6,-21,-9,-1,66,85,34,19,-0.101562,0.697266,0.556152,-1.4375,-0.75,-1.5625,0.918985,0.095236,-2.24528
2472,-5,22,-4,-5,-91,-126,-31,-50,-0.101562,0.697266,0.556152,-1.4375,-0.75,-1.5625,0.918985,0.095236,-2.24528
2487,-5,-17,-9,-2,-8,28,30,18,-0.101562,0.697266,0.556152,-1.4375,-0.75,-1.5625,0.918985,0.095236,-2.24528
2487,-3,10,10,6,82,98,-40,44,-0.101562,0.697266,0.556152,-1.4375,-0.75,-1.5625,0.918985,0.095236,-2.24528
2489,-9,-11,5,2,-39,-51,-31,-49,-0.0722656,0.717773,0.547852,-1.5625,-1.25,-3.25,0.918384,0.0955393,-2.24628
2489,7,4,-5,4,73,103,100,20,-0.0722656,0.717773,0.547852,-1.5625,-1.25,-3.25,0.918384,0.0955393,-2.24628
2510,-2,-16,-4,-4,21,19,-57,85,-0.0722656,0.717773,0.547852,-1.5625,-1.25,-3.25,0.918384,0.0955393,-2.24628
2510,2,15,3,4,12,68,7,-41,-0.0722656,0.717773,0.547852,-1.5625,-1.25,-3.25,0.918384,0.0955393,-2.24628
2511,11,3,1,-10,-92,-84,-50,24,-0.113281,0.734863,0.531738,1,-2.25,-3.5625,0.919131,0.0965977,-2.24761
2511,18,-11,17,27,24,63,-2,-49,-0.113281,0.734863,0.531738,1,-2.25,-3.5625,0.919131,0.0965977,-2.24761
2532,29,23,5,2,-29,-78,-34,30,-0.113281,0.734863,0.531738,1,-2.25,-3.5625,0.919131,0.0965977,-2.24761
2532,-3,-28,-5,-7,10,-2,21,-15,-0.113281,0.734863,0.531738,1,-2.25,-3.5625,0.919131,0.0965977,-2.24761
2534,-3,7,-1,-12,-51,-81,-11,-18,-0.111328,0.722656,0.545898,-0.9375,-2.25,-3.875,0.918711,0.0977832,-2.24905
2534,-16,-10,-7,3,34,85,-13,-69,-0.111328,0.722656,0.545898,-0.9375,-2.25,-3.875,0.918711,0.0977832,-2.24905
2555,-10,7,9,12,60,-14,-21,-10,-0.111328,0.722656,0.545898,-0.9375,-2.25,-3.875,0.918711,0.0977832,-2.24905
2555,10,21,0,0,-37,-68,-32,35,-0.111328,0.722656,0.545898,-0.9375,-2.25,-3.875,0.918711,0.0977832,-2.24905
2556,-34,-32,-13,-7,45,94,-43,-84,-0.102539,0.716309,0.567383,-6.3125,-1.75,-3.8125,0.916096,0.098685,-2.25034
2556,-2,20,1,-6,-37,-72,-25,-42,-0.102539,0.716309,0.567383,-6.3125,-1.75,-3.8125,0.916096,0.098685,-2.25034
2570,-12,-3,0,5,10,-8,21,28,-0.102539,0.716309,0.567383,-6.3125,-1.75,-3.8125,0.916096,0.098685,-2.25034
2570,2,-9,-3,-8,-60,-38,6,-7,-0.102539,0.716309,0.567383,-6.3125,-1.75,-3.8125,0.916096,0.098685,-2.25034
2572,-19,-9,-15,-5,43,22,7,-25,-0.118164,0.698242,0.544434,0.3125,0.0625,-2.125,0.916026,0.0999776,-2.25074
2572,24,35,7,-1,-25,-75,-42,0,-0.118164,0.698242,0.544434,0.3125,0.0625,-2.125,0.916026,0.0999776,-2.25074
2584,-33,-65,-15,-16,-56,-70,-43,-63,-0.118164,0.698242,0.544434,0.3125,0.0625,-2.125,0.916026,0.0999776,-2.25074
2584,4,-16,-10,-16,-20,-63,-54,77,-0.118164,0.698242,0.544434,0.3125,0.0625,-2.125,0.916026,0.0999776,-2.25074
2593,2,-1,4,-2,-3,-17,-23,-9,-0.110352,0.715332,0.555176,0.5,0.4375,-1.5,0.916026,0.101004,-2.25097
2593,-3,11,0,-5,4,-17,-24,11,-0.110352,0.715332,0.555176,0.5,0.4375,-1.5,0.916026,0.101004,-2.25097
2607,16,17,1,9,17,113,95,54,-0.110352,0.715332,0.555176,0.5,0.4375,-1.5,0.916026,0.101004,-2.25097
2607,11,30,13,15,29,47,-47,-1,-0.110352,0.715332,0.555176,0.5,0.4375,-1.5,0.916026,0.101004,-2.25097
2608,18,-14,-4,0,-8,-27,-68,35,-0.106445,0.703613,0.546875,-0.5,-0.625,-0.8125,0.916098,0.101104,-2.25094
2608,-7,-7,1,-5,-58,-55,-83,39,-0.106445,0.703613,0.546875,-0.5,-0.625,-0.8125,0.916098,0.101104,-2.25094
2629,-28,-28,-12,-5,33,56,108,-36,-0.106445,0.703613,0.546875,-0.5,-0.625,-0.8125,0.916098,0.101104,-2.25094
2629,23,30,7,7,-3,-21,-20,26,-0.106445,0.703613,0.546875,-0.5,-0.625,-0.8125,0.916098,0.101104,-2.25094
2631,10,-11,10,14,26,11,85,7,-0.0869141,0.702637,0.541016,-1.5,-2.375,-0.75,0.915384,0.100744,-2.25174
2631,4,13,3,-2,-70,-80,66,37,-0.0869141,0.702637,0.541016,-1.5,-2.375,-0.75,0.915384,0.100744,-2.25174
2669,7,11,4,6,9,9,20,-10,-0.0869141,0.702637,0.541016,-1.5,-2.375,-0.75,0.915384,0.100744,-2.25174
2669,-7,-1,-5,-2,-1,19,-31,-72,-0.0869141,0.702637,0.541016,-1.5,-2.375,-0.75,0.915384,0.100744,-2.25174
2670,6,-13,5,6,15,12,76,50,-0.0810547,0.716309,0.547363,-0.375,-3.25,-0.5,0.91529,0.0999317,-2.25286
2670,-48,-14,-13,-15,-40,-40,-42,-64,-0.0810547,0.716309,0.547363,-0.375,-3.25,-0.5,0.91529,0.0999317,-2.25286
2671,50,34,6,1,-30,-93,-108,72,-0.0810547,0.716309,0.547363,-0.375,-3.25,-0.5,0.91529,0.0999317,-2.25286
2671,-12,-7,0,-1,-4,-30,12,24,-0.0810547,0.716309,0.547363,-0.375,-3.25,-0.5,0.91529,0.0999317,-2.25286
2674,-27,-8,-6,-2,-6,-26,-44,-75,-0.0976562,0.715332,0.574707,-1.3125,-1.8125,0.8125,0.914213,0.0994909,-2.25311
2674,18,27,1,1,38,66,27,54,-0.0976562,0.715332,0.574707,-1.3125,-1.8125,0.8125,0.914213,0.0994909,-2.25311
2689,9,7,-1,-7,-22,16,62,11,-0.0976562,0.715332,0.574707,-1.3125,-1.8125,0.8125,0.914213,0.0994909,-2.25311
2689,-14,-16,-3,-2,4,2,6,-19,-0.0976562,0.715332,0.574707,-1.3125,-1.8125,0.8125,0.914213,0.0994909,-2.25311
2691,7,3,3,5,4,24,-21,-30,-0.0927734,0.70752,0.570801,-1.4375,-1,-0.4375,0.913347,0.0994724,-2.25353
2691,-15,9,-7,3,19,38,106,33,-0.0927734,0.70752,0.570801,-1.4375,-1,-0.4375,0.913347,0.0994724,-2.25353
2703,38,-16,-2,-6,-19,-63,-124,-62,-0.0927734,0.70752,0.570801,-1.4375,-1,-0.4375,0.913347,0.0994724,-2.25353
2703,13,-10,1,2,4,17,31,47,-0.0927734,0.70752,0.570801,-1.4375,-1,-0.4375,0.913347,0.0994724,-2.25353
2720,1,9,6,4,1,-14,20,20,-0.0830078,0.718262,0.571289,-0.625,0.625,-0.1875,0.913186,0.0993985,-2.25357
2720,-18,-17,-18,-6,85,123,-17,-101,-0.0830078,0.718262,0.571289,-0.625,0.625,-0.1875,0.913186,0.0993985,-2.25357
2735,8,1,17,8,-15,-48,-63,37,-0.0830078,0.718262,0.571289,-0.625,0.625,-0.1875,0.913186,0.0993985,-2.25357
2735,-14,-19,-8,-6,-11,-12,24,-1,-0.0830078,0.718262,0.571289,-0.625,0.625,-0.1875,0.913186,0.0993985,-2.25357
2737,-5,15,1,0,14,-28,-6,3,-0.0820312,0.709961,0.55127,-0.4375,1.75,-0.8125,0.913014,0.0997879,-2.25325
2737,-10,-40,-10,-5,36,-3,-11,-25,-0.0820312,0.709961,0.55127,-0.4375,1.75,-0.8125,0.913014,0.0997879,-2.25325
2750,-11,12,0,0,-4,6,-43,-52,-0.0820312,0.709961,0.55127,-0.4375,1.75,-0.8125,0.913014,0.0997879,-2.25325
2750,-12,1,-2,-1,13,16,53,-26,-0.0820312,0.709961,0.55127,-0.4375,1.75,-0.8125,0.913014,0.0997879,-2.25325
2751,-20,1,0,4,18,24,-36,-16,-0.0654297,0.706543,0.556641,1.875,2.375,-3.125,0.913484,0.100503,-2.25326
2751,44,35,22,8,-18,-84,-86,34,-0.0654297,0.706543,0.556641,1.875,2.375,-3.125,0.913484,0.100503,-2.25326
2772,4,-15,-3,-2,-1,-6,54,-16,-0.0654297,0.706543,0.556641,1.875,2.375,-3.125,0.913484,0.100503,-2.25326
2772,-4,-10,-13,-4,23,48,10,8,-0.0654297,0.706543,0.556641,1.875,2.375,-3.125,0.913484,0.100503,-2.25326
2774,-12,8,-13,-20,-81,-76,-19,-70,-0.090332,0.708984,0.539551,0.6875,1.1875,-2.5,0.913796,0.101512,-2.25344
2774,-11,-23,-2,14,62,20,65,55,-0.090332,0.708984,0.539551,0.6875,1.1875,-2.5,0.913796,0.101512,-2.25344
2787,-6,1,5,4,24,-13,-68,51,-0.090332,0.708984,0.539551,0.6875,1.1875,-2.5,0.913796,0.101512,-2.25344
2787,9,14,7,2,-21,-64,-39,-14,-0.090332,0.708984,0.539551,0.6875,1.1875,-2.5,0.913796,0.101512,-2.25344
2789,-17,-5,-10,-13,-62,-71,-57,-22,-0.113281,0.702637,0.561035,2.25,0.875,-2.125,0.914235,0.102768,-2.25363
2789,8,-7,-6,-4,-10,53,31,37,-0.113281,0.702637,0.561035,2.25,0.875,-2.125,0.914235,0.102768,-2.25363
2810,-20,-17,5,4,38,52,5,-24,-0.113281,0.702637,0.561035,2.25,0.875,-2.125,0.914235,0.102768,-2.25363
2810,-10,27,-6,-12,-54,-106,-4,-11,-0.113281,0.702637,0.561035,2.25,0.875,-2.125,0.914235,0.102768,-2.25363
2812,14,-24,2,8,44,80,9,60,-0.112305,0.692383,0.558105,1.625,0.625,-2.0625,0.914272,0.103987,-2.25397
2812,5,18,1,-6,-38,-63,12,-5,-0.112305,0.692383,0.558105,1.625,0.625,-2.0625,0.914272,0.103987,-2.25397
2833,-14,24,-6,-3,-12,-7,52,-49,-0.112305,0.692383,0.558105,1.625,0.625,-2.0625,0.914272,0.103987,-2.25397
2833,-10,-8,-7,2,-3,20,-55,-72,-0.112305,0.692383,0.558105,1.625,0.625,-2.0625,0.914272,0.103987,-2.25397
2834,29,-9,14,5,15,15,23,107,-0.0913086,0.713379,0.54541,2.1875,0.9375,-1.5,0.915136,0.104494,-2.25394
2834,-9,2,6,5,18,30,-50,-47,-0.0913086,0.713379,0.54541,2.1875,0.9375,-1.5,0.915136,0.104494,-2.25394
2847,-12,-3,-8,-9,-5,9,76,-41,-0.0913086,0.713379,0.54541,2.1875,0.9375,-1.5,0.915136,0.104494,-2.25394
2847,31,3,10,9,43,58,-12,26,-0.0913086,0.713379,0.54541,2.1875,0.9375,-1.5,0.915136,0.104494,-2.25394
2849,6,13,-2,-3,13,-7,-34,19,-0.0913086,0.711914,0.543945,1.625,0.625,-0.375,0.915684,0.104651,-2.25382
2849,-16,-8,-1,1,-6,-7,5,-8,-0.0913086,0.711914,0.543945,1.625,0.625,-0.375,0.915684,0.104651,-2.25382
2870,19,-8,-7,-6,-35,-82,26,76,-0.0913086,0.711914,0.543945,1.625,0.625,-0.375,0.915684,0.104651,-2.25382
2870,-26,-20,1,9,21,29,-22,47,-0.0913086,0.711914,0.543945,1.625,0.625,-0.375,0.915684,0.104651,-2.25382
2871,-26,-7,2,4,49,62,9,-94,-0.0839844,0.722656,0.548828,0.0625,-0.4375,-0.8125,0.915819,0.104607,-2.25388
2871,2,1,-6,-12,-55,-91,58,29,-0.0839844,0.722656,0.548828,0.0625,-0.4375,-0.8125,0.915819,0.104607,-2.25388
2892,26,25,4,7,-1,-27,-47,17,-0.0839844,0.722656,0.548828,0.0625,-0.4375,-0.8125,0.915819,0.104607,-2.25388
2892,0,-27,-12,-10,-5,6,49,-18,-0.0839844,0.722656,0.548828,0.0625,-0.4375,-0.8125,0.915819,0.104607,-2.25388
2894,-2,9,-5,-12,-35,-47,5,61,-0.0952148,0.70752,0.54834,-0.0625,-0.1875,-0.75,0.915819,0.104607,-2.25388
2894,-35,2,-1,-2,16,16,-64,-65,-0.0952148,0.70752,0.54834,-0.0625,-0.1875,-0.75,0.915819,0.104607,-2.25388
2907,-11,-15,-8,-1,45,88,55,-70,-0.0952148,0.70752,0.54834,-0.0625,-0.1875,-0.75,0.915819,0.104607,-2.25388
2907,-15,-11,-2,-7,-17,-26,5,-2,-0.0952148,0.70752,0.54834,-0.0625,-0.1875,-0.75,0.915819,0.104607,-2.25388
2909,17,2,1,8,32,44,-28,20,-0.134277,0.699707,0.555664,0.25,-0.25,1.9375,0.915441,0.10494,-2.25354
2909,15,3,-8,-12,-34,-37,-14,-51,-0.134277,0.699707,0.555664,0.25,-0.25,1.9375,0.915441,0.10494,-2.25354
2929,-30,-5,-3,-5,-45,-64,-33,-31,-0.134277,0.699707,0.555664,0.25,-0.25,1.9375,0.915441,0.10494,-2.25354
2929,19,14,5,1,25,8,44,51,-0.134277,0.699707,0.555664,0.25,-0.25,1.9375,0.915441,0.10494,-2.25354
2931,8,19,5,0,-17,-18,41,23,-0.0913086,0.700684,0.547363,-1.5625,-0.9375,0.1875,0.91485,0.104711,-2.25381
2931,32,-13,-3,0,-7,-66,-45,83,-0.0913086,0.700684,0.547363,-1.5625,-0.9375,0.1875,0.91485,0.104711,-2.25381
2953,2,4,-4,-6,-23,30,38,69,-0.0913086,0.700684,0.547363,-1.5625,-0.9375,0.1875,0.91485,0.104711,-2.25381
2953,-1,6,-4,-1,8,17,-29,-23,-0.0913086,0.700684,0.547363,-1.5625,-0.9375,0.1875,0.91485,0.104711,-2.25381
2955,-5,6,6,5,-15,-27,-18,-8,-0.0839844,0.718262,0.553711,0.625,-0.1875,1,0.915033,0.104079,-2.25362
2955,-7,-19,-9,-6,14,25,39,36,-0.0839844,0.718262,0.553711,0.625,-0.1875,1,0.915033,0.104079,-2.25362
2966,6,7,4,8,1,-31,83,29,-0.0839844,0.718262,0.553711,0.625,-0.1875,1,0.915033,0.104079,-2.25362
2966,48,4,7,8,13,25,27,72,-0.0839844,0.718262,0.553711,0.625,-0.1875,1,0.915033,0.104079,-2.25362
2973,-20,-39,-17,-4,-22,-16,108,54,-0.0991211,0.717773,0.54834,0.8125,-0.375,0.1875,0.915033,0.104079,-2.25362
2973,14,7,3,2,2,110,-29,42,-0.0991211,0.717773,0.54834,0.8125,-0.375,0.1875,0.915033,0.104079,-2.25362
2990,-1,12,-4,-11,-26,-53,-21,35,-0.0991211,0.717773,0.54834,0.8125,-0.375,0.1875,0.915033,0.104079,-2.25362
2990,2,16,9,12,44,30,31,-30,-0.0991211,0.717773,0.54834,0.8125,-0.375,0.1875,0.915033,0.104079,-2.25362
2991,18,-3,1,-1,29,17,38,16,-0.0986328,0.726562,0.556641,1.4375,-0.5625,-1.5625,0.91555,0.104525,-2.25407
2991,1,-3,12,9,-12,-34,-29,11,-0.0986328,0.726562,0.556641,1.4375,-0.5625,-1.5625,0.91555,0.104525,-2.25407
3012,5,13,9,10,22,-61,-58,-16,-0.0986328,0.726562,0.556641,1.4375,-0.5625,-1.5625,0.91555,0.104525,-2.25407
3012,-44,-19,-19,-13,-44,-14,-16,-79,-0.0986328,0.726562,0.556641,1.4375,-0.5625,-1.5625,0.91555,0.104525,-2.25407
3013,37,24,13,22,80,118,75,51,-0.0976562,0.708496,0.553711,-0.5,-1.25,-0.9375,0.915096,0.104538,-2.25463
3013,-26,-22,1,0,-11,-45,59,28,-0.0976562,0.708496,0.553711,-0.5,-1.25,-0.9375,0.915096,0.104538,-2.25463
3027,6,-9,-2,-5,17,47,27,-9,-0.0976562,0.708496,0.553711,-0.5,-1.25,-0.9375,0.915096,0.104538,-2.25463
3027,-23,-18,-11,-13,-86,-110,44,-1,-0.0976562,0.708496,0.553711,-0.5,-1.25,-0.9375,0.915096,0.104538,-2.25463
3034,6,1,11,5,17,35,-85,-14,-0.0913086,0.697754,0.561523,2.3125,-0.5,-1.75,0.91538,0.10481,-2.25515
3034,8,34,0,-1,13,28,-2,-53,-0.0913086,0.697754,0.561523,2.3125,-0.5,-1.75,0.91538,0.10481,-2.25515
3049,-23,-26,-10,3,6,41,-36,-23,-0.0913086,0.697754,0.561523,2.3125,-0.5,-1.75,0.91538,0.10481,-2.25515
3049,55,9,2,6,4,-13,2,88,-0.0913086,0.697754,0.561523,2.3125,-0.5,-1.75,0.91538,0.10481,-2.25515
3051,-12,-3,-1,2,15,68,21,18,-0.0849609,0.703125,0.568848,2,0.625,-1,0.91557,0.104912,-2.25524
3051,23,26,11,4,-13,-62,-92,-33,-0.0849609,0.703125,0.568848,2,0.625,-1,0.91557,0.104912,-2.25524
3089,-11,5,-9,-17,-49,3,30,-94,-0.0849609,0.703125,0.568848,2,0.625,-1,0.91557,0.104912,-2.25524
3089,-14,-11,4,2,13,-16,-16,-39,-0.0849609,0.703125,0.568848,2,0.625,-1,0.91557,0.104912,-2.25524
3091,-13,19,-8,-12,3,-15,-20,-23,-0.0917969,0.712402,0.549805,1.25,1.375,-0.0625,0.915955,0.105166,-2.25486
3091,-1,20,13,10,-12,-66,-19,-26,-0.0917969,0.712402,0.549805,1.25,1.375,-0.0625,0.915955,0.105166,-2.25486
3091,16,17,-2,5,56,27,90,-3,-0.0917969,0.712402,0.549805,1.25,1.375,-0.0625,0.915955,0.105166,-2.25486
3091,-15,-4,7,-2,-3,-13,10,33,-0.0917969,0.712402,0.549805,1.25,1.375,-0.0625,0.915955,0.105166,-2.25486
3095,22,1,1,-2,-31,-44,32,-4,-0.0883789,0.72168,0.547363,2.875,0.75,-1.6875,0.917027,0.105649,-2.25494
3095,-16,-11,-8,-13,-65,-56,-15,26,-0.0883789,0.72168,0.547363,2.875,0.75,-1.6875,0.917027,0.105649,-2.25494
3110,4,3,9,17,57,37,38,72,-0.0883789,0.72168,0.547363,2.875,0.75,-1.6875,0.917027,0.105649,-2.25494
3110,18,16,10,4,25,38,-65,49,-0.0883789,0.72168,0.547363,2.875,0.75,-1.6875,0.917027,0.105649,-2.25494
3112,20,17,2,-4,-29,-81,-27,-1,-0.0776367,0.719238,0.533203,-0.125,-0.125,-1.6875,0.917409,0.105683,-2.25542
3112,-29,-8,-22,-8,0,18,7,-9,-0.0776367,0.719238,0.533203,-0.125,-0.125,-1.6875,0.917409,0.105683,-2.25542
3132,-7,-38,-2,-5,-27,-38,-100,-47,-0.0776367,0.719238,0.533203,-0.125,-0.125,-1.6875,0.917409,0.105683,-2.25542
3132,-38,-12,-4,3,26,30,-69,-82,-0.0776367,0.719238,0.533203,-0.125,-0.125,-1.6875,0.917409,0.105683,-2.25542
3134,8,-18,0,-3,-48,-7,-57,-44,-0.110352,0.720215,0.554688,1.125,-0.1875,-0.125,0.917698,0.106005,-2.25539
3134,3,10,-9,-1,79,79,38,30,-0.110352,0.720215,0.554688,1.125,-0.1875,-0.125,0.917698,0.106005,-2.25539
3147,0,7,11,3,4,2,-31,-1,-0.110352,0.720215,0.554688,1.125,-0.1875,-0.125,0.917698,0.106005,-2.25539
3147,-10,-16,-6,-10,-76,-95,61,-59,-0.110352,0.720215,0.554688,1.125,-0.1875,-0.125,0.917698,0.106005,-2.25539
3153,6,15,2,6,3,15,-34,-57,-0.0712891,0.699707,0.544922,-1.9375,-0.5625,-1.125,0.916764,0.105593,-2.25589
3153,2,5,11,9,14,12,31,-53,-0.0712891,0.699707,0.544922,-1.9375,-0.5625,-1.125,0.916764,0.105593,-2.25589
3178,-20,-2,-5,-10,-25,-19,-54,-6,-0.0712891,0.699707,0.544922,-1.9375,-0.5625,-1.125,0.916764,0.105593,-2.25589
3178,15,12,3,-5,-64,-100,-42,36,-0.0712891,0.699707,0.544922,-1.9375,-0.5625,-1.125,0.916764,0.105593,-2.25589
3179,-34,14,-5,6,38,50,-73,-63,-0.0961914,0.707031,0.555176,0.6875,0.375,0.625,0.916629,0.105638,-2.25583
3179,25,-17,-2,-4,4,4,7,39,-0.0961914,0.707031,0.555176,0.6875,0.375,0.625,0.916629,0.105638,-2.25583
3192,-24,-4,-6,-7,-26,-21,28,-2,-0.0961914,0.707031,0.555176,0.6875,0.375,0.625,0.916629,0.105638,-2.25583
3192,-2,5,-1,-1,-35,-74,-26,1,-0.0961914,0.707031,0.555176,0.6875,0.375,0.625,0.916629,0.105638,-2.25583
3194,-2,-29,-9,-2,8,1,38,1,-0.122559,0.720703,0.547852,0.625,-0.25,0.6875,0.916702,0.105738,-2.2558
3194,-12,-4,0,-1,12,6,0,-16,-0.122559,0.720703,0.547852,0.625,-0.25,0.6875,0.916702,0.105738,-2.2558
3206,-31,-41,-13,-7,-22,-59,-67,-46,-0.122559,0.720703,0.547852,0.625,-0.25,0.6875,0.916702,0.105738,-2.2558
3206,-1,16,1,-1,42,41,-72,-67,-0.122559,0.720703,0.547852,0.625,-0.25,0.6875,0.916702,0.105738,-2.2558
3220,16,-13,6,0,-29,-79,8,102,-0.078125,0.701172,0.546875,-2,-1.25,-0.25,0.915893,0.105207,-2.25617
3220,-18,-34,-16,-14,-35,-40,-61,-22,-0.078125,0.701172,0.546875,-2,-1.25,-0.25,0.915893,0.105207,-2.25617
3230,6,19,6,7,-8,8,-52,-35,-0.078125,0.701172,0.546875,-2,-1.25,-0.25,0.915893,0.105207,-2.25617
3230,-1,0,-4,-9,3,10,68,33,-0.078125,0.701172,0.546875,-2,-1.25,-0.25,0.915893,0.105207,-2.25617
3231,-33,-23,-5,3,29,19,-64,-80,-0.0776367,0.710938,0.54248,-0.4375,-1.6875,-0.5,0.915769,0.104618,-2.25677
3231,16,5,-13,-14,-22,-43,-25,42,-0.0776367,0.710938,0.54248,-0.4375,-1.6875,-0.5,0.915769,0.104618,-2.25677
3252,-35,-38,-2,-4,-50,-36,-12,-3,-0.0776367,0.710938,0.54248,-0.4375,-1.6875,-0.5,0.915769,0.104618,-2.25677
3252,-22,13,-9,3,43,50,-9,-83,-0.0776367,0.710938,0.54248,-0.4375,-1.6875,-0.5,0.915769,0.104618,-2.25677
3254,32,15,10,-1,-11,-10,-55,63,-0.100586,0.731445,0.554199,1,-1.625,-1.5625,0.916217,0.104794,-2.25756
3254,-5,7,5,2,-16,-15,-9,-17,-0.100586,0.731445,0.554199,1,-1.625,-1.5625,0.916217,0.104794,-2.25756
3266,-12,10,-10,-2,33,114,14,-73,-0.100586,0.731445,0.554199,1,-1.625,-1.5625,0.916217,0.104794,-2.25756
3266,28,6,7,0,9,1,13,86,-0.100586,0.731445,0.554199,1,-1.625,-1.5625,0.916217,0.104794,-2.25756
3275,-28,-15,-10,-14,-37,-38,49,-28,-0.0786133,0.718262,0.54834,-2.8125,-1.5625,-2.5625,0.915138,0.104668,-2.25851
3275,4,-7,4,3,-49,-37,-60,-77,-0.0786133,0.718262,0.54834,-2.8125,-1.5625,-2.5625,0.915138,0.104668,-2.25851
3290,59,36,13,18,69,76,75,105,-0.0786133,0.718262,0.54834,-2.8125,-1.5625,-2.5625,0.915138,0.104668,-2.25851
3290,-14,-22,-4,-5,-14,7,-73,-44,-0.0786133,0.718262,0.54834,-2.8125,-1.5625,-2.5625,0.915138,0.104668,-2.25851
3291,0,14,-3,-7,-33,-61,21,-33,-0.0913086,0.70166,0.558105,-0.0625,-0.375,-2.625,0.914679,0.105339,-2.25916
3291,-26,-29,-15,-16,-4,10,11,14,-0.0913086,0.70166,0.558105,-0.0625,-0.375,-2.625,0.914679,0.105339,-2.25916
3320,3,-3,2,1,3,58,38,25,-0.0913086,0.70166,0.558105,-0.0625,-0.375,-2.625,0.914679,0.105339,-2.25916
3320,0,15,2,4,-6,-2,65,42,-0.0913086,0.70166,0.558105,-0.0625,-0.375,-2.625,0.914679,0.105339,-2.25916
3322,-2,-18,-13,-12,-9,-52,22,17,-0.119629,0.713867,0.568359,2,0.75,-3,0.914958,0.106809,-2.25962
3322,-11,4,7,13,42,38,20,21,-0.119629,0.713867,0.568359,2,0.75,-3,0.914958,0.106809,-2.25962
3326,-19,-24,-11,-9,-26,-68,-49,7,-0.119629,0.713867,0.568359,2,0.75,-3,0.914958,0.106809,-2.25962
3326,8,26,3,4,26,9,36,15,-0.119629,0.713867,0.568359,2,0.75,-3,0.914958,0.106809,-2.25962
3335,-6,-6,-5,-4,-41,-64,-10,44,-0.13623,0.706543,0.560547,1.5,1.375,-2,0.915219,0.108577,-2.25975
3335,-2,-11,-12,-4,-10,-23,29,121,-0.13623,0.706543,0.560547,1.5,1.375,-2,0.915219,0.108577,-2.25975
3349,0,-8,4,-1,28,0,-20,21,-0.13623,0.706543,0.560547,1.5,1.375,-2,0.915219,0.108577,-2.25975
3349,-8,8,3,0,-33,7,23,-12,-0.13623,0.706543,0.560547,1.5,1.375,-2,0.915219,0.108577,-2.25975
3351,44,12,10,11,46,46,7,28,-0.111328,0.68457,0.562988,1.25,2.1875,-0.875,0.914943,0.109576,-2.25935
3351,20,17,13,16,40,51,55,-28,-0.111328,0.68457,0.562988,1.25,2.1875,-0.875,0.914943,0.109576,-2.25935
3373,6,14,-11,-7,-30,-5,49,-6,-0.111328,0.68457,0.562988,1.25,2.1875,-0.875,0.914943,0.109576,-2.25935
3373,4,-10,2,2,-1,-44,-71,-98,-0.111328,0.68457,0.562988,1.25,2.1875,-0.875,0.914943,0.109576,-2.25935
3374,-29,-10,-7,-4,62,79,17,108,-0.123047,0.711426,0.548828,3,1.5625,0.125,0.915996,0.11053,-2.25881
3374,-6,-30,6,5,22,4,-17,-38,-0.123047,0.711426,0.548828,3,1.5625,0.125,0.915996,0.11053,-2.25881
3386,7,18,-9,-15,-78,-119,42,-75,-0.123047,0.711426,0.548828,3,1.5625,0.125,0.915996,0.11053,-2.25881
3386,-2,-19,9,15,70,103,-42,79,-0.123047,0.711426,0.548828,3,1.5625,0.125,0.915996,0.11053,-2.25881
3395,4,13,10,6,16,25,-85,-48,-0.0922852,0.719727,0.541016,0.9375,0.5,0.75,0.916059,0.110385,-2.25889
3395,-8,43,2,-3,0,-20,-105,-54,-0.0922852,0.719727,0.541016,0.9375,0.5,0.75,0.916059,0.110385,-2.25889
3410,0,-29,0,2,-10,10,10,28,-0.0922852,0.719727,0.541016,0.9375,0.5,0.75,0.916059,0.110385,-2.25889
3410,25,5,-9,-6,-1,-28,-34,-42,-0.0922852,0.719727,0.541016,0.9375,0.5,0.75,0.916059,0.110385,-2.25889
3411,-20,11,5,2,-11,24,-6,-27,-0.0791016,0.70459,0.549316,0.6875,0.25,1,0.916125,0.109751,-2.25858
3411,-11,-7,12,10,38,40,28,-41,-0.0791016,0.70459,0.549316,0.6875,0.25,1,0.916125,0.109751,-2.25858
3433,22,42,5,-6,-39,-95,-62,12,-0.0791016,0.70459,0.549316,0.6875,0.25,1,0.916125,0.109751,-2.25858
3433,-25,-56,-12,-4,30,57,-49,24,-0.0791016,0.70459,0.549316,0.6875,0.25,1,0.916125,0.109751,-2.25858
3434,18,26,9,14,39,44,-83,9,-0.0776367,0.703125,0.556641,1.9375,0.875,0.625,0.91656,0.109248,-2.25824
3434,-4,-30,1,-2,-26,-14,69,38,-0.0776367,0.703125,0.556641,1.9375,0.875,0.625,0.91656,0.109248,-2.25824
3446,17,8,-1,-3,14,-24,-55,106,-0.0776367,0.703125,0.556641,1.9375,0.875,0.625,0.91656,0.109248,-2.25824
3446,18,-1,-1,-1,-18,-3,28,55,-0.0776367,0.703125,0.556641,1.9375,0.875,0.625,0.91656,0.109248,-2.25824
3455,-22,-1,-7,-13,-40,-29,28,-52,-0.105957,0.71875,0.558594,2.9375,1.25,1.3125,0.917491,0.109293,-2.2576
3455,40,9,0,0,-7,30,-22,98,-0.105957,0.71875,0.558594,2.9375,1.25,1.3125,0.917491,0.109293,-2.2576
3478,2,24,8,0,-18,-32,-39,60,-0.105957,0.71875,0.558594,2.9375,1.25,1.3125,0.917491,0.109293,-2.2576
3478,-32,-34,-18,-11,-45,-45,118,-11,-0.105957,0.71875,0.558594,2.9375,1.25,1.3125,0.917491,0.109293,-2.2576
3479,-1,-28,-6,-1,33,10,-46,18,-0.0966797,0.713379,0.552246,1.8125,1.1875,-0.5,0.917994,0.10955,-2.25734
3479,21,30,9,-1,5,26,-3,10,-0.0966797,0.713379,0.552246,1.8125,1.1875,-0.5,0.917994,0.10955,-2.25734
3492,-11,-10,0,3,23,65,0,-15,-0.0966797,0.713379,0.552246,1.8125,1.1875,-0.5,0.917994,0.10955,-2.25734
3492,20,25,1,-1,-68,-15,61,30,-0.0966797,0.713379,0.552246,1.8125,1.1875,-0.5,0.917994,0.10955,-2.25734
3494,24,-14,10,12,67,79,63,79,-0.0991211,0.71582,0.538574,1.625,-0.25,-0.9375,0.918654,0.109832,-2.25759
3494,14,1,-1,-2,-39,-62,23,-9,-0.0991211,0.71582,0.538574,1.625,-0.25,-0.9375,0.918654,0.109832,-2.25759
3515,7,3,-4,3,15,-1,-52,-36,-0.0991211,0.71582,0.538574,1.625,-0.25,-0.9375,0.918654,0.109832,-2.25759
3515,-1,-7,1,-5,7,-21,-13,-31,-0.0991211,0.71582,0.538574,1.625,-0.25,-0.9375,0.918654,0.109832,-2.25759
3516,-29,-1,-6,1,-22,5,8,-33,-0.111816,0.711426,0.553223,3.5,-0.5625,-0.3125,0.919764,0.110053,-2.25785
3516,6,7,-2,-9,-13,-26,-20,36,-0.111816,0.711426,0.553223,3.5,-0.5625,-0.3125,0.919764,0.110053,-2.25785
3530,-5,7,4,10,36,-18,-6,-58,-0.111816,0.711426,0.553223,3.5,-0.5625,-0.3125,0.919764,0.110053,-2.25785
3530,-9,6,-2,4,33,57,-69,76,-0.111816,0.711426,0.553223,3.5,-0.5625,-0.3125,0.919764,0.110053,-2.25785
3531,25,14,9,5,7,4,23,44,-0.0996094,0.71582,0.532715,0.875,-1.25,-0.625,0.920235,0.110062,-2.25832
3531,-49,-35,-12,-10,-26,-8,-30,-96,-0.0996094,0.71582,0.532715,0.875,-1.25,-0.625,0.920235,0.110062,-2.25832
3552,0,-2,3,10,55,105,59,-26,-0.0996094,0.71582,0.532715,0.875,-1.25,-0.625,0.920235,0.110062,-2.25832
3552,1,-3,6,0,39,59,-80,-31,-0.0996094,0.71582,0.532715,0.875,-1.25,-0.625,0.920235,0.110062,-2.25832
3553,-24,6,-10,-19,-79,-84,57,-84,-0.0917969,0.716309,0.547852,2,-1.9375,-1.0625,0.920741,0.109728,-2.25905
3553,7,-5,1,0,-25,-81,4,39,-0.0917969,0.716309,0.547852,2,-1.9375,-1.0625,0.920741,0.109728,-2.25905
3575,22,4,2,3,10,10,-18,86,-0.0917969,0.716309,0.547852,2,-1.9375,-1.0625,0.920741,0.109728,-2.25905
3575,0,23,4,-1,-22,-2,-67,-1,-0.0917969,0.716309,0.547852,2,-1.9375,-1.0625,0.920741,0.109728,-2.25905
3576,-27,-42,-9,1,8,31,33,-11,-0.0874023,0.721191,0.549805,0.8125,-1,0.0625,0.920669,0.109628,-2.25908
3576,29,31,-7,-6,-45,-34,-9,17,-0.0874023,0.721191,0.549805,0.8125,-1,0.0625,0.920669,0.109628,-2.25908
3589,0,-18,-9,-8,15,-19,-48,16,-0.0874023,0.721191,0.549805,0.8125,-1,0.0625,0.920669,0.109628,-2.25908
3589,15,8,8,5,25,-22,79,53,-0.0874023,0.721191,0.549805,0.8125,-1,0.0625,0.920669,0.109628,-2.25908
3592,21,12,-1,-2,-61,-85,-17,-36,-0.0825195,0.706055,0.543945,-0.8125,0.4375,1,0.920375,0.109108,-2.25867
3592,5,3,12,13,37,87,-16,66,-0.0825195,0.706055,0.543945,-0.8125,0.4375,1,0.920375,0.109108,-2.25867
3612,-8,3,-3,-2,-20,-13,-9,-11,-0.0825195,0.706055,0.543945,-0.8125,0.4375,1,0.920375,0.109108,-2.25867
3612,-4,-7,-15,-8,8,35,-21,-37,-0.0825195,0.706055,0.543945,-0.8125,0.4375,1,0.920375,0.109108,-2.25867
3614,-10,-2,3,-3,-20,-32,-1,49,-0.0800781,0.697266,0.55127,-0.3125,0.9375,1.5625,0.919908,0.108439,-2.2581
3614,-12,22,8,2,33,3,-38,-57,-0.0800781,0.697266,0.55127,-0.3125,0.9375,1.5625,0.919908,0.108439,-2.2581
3626,6,15,2,-5,-17,-2,49,24,-0.0800781,0.697266,0.55127,-0.3125,0.9375,1.5625,0.919908,0.108439,-2.2581
3626,-13,-9,-7,-3,-15,-33,-31,-70,-0.0800781,0.697266,0.55127,-0.3125,0.9375,1.5625,0.919908,0.108439,-2.2581
3642,-11,-22,-7,-2,-34,-71,-40,-40,-0.121582,0.699707,0.548828,1.8125,1.5,4.9375,0.920417,0.107967,-2.25666
3642,-15,25,-13,-1,44,86,21,-42,-0.121582,0.699707,0.548828,1.8125,1.5,4.9375,0.920417,0.107967,-2.25666
3649,-39,-39,-3,2,5,59,41,-86,-0.121582,0.699707,0.548828,1.8125,1.5,4.9375,0.920417,0.107967,-2.25666
3649,8,39,5,4,-22,-18,-42,30,-0.121582,0.699707,0.548828,1.8125,1.5,4.9375,0.920417,0.107967,-2.25666
3651,18,14,-4,-1,31,68,-23,43,-0.111328,0.713379,0.538574,-0.9375,-0.125,4.4375,0.920243,0.107131,-2.25566
3651,-9,-10,-3,0,-18,-39,34,14,-0.111328,0.713379,0.538574,-0.9375,-0.125,4.4375,0.920243,0.107131,-2.25566
3673,-16,-2,0,-5,-4,-41,-52,-78,-0.111328,0.713379,0.538574,-0.9375,-0.125,4.4375,0.920243,0.107131,-2.25566
3673,1,-20,-7,-9,-17,29,84,39,-0.111328,0.713379,0.538574,-0.9375,-0.125,4.4375,0.920243,0.107131,-2.25566
3674,6,23,2,-8,-9,-14,-75,-67,-0.0878906,0.713379,0.542969,-0.375,-1.5,4.1875,0.920147,0.105395,-2.25516
3674,-33,-41,-4,-1,-9,-48,0,50,-0.0878906,0.713379,0.542969,-0.375,-1.5,4.1875,0.920147,0.105395,-2.25516
3686,22,5,-1,1,2,25,61,93,-0.0878906,0.713379,0.542969,-0.375,-1.5,4.1875,0.920147,0.105395,-2.25516
3686,-1,-33,-6,-3,21,-44,14,60,-0.0878906,0.713379,0.542969,-0.375,-1.5,4.1875,0.920147,0.105395,-2.25516
3695,11,24,5,-3,-11,-2,64,25,-0.0869141,0.720703,0.557129,0.875,-2.1875,3.3125,0.920264,0.103833,-2.25521
3695,8,-34,-3,0,-13,-36,51,-15,-0.0869141,0.720703,0.557129,0.875,-2.1875,3.3125,0.920264,0.103833,-2.25521
3710,21,26,-1,7,19,28,-31,114,-0.0869141,0.720703,0.557129,0.875,-2.1875,3.3125,0.920264,0.103833,-2.25521
3710,-16,-7,4,5,43,51,-34,-61,-0.0869141,0.720703,0.557129,0.875,-2.1875,3.3125,0.920264,0.103833,-2.25521
3711,16,-32,-12,-5,6,-27,24,5,-0.0961914,0.733887,0.560059,2.3125,-0.5625,2.5,0.921201,0.103047,-2.25478
3711,-6,7,2,-1,-27,-8,13,-22,-0.0961914,0.733887,0.560059,2.3125,-0.5625,2.5,0.921201,0.103047,-2.25478
3732,-21,0,3,3,3,8,33,-95,-0.0961914,0.733887,0.560059,2.3125,-0.5625,2.5,0.921201,0.103047,-2.25478
3732,12,22,7,4,-5,1,0,29,-0.0961914,0.733887,0.560059,2.3125,-0.5625,2.5,0.921201,0.103047,-2.25478
3734,0,23,9,5,7,-18,-25,27,-0.0810547,0.740234,0.552734,1.4375,0.375,-0.4375,0.921864,0.102839,-2.25464
3734,11,-14,-6,-5,24,29,23,43,-0.0810547,0.740234,0.552734,1.4375,0.375,-0.4375,0.921864,0.102839,-2.25464
3754,12,3,-7,-12,-26,-65,-76,-3,-0.0810547,0.740234,0.552734,1.4375,0.375,-0.4375,0.921864,0.102839,-2.25464
3754,-9,2,1,-4,-35,-58,25,-28,-0.0810547,0.740234,0.552734,1.4375,0.375,-0.4375,0.921864,0.102839,-2.25464
3756,-7,-3,-6,-1,6,13,42,47,-0.0551758,0.728027,0.537109,1.5625,0.75,-1.625,0.922602,0.102561,-2.25478
3756,-17,-8,-12,-8,2,53,-36,-75,-0.0551758,0.728027,0.537109,1.5625,0.75,-1.625,0.922602,0.102561,-2.25478
3769,-16,-14,-1,-3,-24,-58,-23,-87,-0.0551758,0.728027,0.537109,1.5625,0.75,-1.625,0.922602,0.102561,-2.25478
3769,13,1,-4,-6,-7,9,86,25,-0.0551758,0.728027,0.537109,1.5625,0.75,-1.625,0.922602,0.102561,-2.25478
3771,-9,-10,-1,1,20,29,19,-4,-0.106445,0.722168,0.531738,3.25,-0.1875,-2.25,0.923989,0.103518,-2.25521
3771,22,4,-6,-2,-45,-81,11,106,-0.106445,0.722168,0.531738,3.25,-0.1875,-2.25,0.923989,0.103518,-2.25521
3792,-11,-17,-9,-4,29,66,-44,56,-0.106445,0.722168,0.531738,3.25,-0.1875,-2.25,0.923989,0.103518,-2.25521
3792,-5,-15,0,0,12,10,-18,47,-0.106445,0.722168,0.531738,3.25,-0.1875,-2.25,0.923989,0.103518,-2.25521
3793,-7,6,9,13,-24,-51,20,1,-0.127441,0.717773,0.545898,4.4375,0.0625,-2.25,0.925453,0.104943,-2.25575
3793,50,9,14,19,104,100,74,62,-0.127441,0.717773,0.545898,4.4375,0.0625,-2.25,0.925453,0.104943,-2.25575
3814,18,-5,4,-7,-59,-66,-73,-20,-0.127441,0.717773,0.545898,4.4375,0.0625,-2.25,0.925453,0.104943,-2.25575
3814,-18,-16,-9,1,32,35,-34,-87,-0.127441,0.717773,0.545898,4.4375,0.0625,-2.25,0.925453,0.104943,-2.25575
3816,-13,-4,3,-6,-26,-74,-62,-20,-0.0986328,0.716797,0.527832,0.375,-1.1875,-3.375,0.925646,0.105655,-2.25676
3816,19,14,0,-6,-18,-64,-19,16,-0.0986328,0.716797,0.527832,0.375,-1.1875,-3.375,0.925646,0.105655,-2.25676
3837,-20,-10,-1,0,-2,-19,-1,24,-0.0986328,0.716797,0.527832,0.375,-1.1875,-3.375,0.925646,0.105655,-2.25676
3837,9,14,3,2,-4,-15,39,61,-0.0986328,0.716797,0.527832,0.375,-1.1875,-3.375,0.925646,0.105655,-2.25676
3845,-16,-15,-7,-1,-2,12,-10,-79,-0.09375,0.708984,0.547852,0.1875,-1.5,-0.0625,0.925378,0.105404,-2.25726
3845,-6,-16,-1,0,-11,4,23,-60,-0.09375,0.708984,0.547852,0.1875,-1.5,-0.0625,0.925378,0.105404,-2.25726
3852,-16,-12,0,-6,-42,-9,89,26,-0.09375,0.708984,0.547852,0.1875,-1.5,-0.0625,0.925378,0.105404,-2.25726
3852,2,5,-1,-5,18,4,44,3,-0.09375,0.708984,0.547852,0.1875,-1.5,-0.0625,0.925378,0.105404,-2.25726
3854,10,13,-8,-4,38,101,49,-25,-0.0810547,0.714844,0.533203,-1.25,-3.25,-0.4375,0.924976,0.104492,-2.25818
3854,-39,7,-4,-7,-18,10,-1,-87,-0.0810547,0.714844,0.533203,-1.25,-3.25,-0.4375,0.924976,0.104492,-2.25818
3875,1,13,-3,1,-51,-69,-54,-75,-0.0810547,0.714844,0.533203,-1.25,-3.25,-0.4375,0.924976,0.104492,-2.25818
3875,6,-5,0,8,69,73,56,-5,-0.0810547,0.714844,0.533203,-1.25,-3.25,-0.4375,0.924976,0.104492,-2.25818
3877,-6,-8,-8,-13,-39,-29,-28,-29,-0.0644531,0.708496,0.538574,-0.8125,-3.125,-0.5,0.924566,0.103334,-2.25921
3877,3,16,4,0,13,16,6,-8,-0.0644531,0.708496,0.538574,-0.8125,-3.125,-0.5,0.924566,0.103334,-2.25921
3897,-9,-7,0,4,36,0,66,35,-0.0644531,0.708496,0.538574,-0.8125,-3.125,-0.5,0.924566,0.103334,-2.25921
3897,-32,0,-9,-9,-43,-40,-78,-53,-0.0644531,0.708496,0.538574,-0.8125,-3.125,-0.5,0.924566,0.103334,-2.25921
3898,-25,-17,-12,-11,-17,-34,-86,-71,-0.11377,0.720703,0.559082,0.75,-2.8125,1.5,0.924416,0.102718,-2.25969
3898,-9,-3,0,-4,-1,10,4,-59,-0.11377,0.720703,0.559082,0.75,-2.8125,1.5,0.924416,0.102718,-2.25969
3912,4,2,4,2,8,6,3,22,-0.11377,0.720703,0.559082,0.75,-2.8125,1.5,0.924416,0.102718,-2.25969
3912,-19,-10,-17,-10,-61,-103,-23,-11,-0.11377,0.720703,0.559082,0.75,-2.8125,1.5,0.924416,0.102718,-2.25969
3920,23,-4,4,11,80,127,11,89,-0.11377,0.703125,0.578125,0.125,-1.4375,1.0625,0.923535,0.102623,-2.25992
3920,2,-13,-2,-1,-30,-14,-41,29,-0.11377,0.703125,0.578125,0.125,-1.4375,1.0625,0.923535,0.102623,-2.25992
3942,1,-1,4,1,40,71,0,-25,-0.11377,0.703125,0.578125,0.125,-1.4375,1.0625,0.923535,0.102623,-2.25992
3942,19,11,18,11,24,36,-107,-66,-0.11377,0.703125,0.578125,0.125,-1.4375,1.0625,0.923535,0.102623,-2.25992
3944,-8,12,10,4,-3,-19,69,19,-0.0625,0.699219,0.544434,0.125,-0.25,-0.375,0.92348,0.102476,-2.25988
3944,-4,-3,-4,-6,-11,-16,20,39,-0.0625,0.699219,0.544434,0.125,-0.25,-0.375,0.92348,0.102476,-2.25988
3949,14,11,6,6,22,42,-30,-17,-0.0625,0.699219,0.544434,0.125,-0.25,-0.375,0.92348,0.102476,-2.25988
3949,-20,-23,-5,-5,-31,-15,15,57,-0.0625,0.699219,0.544434,0.125,-0.25,-0.375,0.92348,0.102476,-2.25988
3956,7,-22,-17,-10,-10,-35,25,61,-0.0654297,0.73291,0.523926,3.5,0.125,-1.1875,0.925265,0.1022,-2.26006
3956,-14,-21,10,5,21,8,-95,-46,-0.0654297,0.73291,0.523926,3.5,0.125,-1.1875,0.925265,0.1022,-2.26006
3972,7,24,-2,-1,-38,-104,-7,57,-0.0654297,0.73291,0.523926,3.5,0.125,-1.1875,0.925265,0.1022,-2.26006
3972,12,22,-7,-2,-13,-9,63,39,-0.0654297,0.73291,0.523926,3.5,0.125,-1.1875,0.925265,0.1022,-2.26006
3973,-18,-11,1,1,4,36,77,33,-0.120605,0.764648,0.534668,3.125,-0.375,0,0.927061,0.102629,-2.26004
3973,1,13,-3,-2,28,24,19,7,-0.120605,0.764648,0.534668,3.125,-0.375,0,0.927061,0.102629,-2.26004
3994,8,-7,-1,-4,-1,16,-6,35,-0.120605,0.764648,0.534668,3.125,-0.375,0,0.927061,0.102629,-2.26004
3994,9,-4,-1,-2,-35,-88,4,17,-0.120605,0.764648,0.534668,3.125,-0.375,0,0.927061,0.102629,-2.26004
3996,11,22,0,8,26,-36,-41,-16,-0.107422,0.716309,0.54541,-2.625,-1.4375,-2.0625,0.925945,0.103216,-2.26087
3996,5,2,-7,0,5,75,89,10,-0.107422,0.716309,0.54541,-2.625,-1.4375,-2.0625,0.925945,0.103216,-2.26087
4009,7,2,6,2,16,39,-11,-43,-0.107422,0.716309,0.54541,-2.625,-1.4375,-2.0625,0.925945,0.103216,-2.26087
4009,1,-25,2,1,34,62,16,-25,-0.107422,0.716309,0.54541,-2.625,-1.4375,-2.0625,0.925945,0.103216,-2.26087
4015,-6,23,0,-7,-35,-49,-7,-7,-0.0830078,0.694824,0.537109,-1.875,-2.625,-1.875,0.924939,0.103024,-2.2621
4015,-22,-61,-17,-5,23,56,23,-3,-0.0830078,0.694824,0.537109,-1.875,-2.625,-1.875,0.924939,0.103024,-2.2621
4033,-3,-5,-8,-12,-45,-52,-10,-47,-0.0830078,0.694824,0.537109,-1.875,-2.625,-1.875,0.924939,0.103024,-2.2621
4033,-4,5,5,0,-11,4,6,-22,-0.0830078,0.694824,0.537109,-1.875,-2.625,-1.875,0.924939,0.103024,-2.2621
4034,7,-3,2,0,-43,-70,-94,-63,-0.0834961,0.719238,0.563477,1.4375,-1,-0.9375,0.924972,0.102804,-2.26262
4034,-1,13,10,5,-3,-21,-11,48,-0.0834961,0.719238,0.563477,1.4375,-1,-0.9375,0.924972,0.102804,-2.26262
4055,-33,-43,-19,-7,13,21,-28,1,-0.0834961,0.719238,0.563477,1.4375,-1,-0.9375,0.924972,0.102804,-2.26262
4055,2,-8,1,-6,-28,-45,-22,-48,-0.0834961,0.719238,0.563477,1.4375,-1,-0.9375,0.924972,0.102804,-2.26262
4056,6,11,-5,-1,49,81,50,14,-0.0917969,0.711914,0.54541,-0.5,-0.3125,-0.25,0.924972,0.102804,-2.26262
4056,-6,25,6,1,-30,-72,-56,-10,-0.0917969,0.711914,0.54541,-0.5,-0.3125,-0.25,0.924972,0.102804,-2.26262
4069,-2,-41,-1,8,67,68,89,67,-0.0917969,0.711914,0.54541,-0.5,-0.3125,-0.25,0.924972,0.102804,-2.26262
4069,-2,7,6,-1,8,39,-7,11,-0.0917969,0.711914,0.54541,-0.5,-0.3125,-0.25,0.924972,0.102804,-2.26262
4083,-11,-13,-3,-8,-13,-2,38,9,-0.081543,0.684082,0.551758,0,-0.1875,0.875,0.924781,0.102701,-2.26253
4083,24,12,-2,-5,-4,-7,-39,9,-0.081543,0.684082,0.551758,0,-0.1875,0.875,0.924781,0.102701,-2.26253
4092,7,15,-2,2,13,2,10,-17,-0.081543,0.684082,0.551758,0,-0.1875,0.875,0.924781,0.102701,-2.26253
4092,8,6,-1,1,-14,-44,-13,11,-0.081543,0.684082,0.551758,0,-0.1875,0.875,0.924781,0.102701,-2.26253
4093,3,-8,-3,-4,0,6,-29,15,-0.0927734,0.723145,0.533691,2.125,-0.3125,0.1875,0.92562,0.102646,-2.26255
4093,-1,-6,-2,-2,-9,-31,52,56,-0.0927734,0.723145,0.533691,2.125,-0.3125,0.1875,0.92562,0.102646,-2.26255
4115,17,7,-2,-4,-47,-12,33,12,-0.0927734,0.723145,0.533691,2.125,-0.3125,0.1875,0.92562,0.102646,-2.26255
4115,-15,-8,-8,-3,10,44,70,40,-0.0927734,0.723145,0.533691,2.125,-0.3125,0.1875,0.92562,0.102646,-2.26255
4116,12,5,6,-1,-20,-36,27,39,-0.0844727,0.731445,0.54248,1.3125,-0.4375,1,0.926311,0.102101,-2.26239
4116,14,42,7,0,-7,-23,-29,-27,-0.0844727,0.731445,0.54248,1.3125,-0.4375,1,0.926311,0.102101,-2.26239
4128,-21,-33,-11,-7,-15,-48,-4,3,-0.0844727,0.731445,0.54248,1.3125,-0.4375,1,0.926311,0.102101,-2.26239
4128,37,0,-3,-4,-16,-1,32,49,-0.0844727,0.731445,0.54248,1.3125,-0.4375,1,0.926311,0.102101,-2.26239
4138,15,-12,-2,5,14,-12,65,29,-0.0986328,0.712402,0.552246,-1.375,-0.5,2.375,0.925604,0.101377,-2.26215
4138,-10,-7,-1,-9,-39,-64,-57,-29,-0.0986328,0.712402,0.552246,-1.375,-0.5,2.375,0.925604,0.101377,-2.26215
4152,29,67,8,2,9,24,-9,13,-0.0986328,0.712402,0.552246,-1.375,-0.5,2.375,0.925604,0.101377,-2.26215
4152,-16,-27,-1,-2,3,14,-40,-88,-0.0986328,0.712402,0.552246,-1.375,-0.5,2.375,0.925604,0.101377,-2.26215
4154,-28,-17,-7,-3,-36,-32,-47,-34,-0.0952148,0.713379,0.555664,-0.3125,-0.9375,0.875,0.925468,0.101421,-2.2621
4154,21,-10,-4,5,27,17,-35,27,-0.0952148,0.713379,0.555664,-0.3125,-0.9375,0.875,0.925468,0.101421,-2.2621
4174,-21,-7,-4,-5,-10,-1,-69,-73,-0.0952148,0.713379,0.555664,-0.3125,-0.9375,0.875,0.925468,0.101421,-2.2621
4174,9,39,6,-1,12,-66,-66,39,-0.0952148,0.713379,0.555664,-0.3125,-0.9375,0.875,0.925468,0.101421,-2.2621
4176,7,9,6,2,-12,12,0,-13,-0.0722656,0.73291,0.55957,1.5625,0.5,-1.375,0.925884,0.101455,-2.26223
4176,2,17,-1,2,-20,-12,16,-10,-0.0722656,0.73291,0.55957,1.5625,0.5,-1.375,0.925884,0.101455,-2.26223
4197,9,-25,-1,6,59,94,47,65,-0.0722656,0.73291,0.55957,1.5625,0.5,-1.375,0.925884,0.101455,-2.26223
4197,1,-14,-10,-3,13,90,34,19,-0.0722656,0.73291,0.55957,1.5625,0.5,-1.375,0.925884,0.101455,-2.26223
4198,-4,-16,3,2,6,23,-3,8,-0.0791016,0.736816,0.533691,1.3125,1.8125,-1.5625,0.926768,0.101918,-2.26215
4198,-49,-11,-6,0,14,22,-7,-70,-0.0791016,0.736816,0.533691,1.3125,1.8125,-1.5625,0.926768,0.101918,-2.26215
4220,17,13,3,1,15,23,-48,7,-0.0791016,0.736816,0.533691,1.3125,1.8125,-1.5625,0.926768,0.101918,-2.26215
4220,16,0,3,-5,-4,30,-13,27,-0.0791016,0.736816,0.533691,1.3125,1.8125,-1.5625,0.926768,0.101918,-2.26215
4221,2,29,2,-2,0,27,17,-22,-0.081543,0.727539,0.526855,0.1875,0.9375,-2.375,0.927195,0.102565,-2.26231
4221,-13,-36,-3,0,-4,4,-27,4,-0.081543,0.727539,0.526855,0.1875,0.9375,-2.375,0.927195,0.102565,-2.26231
4242,-1,4,-3,-5,-64,-128,-7,-20,-0.081543,0.727539,0.526855,0.1875,0.9375,-2.375,0.927195,0.102565,-2.26231
4242,-16,-2,-16,-5,34,54,25,-7,-0.081543,0.727539,0.526855,0.1875,0.9375,-2.375,0.927195,0.102565,-2.26231
4244,-27,-14,0,-1,-7,57,-57,-83,-0.101074,0.716309,0.531738,1.0625,0.1875,-2.125,0.927588,0.103306,-2.2626
4244,0,48,5,8,35,42,53,9,-0.101074,0.716309,0.531738,1.0625,0.1875,-2.125,0.927588,0.103306,-2.2626
4248,-3,-17,0,-10,-31,7,127,-13,-0.101074,0.716309,0.531738,1.0625,0.1875,-2.125,0.927588,0.103306,-2.2626
4248,5,0,4,3,-1,-58,-37,19,-0.101074,0.716309,0.531738,1.0625,0.1875,-2.125,0.927588,0.103306,-2.2626
4257,-1,8,-5,-6,-8,-9,4,20,-0.114258,0.709961,0.559082,1.1875,-0.0625,-0.875,0.927457,0.104085,-2.26282
4257,12,-13,2,-2,-21,-59,24,42,-0.114258,0.709961,0.559082,1.1875,-0.0625,-0.875,0.927457,0.104085,-2.26282
4272,-14,-4,-2,-2,-24,5,21,-46,-0.114258,0.709961,0.559082,1.1875,-0.0625,-0.875,0.927457,0.104085,-2.26282
4272,-16,4,-1,11,58,59,58,-64,-0.114258,0.709961,0.559082,1.1875,-0.0625,-0.875,0.927457,0.104085,-2.26282
4273,-3,8,5,-1,23,-15,-38,-29,-0.0932617,0.704102,0.547363,-0.625,0.6875,-1.0625,0.926935,0.104492,-2.2629
4273,-2,-26,-2,-3,-5,-11,30,-39,-0.0932617,0.704102,0.547363,-0.625,0.6875,-1.0625,0.926935,0.104492,-2.2629
4294,-4,4,1,0,-13,-59,-55,-15,-0.0932617,0.704102,0.547363,-0.625,0.6875,-1.0625,0.926935,0.104492,-2.2629
4294,-3,-6,-8,-7,-19,-29,-52,17,-0.0932617,0.704102,0.547363,-0.625,0.6875,-1.0625,0.926935,0.104492,-2.2629
4297,15,-5,-5,7,26,15,-19,26,-0.0839844,0.709473,0.537598,1.125,1.125,0.5625,0.927228,0.104324,-2.26247
4297,3,2,2,-8,-13,-15,-14,0,-0.0839844,0.709473,0.537598,1.125,1.125,0.5625,0.927228,0.104324,-2.26247
4308,-1,6,-3,-5,-29,-30,-71,7,-0.0839844,0.709473,0.537598,1.125,1.125,0.5625,0.927228,0.104324,-2.26247
4308,-4,0,11,11,-1,-10,-47,-2,-0.0839844,0.709473,0.537598,1.125,1.125,0.5625,0.927228,0.104324,-2.26247
4317,26,18,2,0,-7,7,42,26,-0.0859375,0.73877,0.536621,1.9375,0.4375,-0.875,0.928212,0.10447,-2.26242
4317,6,-2,-2,3,10,9,-1,49,-0.0859375,0.73877,0.536621,1.9375,0.4375,-0.875,0.928212,0.10447,-2.26242
4331,0,-9,7,5,34,31,0,67,-0.0859375,0.73877,0.536621,1.9375,0.4375,-0.875,0.928212,0.10447,-2.26242
4331,-5,-24,-7,0,-22,2,-7,-8,-0.0859375,0.73877,0.536621,1.9375,0.4375,-0.875,0.928212,0.10447,-2.26242
4333,12,-14,-2,-5,28,35,98,91,-0.0776367,0.731445,0.551758,0.25,-0.3125,-1.375,0.928125,0.104248,-2.26282
4333,11,21,9,3,27,38,9,-7,-0.0776367,0.731445,0.551758,0.25,-0.3125,-1.375,0.928125,0.104248,-2.26282
4354,-4,18,2,2,-23,-76,-1,-2,-0.0776367,0.731445,0.551758,0.25,-0.3125,-1.375,0.928125,0.104248,-2.26282
4354,-3,-26,-2,3,19,33,58,25,-0.0776367,0.731445,0.551758,0.25,-0.3125,-1.375,0.928125,0.104248,-2.26282
4356,-2,-2,-5,0,24,43,-45,-49,-0.100098,0.709473,0.561035,-0.4375,0.375,0.4375,0.928018,0.10432,-2.2629
4356,8,13,-6,-10,-63,-93,51,50,-0.100098,0.709473,0.561035,-0.4375,0.375,0.4375,0.928018,0.10432,-2.2629
4368,-30,-39,-5,1,12,11,-46,-28,-0.100098,0.709473,0.561035,-0.4375,0.375,0.4375,0.928018,0.10432,-2.2629
4368,-3,15,2,0,49,43,-7,-53,-0.100098,0.709473,0.561035,-0.4375,0.375,0.4375,0.928018,0.10432,-2.2629
4377,-6,-4,4,-1,-26,-46,-34,-1,-0.105957,0.700195,0.553711,1.1875,2,-0.6875,0.92798,0.1052,-2.26247
4377,17,-18,-9,-7,-12,-32,25,27,-0.105957,0.700195,0.553711,1.1875,2,-0.6875,0.92798,0.1052,-2.26247
4392,-13,5,-4,-2,19,1,-30,-34,-0.105957,0.700195,0.553711,1.1875,2,-0.6875,0.92798,0.1052,-2.26247
4392,8,11,5,-2,-46,-78,-33,-20,-0.105957,0.700195,0.553711,1.1875,2,-0.6875,0.92798,0.1052,-2.26247
4393,-9,-18,-4,-3,-20,-49,-35,-16,-0.100098,0.731934,0.529297,2.1875,2.4375,-1.1875,0.929169,0.106108,-2.26198
4393,1,-10,-10,1,47,70,-53,-46,-0.100098,0.731934,0.529297,2.1875,2.4375,-1.1875,0.929169,0.106108,-2.26198
4415,-6,-2,-9,-3,1,-30,16,-15,-0.100098,0.731934,0.529297,2.1875,2.4375,-1.1875,0.929169,0.106108,-2.26198
4415,-6,19,0,-2,-8,11,20,19,-0.100098,0.731934,0.529297,2.1875,2.4375,-1.1875,0.929169,0.106108,-2.26198
4416,-10,-22,3,3,14,-31,-2,-28,-0.102539,0.733398,0.529785,1,1.25,-0.9375,0.929839,0.106807,-2.26181
4416,-36,-5,-1,1,-28,-16,15,-10,-0.102539,0.733398,0.529785,1,1.25,-0.9375,0.929839,0.106807,-2.26181
4428,11,12,-5,-7,0,48,27,6,-0.102539,0.733398,0.529785,1,1.25,-0.9375,0.929839,0.106807,-2.26181
4428,3,1,6,1,-1,1,-13,-8,-0.102539,0.733398,0.529785,1,1.25,-0.9375,0.929839,0.106807,-2.26181
4437,1,7,2,8,10,13,-41,-25,-0.0942383,0.710938,0.54834,-1,1,0.4375,0.929185,0.106767,-2.26144
4437,0,-6,-5,-1,1,11,-44,15,-0.0942383,0.710938,0.54834,-1,1,0.4375,0.929185,0.106767,-2.26144
4452,-6,-2,6,1,28,45,-16,-47,-0.0942383,0.710938,0.54834,-1,1,0.4375,0.929185,0.106767,-2.26144
4452,-1,10,-3,-7,-50,-81,-17,-13,-0.0942383,0.710938,0.54834,-1,1,0.4375,0.929185,0.106767,-2.26144
4454,-7,-3,-2,-1,-4,9,22,20,-0.0922852,0.70166,0.55957,0.4375,2.6875,0.125,0.928729,0.107244,-2.26074
4454,-25,-52,-7,-1,-29,-21,57,-82,-0.0922852,0.70166,0.55957,0.4375,2.6875,0.125,0.928729,0.107244,-2.26074
4474,47,8,2,13,60,94,5,78,-0.0922852,0.70166,0.55957,0.4375,2.6875,0.125,0.928729,0.107244,-2.26074
4474,6,-5,-1,-8,-9,-14,-12,32,-0.0922852,0.70166,0.55957,0.4375,2.6875,0.125,0.928729,0.107244,-2.26074
4476,-26,6,-2,-8,-15,-46,6,-52,-0.0776367,0.705078,0.557129,3.1875,2.9375,-0.3125,0.929301,0.107401,-2.26
4476,0,31,1,-1,-8,-12,3,-10,-0.0776367,0.705078,0.557129,3.1875,2.9375,-0.3125,0.929301,0.107401,-2.26
4488,16,-13,-1,-7,-62,-96,46,36,-0.0776367,0.705078,0.557129,3.1875,2.9375,-0.3125,0.929301,0.107401,-2.26
4488,-8,35,6,9,49,66,50,-44,-0.0776367,0.705078,0.557129,3.1875,2.9375,-0.3125,0.929301,0.107401,-2.26
4498,6,-22,-10,0,15,58,-29,-3,-0.0751953,0.720215,0.547852,3.1875,2.9375,-1.375,0.930311,0.107913,-2.25947
4498,1,-20,-1,-5,-28,-56,-115,18,-0.0751953,0.720215,0.547852,3.1875,2.9375,-1.375,0.930311,0.107913,-2.25947
4512,-1,24,2,9,29,44,59,-22,-0.0751953,0.720215,0.547852,3.1875,2.9375,-1.375,0.930311,0.107913,-2.25947
4512,21,-10,7,4,24,10,-38,-12,-0.0751953,0.720215,0.547852,3.1875,2.9375,-1.375,0.930311,0.107913,-2.25947
4514,-4,11,-1,-4,-43,-30,12,23,-0.081543,0.717285,0.556641,4,2.4375,-2.625,0.93131,0.10867,-2.25945
4514,-8,-6,-2,0,35,-26,-26,-15,-0.081543,0.717285,0.556641,4,2.4375,-2.625,0.93131,0.10867,-2.25945
4535,-30,-4,-3,-5,-30,24,-39,-19,-0.081543,0.717285,0.556641,4,2.4375,-2.625,0.93131,0.10867,-2.25945
4535,6,-4,-8,-6,-33,-28,-61,-3,-0.081543,0.717285,0.556641,4,2.4375,-2.625,0.93131,0.10867,-2.25945
4536,7,14,0,-3,-18,-21,28,14,-0.105469,0.715332,0.553223,4.375,4.0625,-2.3125,0.932428,0.110305,-2.25877
4536,6,-14,-1,-3,1,-4,17,39,-0.105469,0.715332,0.553223,4.375,4.0625,-2.3125,0.932428,0.110305,-2.25877
4548,19,-18,-9,-8,-2,-31,-73,73,-0.105469,0.715332,0.553223,4.375,4.0625,-2.3125,0.932428,0.110305,-2.25877
4548,-21,-10,1,2,1,-38,73,17,-0.105469,0.715332,0.553223,4.375,4.0625,-2.3125,0.932428,0.110305,-2.25877
4564,13,32,5,5,6,26,33,37,-0.120605,0.708496,0.539062,3.9375,3.625,-1.25,0.933566,0.111892,-2.25803
4564,-8,-23,-12,-4,14,37,-20,-49,-0.120605,0.708496,0.539062,3.9375,3.625,-1.25,0.933566,0.111892,-2.25803
4572,-7,5,4,3,19,20,55,6,-0.120605,0.708496,0.539062,3.9375,3.625,-1.25,0.933566,0.111892,-2.25803
4572,-5,5,-1,-3,-13,28,13,10,-0.120605,0.708496,0.539062,3.9375,3.625,-1.25,0.933566,0.111892,-2.25803
4573,0,-9,-3,-6,-35,-76,6,23,-0.0986328,0.71875,0.524902,2.75,2.3125,-2.125,0.934759,0.112921,-2.25779
4573,-5,29,2,6,33,64,3,-29,-0.0986328,0.71875,0.524902,2.75,2.3125,-2.125,0.934759,0.112921,-2.25779
4594,-36,-24,-8,-6,-22,-54,1,-83,-0.0986328,0.71875,0.524902,2.75,2.3125,-2.125,0.934759,0.112921,-2.25779
4594,-9,2,-5,-5,-36,-33,-37,-43,-0.0986328,0.71875,0.524902,2.75,2.3125,-2.125,0.934759,0.112921,-2.25779
4611,5,2,5,2,22,9,-4,-9,-0.100586,0.719238,0.523438,2.75,2.125,0,0.9359,0.11331,-2.25712
4611,7,3,3,-1,-11,-7,3,22,-0.100586,0.719238,0.523438,2.75,2.125,0,0.9359,0.11331,-2.25712
4612,-13,-1,-1,-9,7,7,-32,-20,-0.100586,0.719238,0.523438,2.75,2.125,0,0.9359,0.11331,-2.25712
4612,-14,-14,5,5,-17,-69,-2,-8,-0.100586,0.719238,0.523438,2.75,2.125,0,0.9359,0.11331,-2.25712
4618,-6,-20,-10,-1,26,37,-12,19,-0.132812,0.739258,0.514648,3.5,2.125,1.4375,0.937715,0.114026,-2.25615
4618,-8,-7,2,6,4,96,-3,-43,-0.132812,0.739258,0.514648,3.5,2.125,1.4375,0.937715,0.114026,-2.25615
4633,37,18,7,3,-16,-38,22,74,-0.132812,0.739258,0.514648,3.5,2.125,1.4375,0.937715,0.114026,-2.25615
4633,-13,-13,2,-3,14,5,-2,-33,-0.132812,0.739258,0.514648,3.5,2.125,1.4375,0.937715,0.114026,-2.25615
4634,18,-3,6,4,-8,1,41,22,-0.113281,0.735352,0.513184,1,0.75,0.8125,0.93874,0.114242,-2.25567
4634,-15,-4,-3,-6,-5,-77,-48,-1,-0.113281,0.735352,0.513184,1,0.75,0.8125,0.93874,0.114242,-2.25567
4655,2,-12,3,7,-10,-67,-89,33,-0.113281,0.735352,0.513184,1,0.75,0.8125,0.93874,0.114242,-2.25567
4655,-2,23,-3,1,-9,-23,-16,14,-0.113281,0.735352,0.513184,1,0.75,0.8125,0.93874,0.114242,-2.25567
4657,-19,-18,-1,-2,4,0,-65,-30,-0.110352,0.741211,0.512207,-0.0625,0.1875,2.8125,0.939258,0.113711,-2.25507
4657,6,17,3,-1,-9,4,34,31,-0.110352,0.741211,0.512207,-0.0625,0.1875,2.8125,0.939258,0.113711,-2.25507
4677,-16,4,-2,-3,10,26,-6,-64,-0.110352,0.741211,0.512207,-0.0625,0.1875,2.8125,0.939258,0.113711,-2.25507
4677,8,2,-2,-6,-29,-31,70,18,-0.110352,0.741211,0.512207,-0.0625,0.1875,2.8125,0.939258,0.113711,-2.25507
4678,19,20,-2,5,26,28,-27,5,-0.128906,0.736816,0.527832,0.75,0.3125,1.875,0.93991,0.113796,-2.2546
4678,20,-26,-8,-11,-37,-67,-44,35,-0.128906,0.736816,0.527832,0.75,0.3125,1.875,0.93991,0.113796,-2.2546
4693,12,27,13,13,30,92,21,19,-0.128906,0.736816,0.527832,0.75,0.3125,1.875,0.93991,0.113796,-2.2546
4693,-3,-12,-3,-1,-2,13,29,38,-0.128906,0.736816,0.527832,0.75,0.3125,1.875,0.93991,0.113796,-2.2546
4694,-14,0,-5,-9,-28,-20,-1,-20,-0.107422,0.730469,0.537109,-1.8125,0.9375,1.875,0.939234,0.113602,-2.25385
4694,12,9,8,7,37,52,93,59,-0.107422,0.730469,0.537109,-1.8125,0.9375,1.875,0.939234,0.113602,-2.25385
4714,-4,-5,-2,-8,-4,41,-11,-1,-0.107422,0.730469,0.537109,-1.8125,0.9375,1.875,0.939234,0.113602,-2.25385
4714,18,-2,-6,-10,-28,-52,0,21,-0.107422,0.730469,0.537109,-1.8125,0.9375,1.875,0.939234,0.113602,-2.25385
4721,-43,-14,-5,6,43,64,-52,-127,-0.0996094,0.717773,0.535645,-1.6875,1.875,2.9375,0.938544,0.113042,-2.25269
4721,12,25,8,4,4,-1,-19,-30,-0.0996094,0.717773,0.535645,-1.6875,1.875,2.9375,0.938544,0.113042,-2.25269
4738,-8,-16,-5,-2,8,20,88,27,-0.0996094,0.717773,0.535645,-1.6875,1.875,2.9375,0.938544,0.113042,-2.25269
4738,7,11,3,2,5,-11,-11,17,-0.0996094,0.717773,0.535645,-1.6875,1.875,2.9375,0.938544,0.113042,-2.25269
4739,-5,3,-8,-11,-27,-8,1,20,-0.101074,0.716797,0.540527,0.5,2.75,2.3125,0.938612,0.112987,-2.25138
4739,-2,-25,-1,8,28,34,48,-62,-0.101074,0.716797,0.540527,0.5,2.75,2.3125,0.938612,0.112987,-2.25138
4752,13,18,2,-3,-4,-13,11,62,-0.101074,0.716797,0.540527,0.5,2.75,2.3125,0.938612,0.112987,-2.25138
4752,-14,-13,-7,0,-5,37,-44,-72,-0.101074,0.716797,0.540527,0.5,2.75,2.3125,0.938612,0.112987,-2.25138
4754,16,15,6,7,1,-40,63,58,-0.0922852,0.744141,0.526367,2.125,2.0625,0.3125,0.939763,0.113079,-2.25076
4754,14,18,3,-2,-13,14,10,32,-0.0922852,0.744141,0.526367,2.125,2.0625,0.3125,0.939763,0.113079,-2.25076
4774,-46,-32,-10,-8,14,-1,39,-65,-0.0922852,0.744141,0.526367,2.125,2.0625,0.3125,0.939763,0.113079,-2.25076
4774,-7,-12,-5,-8,-22,-16,-76,-20,-0.0922852,0.744141,0.526367,2.125,2.0625,0.3125,0.939763,0.113079,-2.25076
4776,14,16,-5,-1,38,0,65,64,-0.0825195,0.739258,0.537109,0,1.5,0.5625,0.93981,0.112656,-2.25022
4776,7,-4,0,4,9,-2,-3,-9,-0.0825195,0.739258,0.537109,0,1.5,0.5625,0.93981,0.112656,-2.25022
4798,2,22,0,-1,-14,-50,-47,-6,-0.0825195,0.739258,0.537109,0,1.5,0.5625,0.93981,0.112656,-2.25022
4798,-1,2,1,1,16,47,6,40,-0.0825195,0.739258,0.537109,0,1.5,0.5625,0.93981,0.112656,-2.25022
4799,1,-20,-3,-3,-41,-59,18,-21,-0.102051,0.724609,0.532715,-1.25,0,0.875,0.939472,0.112432,-2.2501
4799,-14,25,-3,-9,-14,-4,17,5,-0.102051,0.724609,0.532715,-1.25,0,0.875,0.939472,0.112432,-2.2501
4812,8,-5,1,-6,-39,-76,-70,15,-0.102051,0.724609,0.532715,-1.25,0,0.875,0.939472,0.112432,-2.2501
4812,5,-7,2,3,34,21,19,-36,-0.102051,0.724609,0.532715,-1.25,0,0.875,0.939472,0.112432,-2.2501
4814,-8,-21,-3,-7,-27,-47,-69,-24,-0.0761719,0.717285,0.533691,-3,-1.5,-1.4375,0.938162,0.111974,-2.25081
4814,-8,0,-2,1,0,26,55,-14,-0.0761719,0.717285,0.533691,-3,-1.5,-1.4375,0.938162,0.111974,-2.25081
4835,-10,-3,-2,0,-16,-42,-14,-37,-0.0761719,0.717285,0.533691,-3,-1.5,-1.4375,0.938162,0.111974,-2.25081
4835,-7,14,1,3,4,41,-3,-9,-0.0761719,0.717285,0.533691,-3,-1.5,-1.4375,0.938162,0.111974,-2.25081
4836,-17,-3,-5,-6,-28,-12,-69,-5,-0.0932617,0.713379,0.54541,-0.1875,-0.8125,-0.5625,0.938089,0.111874,-2.25084
4836,-10,-7,1,5,74,40,-83,-41,-0.0932617,0.713379,0.54541,-0.1875,-0.8125,-0.5625,0.938089,0.111874,-2.25084
4864,-6,4,1,-1,10,31,-26,-41,-0.0932617,0.713379,0.54541,-0.1875,-0.8125,-0.5625,0.938089,0.111874,-2.25084
4864,-8,6,-4,-1,-4,-19,-52,-47,-0.0932617,0.713379,0.54541,-0.1875,-0.8125,-0.5625,0.938089,0.111874,-2.25084
4866,-2,4,0,4,46,74,14,-2,-0.116211,0.720215,0.546387,-0.4375,-0.3125,0.25,0.937953,0.111919,-2.25078
4866,-24,-24,-5,-8,-38,-56,-36,-25,-0.116211,0.720215,0.546387,-0.4375,-0.3125,0.25,0.937953,0.111919,-2.25078
4871,6,7,3,-2,-11,-25,-3,0,-0.116211,0.720215,0.546387,-0.4375,-0.3125,0.25,0.937953,0.111919,-2.25078
4871,11,7,-3,-7,-15,-43,-13,29,-0.116211,0.720215,0.546387,-0.4375,-0.3125,0.25,0.937953,0.111919,-2.25078
4878,12,26,3,3,34,18,43,0,-0.103516,0.712891,0.541016,-0.75,-0.375,-0.4375,0.937846,0.111992,-2.25085
4878,4,2,-8,-5,-15,-5,-14,73,-0.103516,0.712891,0.541016,-0.75,-0.375,-0.4375,0.937846,0.111992,-2.25085
4894,9,-17,-9,-2,22,-14,35,-27,-0.103516,0.712891,0.541016,-0.75,-0.375,-0.4375,0.937846,0.111992,-2.25085
4894,3,-16,4,2,-5,16,53,14,-0.103516,0.712891,0.541016,-0.75,-0.375,-0.4375,0.937846,0.111992,-2.25085
4896,-4,-2,1,-4,-23,-4,3,4,-0.100098,0.709961,0.543457,-0.5,0,1.0625,0.937316,0.111665,-2.25065
4896,-8,-34,-5,4,-8,-15,-30,-12,-0.100098,0.709961,0.543457,-0.5,0,1.0625,0.937316,0.111665,-2.25065
4916,-13,2,-5,-1,-6,1,1,-73,-0.100098,0.709961,0.543457,-0.5,0,1.0625,0.937316,0.111665,-2.25065
4916,-22,-1,-1,-5,-13,-79,-70,-67,-0.100098,0.709961,0.543457,-0.5,0,1.0625,0.937316,0.111665,-2.25065
4925,32,14,6,3,-17,13,29,29,-0.0966797,0.729004,0.538086,1.375,0.5,0.9375,0.937747,0.111449,-2.25028
4925,15,14,0,-2,-35,-39,65,25,-0.0966797,0.729004,0.538086,1.375,0.5,0.9375,0.937747,0.111449,-2.25028
4932,-10,-7,-4,2,70,88,35,59,-0.0966797,0.729004,0.538086,1.375,0.5,0.9375,0.937747,0.111449,-2.25028
4932,9,7,5,3,20,39,26,31,-0.0966797,0.729004,0.538086,1.375,0.5,0.9375,0.937747,0.111449,-2.25028
4938,-9,-6,-4,-4,-25,-30,-16,-2,-0.0878906,0.727051,0.538086,0.6875,1,0.6875,0.937986,0.11113,-2.24982
4938,-6,0,-8,-5,-14,30,0,-34,-0.0878906,0.727051,0.538086,0.6875,1,0.6875,0.937986,0.11113,-2.24982
4955,15,-10,4,3,-20,-52,3,38,-0.0878906,0.727051,0.538086,0.6875,1,0.6875,0.937986,0.11113,-2.24982
4955,2,-8,0,-4,14,45,41,36,-0.0878906,0.727051,0.538086,0.6875,1,0.6875,0.937986,0.11113,-2.24982
4956,-10,9,0,1,12,-5,-29,-46,-0.104004,0.712402,0.534668,1.4375,2.0625,1.375,0.938284,0.111205,-2.249
4956,20,21,0,0,35,22,-46,14,-0.104004,0.712402,0.534668,1.4375,2.0625,1.375,0.938284,0.111205,-2.249
4977,-3,-5,-2,-2,-5,-18,12,-12,-0.104004,0.712402,0.534668,1.4375,2.0625,1.375,0.938284,0.111205,-2.249
4977,9,-5,-7,-6,2,-46,-9,-6,-0.104004,0.712402,0.534668,1.4375,2.0625,1.375,0.938284,0.111205,-2.249
4979,-34,-7,-5,-12,-75,-73,-25,-48,-0.104004,0.716797,0.550781,2.8125,3.5,1.9375,0.938963,0.111452,-2.24761
4979,-1,-19,0,7,13,20,-4,11,-0.104004,0.716797,0.550781,2.8125,3.5,1.9375,0.938963,0.111452,-2.24761
5000,30,22,1,0,-5,49,-31,6,-0.104004,0.716797,0.550781,2.8125,3.5,1.9375,0.938963,0.111452,-2.24761
5000,-1,-15,-1,0,8,-24,17,-23,-0.104004,0.716797,0.550781,2.8125,3.5,1.9375,0.938963,0.111452,-2.24761
5001,-19,-19,-6,-7,-3,20,12,-1,-0.0888672,0.727051,0.534668,2.5625,4.375,1,0.939826,0.111724,-2.24612
5001,-13,-2,9,1,-6,-48,-56,-5,-0.0888672,0.727051,0.534668,2.5625,4.375,1,0.939826,0.111724,-2.24612
5014,11,17,6,3,14,29,42,30,-0.0888672,0.727051,0.534668,2.5625,4.375,1,0.939826,0.111724,-2.24612
5014,14,-8,-7,-7,-43,-88,-24,-39,-0.0888672,0.727051,0.534668,2.5625,4.375,1,0.939826,0.111724,-2.24612
5016,11,2,5,3,-13,-79,-23,11,-0.081543,0.725098,0.527832,2.75,3.5625,1.25,0.941066,0.111664,-2.24498
5016,-12,-3,1,-3,16,29,-18,-10,-0.081543,0.725098,0.527832,2.75,3.5625,1.25,0.941066,0.111664,-2.24498
5037,-4,-3,2,2,17,28,-40,2,-0.081543,0.725098,0.527832,2.75,3.5625,1.25,0.941066,0.111664,-2.24498
5037,-6,50,6,0,-12,-17,-6,-32,-0.081543,0.725098,0.527832,2.75,3.5625,1.25,0.941066,0.111664,-2.24498
5038,-1,-68,-5,4,27,19,18,28,-0.100586,0.730957,0.526855,2.25,2.3125,0.3125,0.941961,0.112086,-2.24414
5038,4,39,1,-9,-61,-113,-24,-9,-0.100586,0.730957,0.526855,2.25,2.3125,0.3125,0.941961,0.112086,-2.24414
5052,8,3,-1,1,-10,28,47,14,-0.100586,0.730957,0.526855,2.25,2.3125,0.3125,0.941961,0.112086,-2.24414
5052,-1,2,-3,4,28,65,31,50,-0.100586,0.730957,0.526855,2.25,2.3125,0.3125,0.941961,0.112086,-2.24414
5058,25,30,4,3,42,66,46,46,-0.101074,0.727539,0.552734,4.875,3.4375,0.4375,0.943313,0.11261,-2.24301
5058,-40,-9,-3,-6,-29,-55,26,-57,-0.101074,0.727539,0.552734,4.875,3.4375,0.4375,0.943313,0.11261,-2.24301
5075,3,-2,6,3,-6,-7,-2,11,-0.101074,0.727539,0.552734,4.875,3.4375,0.4375,0.943313,0.11261,-2.24301
5075,12,-9,0,3,70,76,27,54,-0.101074,0.727539,0.552734,4.875,3.4375,0.4375,0.943313,0.11261,-2.24301
5076,-6,8,3,5,14,23,40,-31,-0.078125,0.718262,0.554199,3.1875,7.1875,0.375,0.943973,0.11336,-2.24106
5076,8,-8,-5,-6,-54,-109,-49,-16,-0.078125,0.718262,0.554199,3.1875,7.1875,0.375,0.943973,0.11336,-2.24106
5097,5,6,-1,14,61,98,32,-2,-0.078125,0.718262,0.554199,3.1875,7.1875,0.375,0.943973,0.11336,-2.24106
5097,-6,-14,-3,-2,-18,-61,13,37,-0.078125,0.718262,0.554199,3.1875,7.1875,0.375,0.943973,0.11336,-2.24106
5099,3,3,1,-3,-30,-42,-31,22,-0.0825195,0.706543,0.541504,5.5625,9.8125,1.3125,0.945754,0.114457,-2.23805
5099,24,32,6,5,31,88,26,30,-0.0825195,0.706543,0.541504,5.5625,9.8125,1.3125,0.945754,0.114457,-2.23805
5120,-35,-29,-5,-5,-49,-109,-58,-93,-0.0825195,0.706543,0.541504,5.5625,9.8125,1.3125,0.945754,0.114457,-2.23805
5120,-12,-16,-5,4,37,65,-3,-6,-0.0825195,0.706543,0.541504,5.5625,9.8125,1.3125,0.945754,0.114457,-2.23805
5121,6,-3,1,1,31,41,27,-8,-0.116699,0.727539,0.506836,7.0625,9.375,1.4375,0.948741,0.116241,-2.23499
5121,-9,18,-7,-12,-33,-47,-3,-3,-0.116699,0.727539,0.506836,7.0625,9.375,1.4375,0.948741,0.116241,-2.23499
5134,11,0,-1,-3,-19,-56,-8,21,-0.116699,0.727539,0.506836,7.0625,9.375,1.4375,0.948741,0.116241,-2.23499
5134,-1,1,-5,-4,-11,-5,-16,11,-0.116699,0.727539,0.506836,7.0625,9.375,1.4375,0.948741,0.116241,-2.23499
5136,-13,-12,-1,-2,-25,-18,-6,-11,-0.114258,0.744629,0.508789,6.4375,7.1875,2.0625,0.95175,0.117347,-2.23254
5136,11,7,-1,5,0,-22,-42,7,-0.114258,0.744629,0.508789,6.4375,7.1875,2.0625,0.95175,0.117347,-2.23254
5157,15,8,-2,-9,1,29,1,54,-0.114258,0.744629,0.508789,6.4375,7.1875,2.0625,0.95175,0.117347,-2.23254
5157,-20,9,3,-1,-28,-20,-19,-41,-0.114258,0.744629,0.508789,6.4375,7.1875,2.0625,0.95175,0.117347,-2.23254
5158,5,18,-1,-4,8,25,27,10,-0.0966797,0.73291,0.526855,5.3125,6.75,1.25,0.953735,0.118118,-2.23031
5158,-4,-38,-3,-5,30,91,14,20,-0.0966797,0.73291,0.526855,5.3125,6.75,1.25,0.953735,0.118118,-2.23031
5171,8,-9,-4,-7,-30,-114,-22,3,-0.0966797,0.73291,0.526855,5.3125,6.75,1.25,0.953735,0.118118,-2.23031
5171,-16,-13,-15,2,32,61,4,-35,-0.0966797,0.73291,0.526855,5.3125,6.75,1.25,0.953735,0.118118,-2.23031
5180,19,5,2,-7,-22,-54,-9,4,-0.109375,0.700684,0.538086,6.125,9.5625,5.25,0.955423,0.118617,-2.22662
5180,-4,8,-1,-3,39,51,24,-2,-0.109375,0.700684,0.538086,6.125,9.5625,5.25,0.955423,0.118617,-2.22662
5195,-15,-31,-4,-6,9,28,22,-12,-0.109375,0.700684,0.538086,6.125,9.5625,5.25,0.955423,0.118617,-2.22662
5195,14,15,12,6,11,23,-19,14,-0.109375,0.700684,0.538086,6.125,9.5625,5.25,0.955423,0.118617,-2.22662
5196,2,-11,-11,-3,-9,-19,-21,-4,-0.124023,0.72168,0.513672,5.6875,10,6.375,0.957832,0.119251,-2.22231
5196,-12,13,-1,8,10,11,60,21,-0.124023,0.72168,0.513672,5.6875,10,6.375,0.957832,0.119251,-2.22231
5217,0,-21,-2,3,21,2,38,-18,-0.124023,0.72168,0.513672,5.6875,10,6.375,0.957832,0.119251,-2.22231
5217,-19,15,-1,-4,0,9,26,-12,-0.124023,0.72168,0.513672,5.6875,10,6.375,0.957832,0.119251,-2.22231
5219,-15,1,-1,-8,8,20,9,1,-0.118652,0.745117,0.508789,8.8125,9.25,4.75,0.96158,0.119892,-2.21868
5219,20,-3,8,2,-13,-53,3,0,-0.118652,0.745117,0.508789,8.8125,9.25,4.75,0.96158,0.119892,-2.21868
5230,-11,24,1,-3,-21,-26,20,-28,-0.118652,0.745117,0.508789,8.8125,9.25,4.75,0.96158,0.119892,-2.21868
5230,0,-34,-6,2,-37,-56,25,29,-0.118652,0.745117,0.508789,8.8125,9.25,4.75,0.96158,0.119892,-2.21868
5247,16,16,0,7,33,45,-12,-2,-0.114258,0.766113,0.519531,7.375,8.0625,4.875,0.964737,0.120181,-2.21536
5247,-6,21,-10,-7,4,6,-1,-10,-0.114258,0.766113,0.519531,7.375,8.0625,4.875,0.964737,0.120181,-2.21536
5254,-2,48,6,-2,-40,-24,-12,9,-0.114258,0.766113,0.519531,7.375,8.0625,4.875,0.964737,0.120181,-2.21536
5254,-8,-39,-10,-11,-2,33,13,16,-0.114258,0.766113,0.519531,7.375,8.0625,4.875,0.964737,0.120181,-2.21536
5256,10,-14,-3,-7,-38,-81,-55,-10,-0.121094,0.750488,0.507324,6.125,8.1875,3.875,0.967582,0.120983,-2.2122
5256,-3,-46,-7,-5,-21,-3,-17,-6,-0.121094,0.750488,0.507324,6.125,8.1875,3.875,0.967582,0.120983,-2.2122
5277,-11,-32,-10,-6,2,2,-20,-33,-0.121094,0.750488,0.507324,6.125,8.1875,3.875,0.967582,0.120983,-2.2122
5277,31,8,10,4,-21,-58,-87,5,-0.121094,0.750488,0.507324,6.125,8.1875,3.875,0.967582,0.120983,-2.2122
5279,-26,-20,-2,0,-3,18,22,-11,-0.108887,0.756348,0.487793,2.75,4.5625,2.3125,0.969365,0.121262,-2.21038
5279,-31,-26,-3,-7,-15,-6,-36,-38,-0.108887,0.756348,0.487793,2.75,4.5625,2.3125,0.969365,0.121262,-2.21038
5291,11,11,-3,1,22,47,58,20,-0.108887,0.756348,0.487793,2.75,4.5625,2.3125,0.969365,0.121262,-2.21038
5291,-3,-13,-14,-5,-7,14,-21,-2,-0.108887,0.756348,0.487793,2.75,4.5625,2.3125,0.969365,0.121262,-2.21038
5307,0,-4,4,6,40,89,53,-28,-0.0952148,0.774902,0.519531,4.0625,3.875,0.625,0.971043,0.121325,-2.20895
5307,21,42,10,10,26,0,17,-9,-0.0952148,0.774902,0.519531,4.0625,3.875,0.625,0.971043,0.121325,-2.20895
5329,-18,-47,-6,-3,-18,-34,-31,7,-0.0952148,0.774902,0.519531,4.0625,3.875,0.625,0.971043,0.121325,-2.20895
5329,-7,3,6,1,-24,-43,-2,6,-0.0952148,0.774902,0.519531,4.0625,3.875,0.625,0.971043,0.121325,-2.20895
5331,12,47,-2,1,-17,-21,11,5,-0.103027,0.730957,0.494141,-1.75,1.5625,3.4375,0.970732,0.120595,-2.20786
5331,19,-19,1,5,25,43,30,-37,-0.103027,0.730957,0.494141,-1.75,1.5625,3.4375,0.970732,0.120595,-2.20786
5337,-15,-19,0,3,20,31,30,40,-0.103027,0.730957,0.494141,-1.75,1.5625,3.4375,0.970732,0.120595,-2.20786
5337,2,22,4,-1,-18,-22,14,-11,-0.103027,0.730957,0.494141,-1.75,1.5625,3.4375,0.970732,0.120595,-2.20786
5338,-12,-3,3,4,20,-8,-25,19,-0.108887,0.75,0.490723,-1.4375,-0.625,2.25,0.970725,0.119805,-2.20753
5338,12,19,9,-1,-40,-49,2,-6,-0.108887,0.75,0.490723,-1.4375,-0.625,2.25,0.970725,0.119805,-2.20753
5351,9,20,-1,4,34,49,7,-7,-0.108887,0.75,0.490723,-1.4375,-0.625,2.25,0.970725,0.119805,-2.20753
5351,16,36,11,7,5,45,83,18,-0.108887,0.75,0.490723,-1.4375,-0.625,2.25,0.970725,0.119805,-2.20753
5360,-20,-68,-4,-2,22,-26,6,-33,-0.118652,0.743652,0.499023,0.75,-0.5625,2.0625,0.971219,0.119431,-2.20726
5360,30,12,1,9,28,37,-8,56,-0.118652,0.743652,0.499023,0.75,-0.5625,2.0625,0.971219,0.119431,-2.20726
5374,-7,-9,-1,2,6,19,-7,-7,-0.118652,0.743652,0.499023,0.75,-0.5625,2.0625,0.971219,0.119431,-2.20726
5374,-25,-5,-6,-8,-2,-25,-33,-60,-0.118652,0.743652,0.499023,0.75,-0.5625,2.0625,0.971219,0.119431,-2.20726
5376,27,27,8,3,-20,-54,12,9,-0.129395,0.732422,0.504395,-1.0625,-1,3.375,0.970852,0.118762,-2.20683
5376,9,14,5,3,8,26,45,22,-0.129395,0.732422,0.504395,-1.0625,-1,3.375,0.970852,0.118762,-2.20683
5397,-46,-14,-14,-1,-15,-28,-83,-15,-0.129395,0.732422,0.504395,-1.0625,-1,3.375,0.970852,0.118762,-2.20683
5397,23,-23,-5,-5,4,4,40,35,-0.129395,0.732422,0.504395,-1.0625,-1,3.375,0.970852,0.118762,-2.20683
5399,-5,30,-2,-5,-26,-34,-4,0,-0.133789,0.747559,0.514648,0.375,-0.9375,2.8125,0.971043,0.118364,-2.20654
5399,-3,-18,-3,-5,-26,-20,-5,-8,-0.133789,0.747559,0.514648,0.375,-0.9375,2.8125,0.971043,0.118364,-2.20654
5411,6,15,13,12,18,32,47,1,-0.133789,0.747559,0.514648,0.375,-0.9375,2.8125,0.971043,0.118364,-2.20654
5411,1,4,7,6,31,47,31,0,-0.133789,0.747559,0.514648,0.375,-0.9375,2.8125,0.971043,0.118364,-2.20654
5419,-24,-26,-1,2,15,36,-12,-17,-0.123047,0.76709,0.529297,0.5,-0.4375,2.9375,0.971174,0.117819,-2.20622
5419,15,-2,-9,-6,-46,-51,-25,61,-0.123047,0.76709,0.529297,0.5,-0.4375,2.9375,0.971174,0.117819,-2.20622
5434,-7,17,6,-5,11,20,-21,-51,-0.123047,0.76709,0.529297,0.5,-0.4375,2.9375,0.971174,0.117819,-2.20622
5434,5,21,0,-5,-21,-42,-33,-6,-0.123047,0.76709,0.529297,0.5,-0.4375,2.9375,0.971174,0.117819,-2.20622
5436,-15,-46,-5,-2,-5,-20,-14,13,-0.0922852,0.740723,0.526367,-5.0625,-0.25,3.8125,0.969054,0.116241,-2.20542
5436,-5,38,4,6,54,52,-7,3,-0.0922852,0.740723,0.526367,-5.0625,-0.25,3.8125,0.969054,0.116241,-2.20542
5464,73,19,1,0,-38,-67,35,47,-0.0922852,0.740723,0.526367,-5.0625,-0.25,3.8125,0.969054,0.116241,-2.20542
5464,-72,-33,-10,-3,0,13,-35,-15,-0.0922852,0.740723,0.526367,-5.0625,-0.25,3.8125,0.969054,0.116241,-2.20542
5466,-20,1,-3,-10,-6,12,-9,26,-0.0913086,0.721191,0.515137,0.75,1.875,1,0.969031,0.116082,-2.20478
5466,-16,-18,-3,-3,-4,-35,44,12,-0.0913086,0.721191,0.515137,0.75,1.875,1,0.969031,0.116082,-2.20478
5470,17,17,0,-6,-29,-46,-13,-18,-0.0913086,0.721191,0.515137,0.75,1.875,1,0.969031,0.116082,-2.20478
5470,22,20,7,6,41,77,39,14,-0.0913086,0.721191,0.515137,0.75,1.875,1,0.969031,0.116082,-2.20478
5479,5,49,1,2,-13,-20,-1,-2,-0.0961914,0.747559,0.520508,2.5625,2.75,2.1875,0.969817,0.115734,-2.20357
5479,-24,-16,-2,6,0,-22,-7,-23,-0.0961914,0.747559,0.520508,2.5625,2.75,2.1875,0.969817,0.115734,-2.20357
5495,-12,3,-1,-6,-34,-28,-5,6,-0.0961914,0.747559,0.520508,2.5625,2.75,2.1875,0.969817,0.115734,-2.20357
5495,8,-9,4,5,6,7,17,-3,-0.0961914,0.747559,0.520508,2.5625,2.75,2.1875,0.969817,0.115734,-2.20357
5496,28,6,-1,-2,-9,-4,16,83,-0.0966797,0.742188,0.507812,0.8125,3.375,1.4375,0.970264,0.11575,-2.20215
5496,-11,9,0,-6,-19,-11,-26,4,-0.0966797,0.742188,0.507812,0.8125,3.375,1.4375,0.970264,0.11575,-2.20215
5517,-9,-32,-5,0,49,30,-15,2,-0.0966797,0.742188,0.507812,0.8125,3.375,1.4375,0.970264,0.11575,-2.20215
5517,11,1,2,1,-10,-9,33,66,-0.0966797,0.742188,0.507812,0.8125,3.375,1.4375,0.970264,0.11575,-2.20215
5519,1,16,0,-3,13,28,-30,-8,-0.0795898,0.724609,0.510742,-0.5625,2.9375,1.9375,0.970012,0.115168,-2.20108
5519,13,-12,-1,-5,-5,-36,-16,24,-0.0795898,0.724609,0.510742,-0.5625,2.9375,1.9375,0.970012,0.115168,-2.20108
5540,-12,11,6,5,-1,-4,-25,-2,-0.0795898,0.724609,0.510742,-0.5625,2.9375,1.9375,0.970012,0.115168,-2.20108
5540,-2,-32,-9,-3,-17,30,-15,-52,-0.0795898,0.724609,0.510742,-0.5625,2.9375,1.9375,0.970012,0.115168,-2.20108
5541,1,36,1,-1,13,-16,5,3,-0.111328,0.73291,0.505371,1.875,3,3.0625,0.970799,0.115109,-2.19956
5541,-1,-19,0,1,4,37,37,-22,-0.111328,0.73291,0.505371,1.875,3,3.0625,0.970799,0.115109,-2.19956
5555,-21,1,-6,-10,-23,-24,24,0,-0.111328,0.73291,0.505371,1.875,3,3.0625,0.970799,0.115109,-2.19956
5555,10,20,9,0,-1,-27,-20,-15,-0.111328,0.73291,0.505371,1.875,3,3.0625,0.970799,0.115109,-2.19956
5560,14,9,-3,-1,-22,-29,-17,-19,-0.108398,0.736816,0.512207,1.5625,2.1875,2.6875,0.971235,0.11496,-2.19845
5560,-18,-19,-3,2,7,35,-13,-26,-0.108398,0.736816,0.512207,1.5625,2.1875,2.6875,0.971235,0.11496,-2.19845
5585,4,-3,-8,-4,20,85,44,57,-0.108398,0.736816,0.512207,1.5625,2.1875,2.6875,0.971235,0.11496,-2.19845
5585,11,28,2,0,-1,-28,-17,-25,-0.108398,0.736816,0.512207,1.5625,2.1875,2.6875,0.971235,0.11496,-2.19845
5586,-8,-32,-6,-4,-28,-69,16,14,-0.106445,0.729004,0.51123,0.8125,2.9375,4.125,0.971416,0.114357,-2.19678
5586,-4,7,-5,-2,-1,40,6,12,-0.106445,0.729004,0.51123,0.8125,2.9375,4.125,0.971416,0.114357,-2.19678
5591,4,27,13,9,21,56,0,30,-0.106445,0.729004,0.51123,0.8125,2.9375,4.125,0.971416,0.114357,-2.19678
5591,-20,-86,-25,-8,29,26,18,35,-0.106445,0.729004,0.51123,0.8125,2.9375,4.125,0.971416,0.114357,-2.19678
5608,-8,-6,-4,-7,-33,-52,-71,-86,-0.090332,0.740234,0.503906,0.25,2.75,4.5,0.971735,0.113289,-2.19498
5608,5,8,-1,0,15,51,5,3,-0.090332,0.740234,0.503906,0.25,2.75,4.5,0.971735,0.113289,-2.19498
5615,0,-8,5,-1,-22,-47,-11,-8,-0.090332,0.740234,0.503906,0.25,2.75,4.5,0.971735,0.113289,-2.19498
5615,-6,19,-2,-4,-31,-56,22,22,-0.090332,0.740234,0.503906,0.25,2.75,4.5,0.971735,0.113289,-2.19498
5616,13,-13,3,5,29,83,3,29,-0.0927734,0.755859,0.507324,4.1875,3.1875,4.1875,0.97356,0.112455,-2.19326
5616,1,-8,-2,1,26,-5,-36,1,-0.0927734,0.755859,0.507324,4.1875,3.1875,4.1875,0.97356,0.112455,-2.19326
5637,6,12,2,-1,-5,-14,0,-15,-0.0927734,0.755859,0.507324,4.1875,3.1875,4.1875,0.97356,0.112455,-2.19326
5637,-4,11,-5,-7,-21,-42,-46,-10,-0.0927734,0.755859,0.507324,4.1875,3.1875,4.1875,0.97356,0.112455,-2.19326
5638,16,-8,0,4,24,63,35,-6,-0.116699,0.774414,0.501465,3.25,3.0625,3.1875,0.975447,0.112473,-2.1917
5638,-32,-18,5,-2,-3,-12,10,-51,-0.116699,0.774414,0.501465,3.25,3.0625,3.1875,0.975447,0.112473,-2.1917
5660,-2,-5,-15,-5,-16,-50,-51,-47,-0.116699,0.774414,0.501465,3.25,3.0625,3.1875,0.975447,0.112473,-2.1917
5660,-10,-3,-7,-7,-33,-63,-76,-11,-0.116699,0.774414,0.501465,3.25,3.0625,3.1875,0.975447,0.112473,-2.1917
5661,16,8,5,7,21,54,-2,55,-0.0976562,0.770508,0.497559,0.625,2,0.9375,0.97618,0.11247,-2.19085
5661,-7,-20,-4,-3,-6,-11,-5,-8,-0.0976562,0.770508,0.497559,0.625,2,0.9375,0.97618,0.11247,-2.19085
5674,-13,-5,0,-9,-25,-38,-7,-36,-0.0976562,0.770508,0.497559,0.625,2,0.9375,0.97618,0.11247,-2.19085
5674,0,9,3,4,12,-9,82,-31,-0.0976562,0.770508,0.497559,0.625,2,0.9375,0.97618,0.11247,-2.19085
5676,19,27,6,4,-8,-42,-28,0,-0.0839844,0.741211,0.493652,0.25,0.75,0.375,0.976237,0.112326,-2.19094
5676,-3,-29,-2,4,30,31,3,14,-0.0839844,0.741211,0.493652,0.25,0.75,0.375,0.976237,0.112326,-2.19094
5697,10,2,2,-2,-5,14,-6,10,-0.0839844,0.741211,0.493652,0.25,0.75,0.375,0.976237,0.112326,-2.19094
5697,4,2,4,-5,-39,-28,-65,5,-0.0839844,0.741211,0.493652,0.25,0.75,0.375,0.976237,0.112326,-2.19094
5698,1,-9,-7,8,34,39,1,45,-0.102051,0.748047,0.51416,1.3125,1.1875,-0.625,0.976497,0.112653,-2.19056
5698,-1,0,-5,-3,-11,-38,-34,-17,-0.102051,0.748047,0.51416,1.3125,1.1875,-0.625,0.976497,0.112653,-2.19056
5720,-4,-13,-2,-3,1,15,55,-3,-0.102051,0.748047,0.51416,1.3125,1.1875,-0.625,0.976497,0.112653,-2.19056
5720,9,2,6,1,-12,-16,-41,13,-0.102051,0.748047,0.51416,1.3125,1.1875,-0.625,0.976497,0.112653,-2.19056
5721,-9,10,-3,-3,-4,-17,45,-51,-0.11377,0.752441,0.509766,2.125,2.3125,-0.8125,0.977331,0.113618,-2.19019
5721,3,14,1,-3,-24,-28,21,34,-0.11377,0.752441,0.509766,2.125,2.3125,-0.8125,0.977331,0.113618,-2.19019
5735,-2,-5,-4,7,45,126,52,20,-0.11377,0.752441,0.509766,2.125,2.3125,-0.8125,0.977331,0.113618,-2.19019
5735,0,-12,3,-1,-1,-23,-2,-7,-0.11377,0.752441,0.509766,2.125,2.3125,-0.8125,0.977331,0.113618,-2.19019
5737,-6,14,-3,-9,-22,-15,15,-32,-0.109863,0.740723,0.507324,-1,2.5625,0.3125,0.976826,0.114208,-2.18927
5737,8,-5,2,10,2,-21,9,49,-0.109863,0.740723,0.507324,-1,2.5625,0.3125,0.976826,0.114208,-2.18927
5757,-22,-15,3,8,19,51,-23,-40,-0.109863,0.740723,0.507324,-1,2.5625,0.3125,0.976826,0.114208,-2.18927
5757,8,17,-1,-1,11,19,31,-2,-0.109863,0.740723,0.507324,-1,2.5625,0.3125,0.976826,0.114208,-2.18927
5763,-13,-7,8,3,7,-41,-25,-24,-0.102539,0.73291,0.501465,1,2.1875,0.125,0.977147,0.114681,-2.18866
5763,-15,-4,-13,-9,23,86,3,-23,-0.102539,0.73291,0.501465,1,2.1875,0.125,0.977147,0.114681,-2.18866
5779,12,-4,7,-3,-19,-85,-7,13,-0.102539,0.73291,0.501465,1,2.1875,0.125,0.977147,0.114681,-2.18866
5779,0,-35,-20,-4,13,90,76,-12,-0.102539,0.73291,0.501465,1,2.1875,0.125,0.977147,0.114681,-2.18866
5781,-12,-8,3,1,-4,7,18,34,-0.0898438,0.750977,0.495117,0.9375,1,-0.125,0.977782,0.114546,-2.18839
5781,20,31,0,-7,-19,-57,18,-40,-0.0898438,0.750977,0.495117,0.9375,1,-0.125,0.977782,0.114546,-2.18839
5794,-1,6,5,5,-4,-21,-38,5,-0.0898438,0.750977,0.495117,0.9375,1,-0.125,0.977782,0.114546,-2.18839
5794,-7,6,0,1,16,12,-16,-9,-0.0898438,0.750977,0.495117,0.9375,1,-0.125,0.977782,0.114546,-2.18839
