0,3,-1,-1,-1,-1,-2,-2,0
0,0,-2,-1,-2,-2,-1,-1,-3
1,-1,-1,1,-2,-2,-1,2,-5
1,-2,-2,-1,-3,0,-1,0,1
1,-2,-2,0,-1,-2,-1,0,1
1,-2,-2,-1,-1,-1,0,0,-1
4,-1,-2,0,0,-2,0,-1,-1
4,-1,-1,-1,0,-1,-2,-2,-5
12,-1,-3,-1,-1,-1,-1,0,-5
12,1,0,-2,0,0,-2,-2,-1
20,-3,-1,-2,0,-1,1,-2,-2
20,-5,-1,-1,-1,-1,-2,-6,-3
28,1,0,1,0,-1,1,3,3
28,-3,-1,0,0,-1,-3,0,-2
41,-3,-2,-1,0,0,0,-1,-1
41,-1,-1,-3,-2,-2,-2,-2,1
53,-2,-2,-2,-1,-1,-2,-3,-1
53,1,0,0,-1,-3,-2,-1,0
65,2,0,-2,0,-2,-3,-1,-1
65,-1,-2,-2,-1,-2,0,-1,-2
73,0,1,-1,-1,0,0,-9,-4
73,0,-1,-3,0,1,1,10,3
101,1,0,-2,-2,-1,-2,-1,-1
101,0,-1,-1,-2,0,-1,6,0
128,-1,-2,0,-2,-1,0,-4,-1
128,-2,-1,0,0,-1,0,-4,1
129,-2,-2,0,2,-2,-2,-5,-1
129,-1,-2,-2,1,0,-4,-1,-1
132,0,-1,-1,0,-1,0,0,-3
132,0,-1,-1,-2,0,-3,-1,-3
134,0,0,0,-2,-4,-1,2,3
134,0,1,0,-1,-1,0,0,1
138,0,-1,-1,-1,1,-1,1,1
138,2,1,-1,-1,-3,1,1,-1
148,1,-1,-2,-1,1,2,-1,-2
148,2,0,0,-2,-2,0,-1,-1
154,-2,-1,-1,-1,-1,-1,0,-2
154,0,0,-1,0,-1,-1,-2,-2
171,-1,0,0,-2,-1,0,-3,-3
171,-1,-1,0,-2,-1,0,1,-1
176,1,-2,-2,-1,-3,-1,-3,-2
176,-2,-3,-3,-2,-2,-1,-3,0
199,0,0,-2,-2,0,0,-2,1
199,-2,-1,1,1,-1,-1,-2,-3
200,-3,-1,0,-1,-3,-1,-1,-2
200,-1,0,-1,-1,-2,1,0,-2
213,-2,-2,-1,0,1,-3,-4,-1
213,-3,-1,0,-2,0,-2,-3,-2
221,-2,-1,0,2,1,-1,0,-1
221,-2,-2,-1,0,2,1,1,1
237,-3,0,0,-1,-2,-1,-2,0
237,-1,-1,-1,-1,-1,0,-1,1
238,0,0,-1,-1,-3,-3,1,0
238,-1,0,0,2,0,-2,-1,1
260,1,0,-2,-1,-2,-3,1,0
260,-1,0,-2,0,-2,-3,-1,-1
260,0,0,-1,-1,-1,-2,-1,-3
260,-1,-1,0,0,-2,0,-2,-3
274,-2,-3,-1,-2,-1,-1,3,-2
274,-1,-2,-2,-2,-1,-2,0,-3
281,-1,-1,-2,1,1,0,-1,1
281,1,-1,-2,-1,-2,-1,-2,0
297,-1,-1,0,0,0,-2,-4,-2
297,0,-1,-1,-1,-2,0,-4,1
298,2,1,0,-1,1,-2,0,-1
298,0,0,-1,-1,0,-1,2,-3
319,-1,-1,-2,1,-3,-1,2,-1
319,0,-1,0,-1,-1,-3,0,-3
319,-1,-1,-1,-1,0,0,-10,0
319,-2,-1,0,0,0,-1,0,-1
333,0,0,0,-1,-1,2,3,3
333,-3,-2,-2,-2,-1,1,-8,-1
342,0,2,-2,-3,-1,-3,11,4
342,-2,0,0,-3,-1,-1,-5,-2
359,0,-1,0,0,0,0,-4,0
359,0,-1,1,-2,-1,-3,1,0
359,-2,-1,-1,-1,-2,-1,-4,-2
359,-2,0,-2,1,0,-2,-2,-1
379,-4,-1,-1,0,-2,-1,0,-4
379,-2,0,-1,-1,-1,1,0,3
380,-3,-2,0,-1,-2,-1,-2,-1
380,-2,-1,-2,0,-1,-2,-1,0
402,-1,0,-1,0,0,1,-2,-3
402,0,-1,-2,1,-1,0,1,-3
403,0,-3,-1,0,0,0,2,-2
403,0,-3,0,-1,1,1,-2,0
417,-2,-2,-1,-2,-1,-3,-7,-8
417,2,-1,-2,1,-2,-1,3,25
418,1,0,-1,-2,-1,-2,-3,-7
418,-1,0,0,1,-4,-1,0,-13
440,-1,-1,-1,1,1,-1,-3,-3
440,-5,-3,-2,-1,-1,-1,3,-17
441,0,-1,-1,-2,-2,-1,-3,1
441,1,1,-2,-3,0,-1,-1,3
454,-1,-2,0,-2,-1,-1,-1,-6
454,-1,-2,-1,1,0,-2,-4,-7
469,-1,-2,-1,0,1,1,0,4
469,-3,-1,-1,-1,-1,-2,-6,-16
484,0,2,-1,-1,-1,1,1,34
484,0,0,-1,-3,0,-1,-2,-3
486,-1,0,1,0,-1,-2,2,-1
486,-1,0,0,0,-1,0,-1,-7
499,1,-1,-2,0,0,0,-1,-13
499,-1,-1,0,-1,-1,0,0,5
500,-1,-3,-3,0,-2,-1,-2,-5
500,-3,-3,1,-2,-1,-1,0,9
513,-5,-1,-1,0,-2,-3,1,-5
513,-1,-1,0,0,2,0,3,0
529,-5,0,1,-3,-3,-3,-1,2
529,2,-1,-1,-1,1,-2,1,1
537,-2,-3,-1,-2,-1,-2,-1,1
537,0,0,-1,-2,-3,0,-1,6
537,0,-1,-1,0,1,2,-4,-8
537,-1,-2,-1,-3,-2,1,-3,6
559,0,0,0,0,-2,-3,-8,-5
559,0,1,0,-1,-3,-2,3,-7
567,-3,-1,-1,0,-1,-3,-7,-5
567,-5,-2,-1,-2,-3,-1,15,-6
582,3,-1,-1,-2,1,-1,3,12
582,-4,-3,-1,0,-1,-2,-2,-8
582,4,-1,1,1,-1,-2,0,3
582,-4,-2,0,-1,-2,-2,-11,-20
597,-1,-2,-2,0,0,1,-2,-5
597,0,-1,-3,-1,-1,-1,-4,1
597,-1,-1,-2,-1,1,1,-2,-6
597,2,-1,-2,0,-2,-1,-4,11
619,-3,0,0,-2,-1,-2,1,3
619,-1,1,-1,-2,0,-1,-2,0
619,0,-1,0,-3,-1,-1,1,4
619,2,0,1,1,-1,-3,2,9
634,-1,-3,-1,1,-2,-1,4,-2
634,1,-5,-3,1,-1,-3,0,-2
641,-1,-1,-1,-1,-2,-1,-1,-16
641,2,-1,-1,-2,-2,1,1,12
657,1,1,0,-1,0,2,-4,-6
657,-5,1,0,-1,-1,-1,-2,-26
657,3,2,2,0,1,1,4,12
657,4,3,-1,-1,-1,0,-1,4
679,0,-1,-1,-3,-2,-4,0,-1
679,-2,-3,-1,-1,0,1,-2,-14
680,-5,-3,-3,-2,0,0,-7,-8
680,2,0,0,0,1,0,-7,-5
702,2,-1,-1,-2,-2,-2,5,8
702,0,1,1,-1,-2,0,7,8
703,-5,-2,-1,-1,-1,-1,6,3
703,-2,1,0,2,0,-1,-1,6
717,1,0,0,1,0,-2,-6,-5
717,0,-1,-1,-2,2,-3,-8,1
718,-7,-5,-5,-3,-3,-3,-5,4
718,-4,-2,-1,1,2,2,3,-4
739,4,1,-6,-1,0,-1,-4,-10
739,2,-1,-3,-2,-2,-2,0,-4
740,-3,1,0,-1,1,0,3,14
740,-1,-3,-3,-2,-3,-2,0,18
753,-6,-3,-4,-3,-2,-3,1,11
753,-12,-3,0,-2,0,0,-4,1
761,-4,-2,-1,2,0,-1,-5,-22
761,6,0,-1,-3,-2,-3,-4,-20
777,-4,-2,1,-1,-4,3,-1,-1
777,6,-2,0,0,-1,-1,2,13
778,-4,-3,1,1,-2,-1,-2,-3
778,-3,-3,-1,0,-2,-2,0,0
800,-3,-1,0,-3,-1,-3,0,-3
800,-4,-3,-3,0,0,-1,-4,-1
800,3,1,0,-3,-3,-1,-1,0
800,2,-2,0,-2,0,1,1,7
813,0,-1,-1,-1,1,1,-2,3
813,0,1,-3,-1,-2,-3,-3,-3
821,0,0,0,1,-1,-1,-3,3
821,-4,-2,-2,-1,-2,-2,-12,-6
837,-4,-2,0,-1,-2,-2,8,0
837,9,5,3,2,-1,2,3,-2
838,2,0,-1,0,1,0,5,4
838,-4,-2,1,-2,0,-2,-2,-4
859,2,-1,0,2,-1,-3,-7,-6
859,4,-1,1,-1,-1,0,1,9
860,6,1,9,-1,0,1,0,-3
860,-8,-2,0,0,-3,0,-4,-3
874,-5,-2,0,-3,-1,1,2,-1
874,-4,-4,-19,-2,1,-1,-1,-1
881,1,0,8,1,0,1,1,-1
881,-1,3,-9,-3,0,0,3,-1
897,4,-1,5,4,-1,-1,-1,-4
897,-2,1,-2,-1,0,-2,-4,-1
898,-6,-5,-10,-2,-2,-1,-2,-3
898,16,3,-1,1,-1,-2,0,2
920,-1,1,-1,-2,0,-1,-4,-2
920,2,1,4,-1,-2,-1,0,2
920,2,-2,-1,-1,0,-1,-2,5
920,-1,-1,1,-1,-1,-2,3,-3
934,-3,-2,-5,-2,0,-1,-2,-7
934,0,-1,3,3,0,0,0,0
941,0,0,-1,-2,-2,-3,0,2
941,-6,-5,-3,-2,-4,-2,1,-6
957,0,-1,-1,0,0,1,3,-3
957,1,-1,2,-2,0,2,5,1
958,-4,-1,-5,0,-1,1,1,-2
958,-4,0,-2,-2,-2,-1,2,0
979,-8,-3,-3,-1,-2,-1,0,-5
979,6,1,1,-1,-1,-3,-3,1
980,2,0,-1,1,0,1,15,3
980,2,-3,-11,-2,-1,-1,2,-1
1002,-2,-3,5,-1,0,1,-2,-2
1002,1,-3,-2,-3,-3,-3,-10,-5
1003,-3,1,0,-2,-1,-2,-13,-2
1003,-4,-3,-3,-1,-1,0,-6,-1
1017,-3,-1,-10,-2,-2,-3,-8,-5
1017,3,4,10,1,1,0,6,16
1024,0,-2,-5,-3,-2,-1,-6,-17
1024,-1,5,11,-1,1,0,-3,-14
1039,-1,3,1,0,1,2,-1,3
1039,-12,-4,-1,-2,-2,-2,-5,-23
1040,0,1,-5,0,-1,-1,-1,19
1040,1,-2,-4,-1,-2,-1,-2,2
1061,-2,0,-2,-1,-2,-2,-1,21
1061,0,-3,29,6,0,0,-1,11
1062,5,15,14,1,-2,-1,0,-13
1062,-27,-16,9,0,-3,-1,-9,-39
1077,12,-12,-24,-4,-4,-1,5,28
1077,-9,-4,6,-1,-3,-4,-11,-34
1077,4,-4,-4,-2,0,1,1,38
1077,7,7,6,3,6,3,10,0
1099,5,3,0,2,-1,-2,0,-14
1099,-3,-2,-8,-4,-1,-1,5,20
1100,-8,-3,-2,-3,-3,-6,-12,-28
1100,0,1,-6,-2,1,0,-1,1
1124,-1,-4,5,-3,-1,-1,-2,-10
1124,14,4,-3,1,0,-2,0,3
1130,9,-2,-5,-2,-1,2,3,1
1130,4,0,-3,-3,-4,-3,-8,9
1144,-4,3,-14,-1,2,2,5,-14
1144,0,-6,13,4,-1,-3,1,14
1145,-1,-3,-5,-3,0,-1,-6,3
1145,-8,-2,-5,0,-2,-3,4,-4
1168,3,5,50,4,-2,-4,2,7
1168,-7,12,-7,-3,1,1,2,-15
1168,-4,-25,8,19,8,2,-1,-22
1168,6,6,16,6,4,0,2,51
1182,-6,2,-7,-11,-9,0,-5,-44
1182,-18,-1,2,-1,0,-6,-16,-43
1182,12,-12,4,20,5,1,12,92
1182,-1,13,-16,-5,-19,-5,-3,-42
1205,9,2,24,-1,4,2,9,75
1205,8,4,-11,-7,-4,3,-2,-21
1205,-6,6,-17,-15,-1,-3,0,-20
1205,-22,-10,-6,12,8,-1,-19,-78
1219,3,-14,14,2,2,9,18,76
1219,1,6,-16,-2,2,-10,-8,8
1227,25,-2,-3,4,0,-7,-6,-6
1227,11,15,16,5,-2,-4,-3,-7
1242,-9,9,6,1,-1,-2,3,-8
1242,-10,-12,-28,2,-4,-2,-3,-3
1243,6,4,11,-11,-5,2,4,-19
1243,21,3,33,-2,2,6,11,53
1264,-30,-39,-11,24,-1,4,-17,-63
1264,10,4,-24,2,-8,-5,-9,15
1265,-10,30,-8,-18,-22,-14,-1,-60
1265,-28,-17,3,5,10,-5,-7,-63
1279,28,22,-50,-71,27,18,22,59
1279,-2,-20,7,-33,-66,-13,-5,-7
1303,-76,-16,32,-22,22,70,-20,-77
1303,55,18,-4,-12,-35,-77,26,83
1304,-3,10,28,79,-26,-24,0,-50
1304,-36,-1,-24,-54,-13,-29,-18,-15
1306,13,-3,-3,19,13,-4,-9,-3
1306,-18,-52,-16,-17,36,48,1,-80
1324,-42,58,-20,-3,35,25,-25,-11
1324,-22,-7,37,54,27,23,2,-78
1325,14,42,93,123,34,3,39,71
1325,-6,-86,-103,-34,1,4,-19,15
1340,10,3,77,16,-82,-35,15,29
1340,5,9,-22,-18,-12,9,-10,-3
1347,-61,-34,37,54,-2,-4,1,18
1347,23,16,-19,-17,24,9,7,2
1362,-29,14,33,38,4,-8,-19,-61
1362,6,-27,21,14,-20,-35,-25,-22
1363,93,-22,-70,17,24,19,25,33
1363,-50,119,11,-5,18,27,4,14
1384,67,-18,-19,-3,-4,17,1,40
1384,0,-29,15,-16,82,47,16,16
1385,-65,49,26,53,-18,-66,-37,-69
1385,11,-76,5,-83,-109,-62,-22,-16
1409,-13,-65,-40,-47,-3,-10,-21,-3
1409,-4,73,79,75,8,8,8,20
1409,26,22,-86,-128,10,22,21,24
1409,-30,-46,72,127,42,33,10,38
1421,22,-2,-64,-83,27,-3,-10,-28
1421,-7,-81,-26,-66,-20,-1,-5,-18
1422,15,84,26,-22,-44,-1,13,60
1422,25,1,-13,25,22,99,18,9
1444,-39,-81,-38,10,-4,-96,-8,-75
1444,56,77,65,32,0,15,8,-17
1445,-18,-70,16,-20,-5,-23,-41,46
1445,46,46,26,-105,-17,-8,20,58
1468,-4,-25,-51,-46,3,31,9,9
1468,-34,-58,-6,50,23,13,25,-4
1468,-61,-70,-22,33,-27,-19,-11,-71
1468,67,-71,25,22,35,2,1,54
1482,-32,17,29,32,6,22,-15,-50
1482,22,38,-16,-15,-27,-35,0,37
1482,49,-26,-24,-35,-5,15,-5,24
1482,-87,16,-20,13,-2,-23,-15,-59
1504,13,30,38,20,7,21,6,-12
1504,15,23,3,65,32,-10,12,34
1511,-26,-8,-36,-49,-24,-2,-8,-90
1511,19,31,16,87,-54,-50,11,64
1527,4,-3,-30,-34,-26,-2,-3,18
1527,17,-16,-14,9,12,47,10,18
1528,-16,18,78,92,33,-36,0,-53
1528,-76,-4,-41,-1,-11,-27,-64,-128
1542,103,54,72,40,-5,29,72,107
1542,-3,-15,-86,-14,19,34,7,-81
1543,5,36,46,18,0,-15,1,-90
1543,-25,-44,-78,-12,15,-21,3,54
1566,-59,-20,11,-55,-48,-9,-44,-75
1566,2,14,6,20,12,-6,9,36
1568,-7,-33,-35,-26,33,13,-8,-75
1568,1,8,16,40,-13,70,56,96
1589,18,0,-84,-62,-1,-13,-16,58
1589,54,34,27,-23,-31,-13,34,113
1590,1,-22,-40,11,-13,-4,-65,36
1590,-7,21,-40,9,88,-49,5,-83
1602,13,4,28,-15,-88,-23,16,47
1602,-101,-57,-9,-62,19,8,-32,-53
1602,80,46,-22,65,24,24,57,85
1602,-10,22,116,78,27,29,0,-111
1624,-37,-3,-71,-43,-26,-46,-51,-87
1624,9,-22,-22,-85,19,-32,6,36
1625,-70,-41,-84,-81,-44,50,-29,-85
1625,58,57,77,34,34,34,4,29
1648,22,-14,5,32,-3,32,95,37
1648,-2,-5,-11,-8,-36,-28,-43,-72
1648,10,56,51,34,-23,-50,16,60
1648,-46,-12,40,5,23,19,-49,-38
1662,-3,5,74,63,8,-47,-22,-12
1662,31,39,19,123,40,100,79,81
1663,40,-36,-9,6,-50,-101,-27,50
1663,-12,0,-2,1,-29,-2,3,-25
1684,-2,-59,-81,-68,3,-44,-8,74
1684,9,36,66,91,19,78,15,-41
1685,1,52,11,65,38,15,-2,-32
1685,19,5,56,-38,-9,-78,-47,-24
1708,-32,30,27,-12,22,-4,-52,-62
1708,-17,-52,-51,17,-2,59,29,-2
1708,69,-2,72,103,94,-50,51,80
1708,-6,-47,-46,49,-1,74,27,8
1722,-52,-1,-13,8,-31,-80,-62,-84
1722,-11,1,61,79,-38,-6,2,-19
1723,-1,-7,-93,-128,-128,-59,-64,-19
1723,16,-12,-24,39,46,-20,1,42
1745,7,0,-2,-43,123,101,16,5
1745,-1,31,25,24,19,40,37,-28
1745,-5,-5,93,75,83,103,63,97
1745,-22,-17,-68,-47,-41,11,37,-23
1767,-16,-3,21,68,8,-27,-4,31
1767,-6,3,-33,-80,-95,-128,-125,-40
1768,-16,-18,-9,-85,-26,28,29,-43
1768,8,23,70,37,67,35,35,71
1782,-2,6,-84,-49,-63,17,19,-31
1782,4,-8,32,96,45,44,1,-4
1783,-17,-15,-42,-89,23,23,-25,6
1783,10,18,-53,-25,-28,-11,-14,-12
1804,48,10,59,62,-6,63,26,59
1804,-8,-6,-6,-13,-5,-120,-64,-7
1805,-26,-17,-43,-8,-59,94,13,-67
1805,3,-3,-19,-6,44,-76,-12,69
1827,18,23,33,66,-5,7,7,-5
1827,-17,-8,-56,-95,-78,-91,-50,-28
1828,-7,-7,17,-22,43,5,7,23
1828,23,22,4,-40,-62,10,-16,-59
1842,-18,-25,-6,42,31,4,0,-65
1842,7,14,20,73,61,69,80,122
1843,-5,-1,-5,11,61,-29,-4,-1
1843,3,8,-8,63,-80,4,-1,10
1864,5,-9,-9,-24,52,45,-1,-17
1864,-16,-21,-68,-99,-63,-65,-17,-26
1865,5,-4,8,37,-7,-17,-29,-14
1865,-6,-3,11,15,29,20,8,-12
1887,11,25,31,53,28,51,27,35
1887,-6,-10,13,27,39,27,3,-36
1888,-4,-3,-31,-10,-28,-37,-8,-7
1888,8,-3,18,-16,-54,-53,-19,2
1902,-9,1,17,17,26,30,-16,-9
1902,8,4,9,-22,19,-16,54,23
1902,11,7,18,5,-15,28,-13,27
1902,-9,-10,-22,3,-11,-60,-37,-44
1924,-20,-8,2,20,-15,-34,-28,-7
1924,5,4,-1,-24,32,52,16,-12
1925,-20,10,11,2,34,48,33,-20
1925,-8,-1,6,-39,30,40,17,30
1948,6,1,4,15,-13,-24,10,-9
1948,4,-10,-9,-30,-41,-15,-28,17
1948,-7,-9,4,29,-7,-48,-33,-58
1948,9,-3,2,10,38,25,10,3
1962,18,11,-9,-32,-29,-3,13,-21
1962,18,3,-1,-28,7,27,11,16
1976,5,-5,-5,48,3,-24,-20,9
1976,-10,-5,-17,-15,-51,-12,20,-5
1984,0,2,-6,-6,-2,-56,-43,-13
1984,-9,-14,7,18,8,6,-5,-1
1985,-7,-4,-1,19,29,84,23,-1
1985,11,-3,5,-21,30,19,7,-10
2008,7,19,14,46,23,-36,27,-5
2008,-8,-4,-31,-78,-92,-18,-27,-16
2009,-9,-20,-3,-13,-10,-34,-9,22
2009,-6,0,-8,7,8,11,-8,-5
2022,4,-6,26,37,30,35,10,24
2022,-1,3,-23,-10,25,-6,7,-6
2022,3,-4,-13,-50,-33,38,29,13
2022,1,-10,-17,-25,-1,-14,-9,6
2044,-3,10,0,-22,-40,-51,-18,-8
2044,-3,4,21,54,26,-33,-33,-9
2045,-2,2,-7,14,-2,6,7,8
2045,-5,3,12,-24,20,74,9,3
2068,-5,-2,-3,7,29,-25,24,0
2068,3,3,0,-14,-20,-1,0,-8
2068,6,4,-6,-6,-10,-28,-10,1
2068,-13,-4,-33,-22,-14,-19,-21,-11
2082,-6,-3,5,-1,5,49,5,-11
2082,-7,0,2,11,6,9,-3,-8
2089,22,4,20,44,30,13,22,21
2089,10,9,-1,-49,-22,-6,9,1
2105,-8,-10,-5,-11,-16,16,-12,4
2105,0,-16,-12,-11,-8,-27,-1,4
2106,-23,-5,1,-3,0,-33,-27,-21
2106,2,1,5,18,-14,-15,-4,10
2135,10,-3,-18,-25,-4,47,15,12
2135,6,5,11,7,20,-5,12,2
2136,-6,2,17,46,-12,-20,-7,-16
2136,14,0,-10,-36,-28,-29,1,16
2141,-14,-8,-22,22,21,27,-3,-6
2141,-2,4,15,2,6,31,5,17
2149,0,2,1,-9,-1,-22,1,6
2149,-11,-2,3,26,-10,-10,-16,-28
2164,5,10,21,21,21,19,12,6
2164,8,-3,13,-5,21,46,9,3
2165,1,-7,-13,-33,-38,-24,9,8
2165,-8,-7,-4,4,-21,-44,-19,-3
2187,-3,-5,4,-15,-33,-58,-32,-5
2187,-4,6,-14,-7,-1,-19,-12,-9
2194,-3,-10,-7,-15,6,49,9,-2
2194,6,3,7,15,24,38,15,12
2201,2,-2,9,16,22,11,12,1
2201,1,2,2,6,-6,-5,-6,1
2209,7,3,-25,3,6,20,-5,-2
2209,-6,1,36,28,7,-36,8,-2
2224,0,2,6,21,-28,-19,-7,-6
2224,-4,-9,-13,-17,-15,1,-4,-6
2225,0,0,5,-12,14,22,0,2
2225,4,6,-5,5,17,-6,2,6
2255,2,3,-8,-24,-11,4,2,-7
2255,-1,-3,-6,5,-8,-40,-20,-1
2255,-2,-4,41,8,14,-3,-5,-6
2255,-6,-4,-9,-11,-29,19,-2,-2
2261,2,-1,-10,-10,14,5,6,0
2261,1,0,-5,4,-1,15,14,5
2277,-7,3,0,-11,-1,-29,-11,-5
2277,-2,-4,-15,-3,-6,18,2,6
2284,-10,-3,10,-2,9,13,-4,-9
2284,0,3,1,3,-8,-12,12,3
2285,3,-3,0,4,13,6,0,3
2285,3,6,1,-1,-1,16,3,2
2308,1,-10,-2,22,10,-24,3,4
2308,-7,-7,-9,-2,-6,-12,-8,-6
2308,-6,-3,-20,-55,-47,-58,-26,-10
2308,3,0,-3,-11,3,-12,-3,0
2321,-2,2,13,5,0,26,7,7
2321,1,-7,-11,19,45,43,16,5
2330,0,-2,-8,-9,-5,15,10,3
2330,2,1,14,17,34,16,-3,-1
2344,4,16,14,-1,-3,13,2,1
2344,-1,-7,13,-7,-38,-54,-8,-5
2344,-6,0,-4,10,-17,-17,-10,-6
2344,1,1,-16,-19,3,-2,1,0
2368,0,-5,0,18,23,32,2,5
2368,3,5,10,4,9,7,-1,0
2368,0,5,-4,0,7,-12,13,2
2368,0,-2,8,24,18,38,8,-4
2382,-5,-6,2,-13,-32,-27,5,3
2382,-6,0,-14,-8,-10,-29,-20,-4
2389,-5,-3,-2,-13,-18,-30,-17,-3
2389,1,-2,-3,7,-3,5,3,-3
2412,1,-1,-6,-7,1,36,7,1
2412,3,3,3,5,14,-4,7,-5
2414,4,4,15,52,36,43,15,3
2414,-12,-9,-8,-102,-49,-62,-27,-6
2427,-2,-3,-14,-15,-20,-39,-19,-2
2427,3,14,-14,11,8,44,17,8
2428,2,-12,2,1,31,16,7,1
2428,0,1,0,23,-1,19,4,-1
2450,-5,-3,-6,-18,-5,-37,-13,-8
2450,-2,-4,5,-2,-13,-16,-7,-3
2451,0,12,33,13,-5,3,-3,-4
2451,1,8,1,12,12,48,14,9
2464,1,0,-3,4,25,-1,11,-1
2464,-6,0,5,-5,-27,-20,-9,-11
2466,1,1,-9,-9,-47,-42,-24,-5
2466,-2,-6,-13,-18,-11,-33,-7,-2
2487,-4,-3,-24,-10,9,12,-7,2
2487,2,0,7,9,24,32,9,4
2489,0,-7,-16,1,2,15,11,4
2489,1,1,13,8,-1,-10,-8,1
2509,1,3,6,13,15,20,5,5
2509,0,-7,-3,-2,7,6,-1,-3
2512,0,-2,-7,-13,-20,-2,6,-1
2512,-2,1,0,36,22,24,-13,-2
2523,0,5,28,12,-9,-61,4,0
2523,-9,-8,-11,-50,-34,3,-16,-5
2532,-2,-5,-2,-6,-1,-12,-2,-2
2532,-2,0,-13,-11,-14,17,6,-2
2555,-13,-8,6,21,22,-21,-13,-18
2555,24,8,6,16,21,20,32,30
2556,7,5,-6,-11,4,20,5,-4
2556,3,-1,-1,28,27,-13,-2,-4
2569,-2,-1,-7,-34,-44,24,-16,-12
2569,-11,-5,-3,-21,-21,-59,-19,-11
2577,-9,-7,-9,18,9,15,-2,2
2577,1,-4,6,-12,4,-1,5,9
2583,0,0,4,20,15,20,12,7
2583,-6,1,3,-4,6,34,2,-7
2599,3,5,2,-11,-10,-14,-5,4
2599,-10,-5,-11,2,5,-44,-18,-10
2608,6,5,9,-15,-26,-4,5,12
2608,-6,-2,4,7,-4,14,-2,-3
2609,6,2,-1,16,37,6,8,5
2609,-2,-1,2,-7,-30,5,11,-11
2630,3,-3,-20,3,-10,-16,-8,-4
2630,-2,-5,-1,-12,3,-4,-12,0
2631,-6,-1,4,7,15,12,9,-3
2631,0,5,-9,-18,-15,-1,1,-1
2644,-2,-16,8,4,1,-11,-6,-1
2644,6,5,-16,5,46,75,17,9
2653,7,8,6,13,-1,-82,3,1
2653,1,-6,-23,-7,-40,1,-4,-2
2667,-17,-10,-20,-25,-40,-55,-34,-13
2667,-8,-1,8,4,-27,11,-16,-1
2669,-1,-2,-5,-4,39,69,10,6
2669,4,6,11,28,46,2,15,4
2690,8,13,8,-1,-17,27,14,-2
2690,-11,-4,-10,13,-6,-69,-27,-19
2692,10,9,11,3,16,-2,6,13
2692,0,-15,18,-30,-24,58,13,4
2704,1,-8,-15,0,34,41,12,2
2704,-4,-3,9,2,-25,-85,-11,-12
2713,-8,-6,-17,-27,-55,-32,-30,-15
2713,-6,-5,-8,-3,7,12,-13,-2
2728,9,3,9,17,36,21,26,18
2728,-3,-10,-17,-4,14,61,26,-8
2729,-1,-5,-2,23,-9,-34,0,2
2729,-3,-3,-11,5,-22,-22,-14,-2
2749,-1,5,0,-14,6,-10,-14,-3
2749,3,5,-2,11,-9,-17,-6,2
2752,-4,-4,20,25,-3,15,-2,-7
2752,-1,3,-15,-11,11,-5,17,1
2764,13,7,-3,16,15,-7,-9,17
2764,0,1,3,-4,8,-12,-9,0
2773,-7,0,-2,-12,-17,6,-3,-13
2773,-6,-1,10,13,1,-22,-17,-6
2788,2,-2,6,8,16,42,9,-1
2788,6,2,5,13,34,24,22,9
2794,-8,1,1,-17,9,22,-1,-6
2794,16,18,42,29,9,-38,10,8
2810,-12,-14,-27,-33,-57,-34,-10,-12
2810,-6,0,4,-2,-15,16,-10,-3
2812,-6,-6,-13,-12,8,12,1,-1
2812,1,14,1,10,24,-6,5,0
2823,4,-14,-6,-30,2,9,16,7
2823,4,5,3,22,42,37,12,6
2833,-6,-2,-16,-46,-67,-30,-10,-10
2833,2,-7,-13,-7,-26,-15,-13,1
2847,-3,-3,1,12,-13,-68,-48,-10
2847,0,1,-7,-5,4,9,8,0
2854,-1,-1,5,14,33,34,14,4
2854,1,-2,-36,-17,2,29,5,0
2878,-5,-3,8,4,-8,-17,15,2
2878,4,4,17,21,13,21,-7,-1
2885,7,1,-2,-13,-8,-26,-8,3
2885,-10,-3,-35,-25,-27,-21,-9,-2
2885,-8,-11,-8,30,47,25,9,-5
2885,-11,-7,-9,-38,-49,23,9,-9
2893,15,5,10,3,5,-25,-4,10
2893,1,-1,3,-5,-11,-9,-2,-7
2908,-6,5,4,6,2,8,-14,-10
2908,-3,-5,7,9,24,-16,9,-3
2909,-4,-1,-22,-13,9,-9,6,-6
2909,-5,-11,3,0,-75,-45,-24,-2
2930,-5,5,8,-3,-6,1,6,-8
2930,6,-1,0,7,-13,9,-6,15
2931,-12,-5,0,9,16,12,-13,-10
2931,14,2,28,-4,37,52,9,16
2944,-4,3,-4,7,-17,-61,-9,-5
2944,3,3,-3,-30,-21,-38,-18,-7
2952,7,-4,10,-1,-10,34,11,8
2952,-2,2,0,14,41,18,11,-1
2967,2,5,-3,-7,0,57,15,3
2967,4,2,0,11,2,-62,-8,2
2968,-9,-1,-4,3,-6,7,-4,-12
2968,2,-4,4,-5,-12,-11,6,2
2989,5,-2,1,-7,27,60,14,12
2989,-8,-4,-1,42,42,-48,-22,-14
2992,10,6,-13,-25,-71,-29,-2,6
2992,-8,3,-5,-31,-36,-33,-18,-12
3003,0,-11,12,15,28,48,9,5
3003,-2,0,1,5,14,26,18,-1
3013,1,-1,-5,-6,-20,-18,12,2
3013,-7,-1,-3,10,4,-33,-22,-7
3027,3,5,-8,-18,-8,-11,-6,-1
3027,-4,3,3,2,14,52,-5,2
3029,-2,-2,13,17,48,29,15,-3
3029,17,7,4,23,18,39,27,14
3050,-12,-5,-7,-7,-40,-91,-44,-16
3050,0,-2,-8,-50,-47,-30,-8,3
3052,-4,-1,-7,1,-1,-11,-6,-2
3052,-6,-10,-4,-1,21,56,9,-2
3063,4,-1,-6,7,24,26,15,6
3063,4,-1,1,-7,30,-4,8,-2
3090,3,-1,-10,-22,-58,-27,-13,-1
3090,-2,-3,3,1,-5,-4,3,-8
3090,1,4,2,13,8,-32,-24,1
3090,-4,-3,-10,5,-26,-6,1,-3
3094,-3,-4,9,3,34,44,2,3
3094,3,-1,1,5,26,5,14,10
3110,2,3,2,-7,-4,14,22,-1
3110,8,3,4,22,-34,-10,-1,3
3112,-5,0,-1,8,9,-37,-27,-5
3112,-8,4,-3,10,32,35,-2,-3
3132,-1,0,5,10,-2,-21,-2,-5
3132,2,-4,-11,3,-9,-5,-1,5
3134,-4,-5,4,6,1,-9,1,-3
3134,-6,-3,-4,1,-31,-40,-35,-8
3147,4,3,-5,-15,17,53,18,8
3147,-6,-5,-10,-15,-5,-12,4,-8
3149,-1,4,10,29,9,16,-1,1
3149,-2,-4,-5,-5,29,37,9,-2
3178,3,5,-6,9,-21,5,20,6
3178,-9,-6,-10,-28,-44,-83,-32,-3
3179,-5,-3,-5,-4,20,13,5,-5
3179,-5,-4,8,45,20,21,-1,-7
3184,2,1,-9,-43,-33,-49,-10,1
3184,5,1,1,-11,16,66,22,6
3193,6,2,1,14,13,31,8,10
3193,7,-4,-5,-29,-13,-40,-4,-1
3207,-11,-6,-1,-15,-32,-34,-8,-6
3207,-1,0,6,6,-5,-1,-32,-6
3209,-2,-1,-5,4,23,-13,10,-1
3209,0,-1,0,-9,-5,23,3,-2
3229,0,0,4,3,5,14,-2,2
3229,5,1,4,4,4,-34,12,2
3232,-2,-1,-1,24,6,-3,-14,-10
3232,-2,-5,-8,-39,-45,-11,-1,0
3244,-9,-2,16,16,2,34,1,-8
3244,4,1,5,4,19,31,13,2
3252,-2,-3,5,-5,-13,-44,-11,2
3252,-6,0,-17,7,21,-27,2,-3
3268,1,-7,3,7,-3,35,1,3
3268,-6,-2,-7,-15,-1,26,13,-5
3269,6,-1,-4,-26,-31,-7,-1,5
3269,-4,-8,0,-5,-30,-43,-33,-6
3290,-6,0,-5,-4,9,-24,-12,-10
3290,-5,-1,3,24,38,81,18,-2
3292,4,-1,-3,-14,11,-26,-7,-1
3292,6,7,6,-6,-38,3,7,3
3304,2,2,2,13,34,8,8,1
3304,6,2,5,20,-10,-4,7,1
3313,-8,-4,-20,-37,-27,-11,-16,-6
3313,-7,-8,7,11,21,-9,-6,-2
3327,-1,2,0,5,2,23,10,2
3327,-1,2,13,-12,-14,-39,-12,-2
3329,0,-1,-7,-3,5,29,10,0
3329,5,-1,3,4,4,2,7,6
3366,-1,1,4,19,34,2,11,-7
3366,5,0,-11,-8,-21,18,0,3
3368,1,0,0,-8,-27,-41,-12,3
3368,-13,-5,-4,-16,-19,-24,-3,-11
3368,1,-2,-4,4,10,18,-16,0
3368,-15,-5,-2,29,43,-13,-4,-8
3389,8,6,7,-5,3,57,18,13
3389,11,7,-3,13,25,52,24,11
3390,-10,-6,-6,-3,-21,-14,-8,-5
3390,14,6,1,-15,-26,-65,-12,7
3394,-2,-3,2,-10,-34,-20,-7,-5
3394,-6,-7,9,13,7,-27,-9,-5
3410,2,1,3,-1,13,39,3,4
3410,-3,2,4,14,32,39,10,-6
3412,-3,-1,-5,-1,2,16,20,-2
3412,7,4,-3,-3,-14,-40,-10,7
3432,-2,-5,-9,-11,-7,41,-5,-2
3432,-9,-1,-20,22,19,-50,-11,-7
3434,-3,-15,8,-16,-34,-18,-13,-4
3434,-3,-2,-4,0,-9,4,7,-2
3447,2,0,-7,-19,6,-22,6,1
3447,-3,-9,-8,-6,8,30,2,1
3449,-6,4,-1,23,31,51,0,-4
3449,-3,1,0,-16,-1,-4,6,2
3470,3,-2,0,-1,-8,-28,-26,4
3470,0,0,-5,-13,-30,-39,-13,0
3472,-10,-3,-3,7,15,21,2,-5
3472,0,-2,8,12,33,7,2,-2
3492,-9,2,-1,-12,-22,-18,8,-4
3492,-7,-5,4,-18,-34,-12,-11,-7
3494,4,0,-3,12,23,43,9,6
3494,1,3,-2,14,35,-1,11,-1
3508,7,1,-4,-38,-17,7,15,4
3508,-6,-7,-2,-20,-67,-52,-28,-8
3509,-3,-2,-4,-3,0,-5,-13,-4
3509,-3,2,2,2,18,13,2,-3
3530,6,5,4,13,20,-1,3,8
3530,0,0,5,-3,-2,19,12,1
3532,2,3,-5,-7,-10,-27,-6,-5
3532,-7,-6,-7,-7,7,46,1,2
3560,2,1,1,12,-20,-46,-10,-1
3560,-1,-3,-1,-3,8,21,8,3
3561,-4,1,1,6,15,24,-2,-5
3561,-5,0,3,11,-15,-54,-19,-9
3567,1,-2,2,35,18,2,-1,0
3567,0,-1,-9,-25,-18,36,13,5
3575,-4,0,-1,-20,-18,-43,-4,-5
3575,-4,-5,-15,-8,-23,-12,-12,-8
3598,-1,-7,-3,-3,-1,-8,-3,-1
3598,-3,1,-2,5,14,27,6,-3
3599,-2,-7,16,10,33,57,17,3
3599,2,1,10,-7,2,-47,5,5
3613,2,2,0,7,-31,-30,-12,-3
3613,2,1,-1,2,13,24,5,-1
3614,-12,-1,-8,-2,-7,-19,-3,-14
3614,7,2,-3,-4,-2,29,0,16
3627,-5,-5,5,4,21,18,-3,-6
3627,7,1,3,-9,7,-20,-1,10
3633,-1,-1,-11,-9,-22,-24,-20,0
3633,-5,-5,-2,13,-14,-23,-13,-10
3650,-1,-1,-11,-20,-7,5,-4,-2
3650,-8,-2,-4,12,10,16,1,-7
3652,2,3,-1,0,19,40,19,7
3652,10,4,0,-3,-13,-17,16,4
3673,-12,-4,-7,-3,-15,-45,-17,-12
3673,5,-4,-5,0,-17,16,0,10
3674,1,1,1,-2,22,-16,-3,-3
3674,2,-1,-1,-6,-16,25,3,-1
3686,-4,-3,0,2,-4,-11,-8,-9
3686,3,3,7,11,15,18,3,2
3695,3,2,2,-10,2,-37,8,2
3695,-2,-2,-5,-32,-19,20,4,-2
3709,-5,-3,-5,-20,-20,-47,-16,-3
3709,-1,0,1,-8,13,51,3,-3
3718,0,-3,8,17,1,-1,-3,2
3718,-3,-4,-14,9,17,-15,-3,-4
3733,8,1,4,-15,-15,28,3,9
3733,-4,-4,3,15,23,-13,-3,-1
3734,-10,-2,0,8,9,12,4,-9
3734,3,-1,-32,-12,-14,-1,-3,4
3746,-4,-5,-5,-19,-24,-4,2,-4
3746,-5,-1,-2,0,-2,-6,8,-4
3755,-2,-4,-9,6,17,13,1,-4
3755,0,-3,6,11,16,-17,-3,0
3777,9,3,-5,-2,-21,-1,15,10
3777,-12,-7,1,0,-7,-12,-24,-21
3778,11,1,-9,-5,-21,-25,0,1
3778,-3,-1,10,-1,-2,3,2,-5
3800,0,2,8,7,21,30,4,-6
3800,-3,-2,4,-3,-4,-25,-8,-4
3801,-2,0,4,25,26,16,-11,3
3801,5,3,16,-4,0,33,2,6
3806,-4,0,6,8,20,8,8,0
3806,1,-3,-5,1,-5,-25,-4,4
3814,-6,0,0,10,-8,-17,-9,-5
3814,-9,2,8,-13,-26,32,6,-10
3830,4,4,-11,-4,30,-34,-2,1
3830,2,-1,-1,-13,-10,-4,9,8
3832,9,1,3,26,-1,-22,1,9
3832,-10,-7,-3,-11,11,12,-7,-8
3853,3,6,-3,-19,-38,15,-9,0
3853,-4,0,-6,-2,7,-14,-3,-2
3859,-1,0,-1,-14,-1,-9,0,3
3859,-7,-1,-3,9,-8,4,-1,-6
3867,2,-1,-2,13,7,10,0,8
3867,4,-1,1,10,20,3,1,1
3875,0,-1,-2,-23,-35,11,1,-2
3875,3,0,4,9,9,15,2,1
3890,-2,-3,2,-3,17,-23,0,-3
3890,7,3,3,9,-9,-38,-8,1
3892,-6,-3,-6,-14,-35,-31,-21,-14
3892,-10,-8,-9,-24,11,3,-3,1
3913,1,0,5,0,-18,28,11,-4
3913,-2,-1,-5,-8,1,1,-11,-6
3914,2,-1,1,-4,12,-2,5,5
3914,2,2,7,1,-11,-22,0,-2
3935,-1,-1,4,13,21,45,11,0
3935,5,2,-3,14,15,-45,16,4
3937,3,2,1,-8,19,27,6,5
3937,-4,-3,-6,-17,-40,-10,-5,-12
3950,13,-3,-6,3,-14,-19,-3,22
3950,-7,-5,-8,-7,-33,-18,-20,-12
3952,-2,-2,-3,-16,-3,2,2,-1
3952,0,2,1,19,26,-7,-3,3
3972,-5,-2,-3,-6,5,43,-1,-3
3972,3,4,6,-3,1,11,8,-2
3974,2,0,4,11,-3,5,-5,-3
3974,4,3,3,11,19,-28,-3,-3
3986,-6,-11,-3,0,-3,19,11,-1
3986,3,1,-7,9,-7,-20,-4,12
3995,-8,0,5,6,16,39,16,-1
3995,-3,-2,-9,-14,-7,-21,-9,-4
4009,0,2,-5,-14,-43,-56,-24,2
4009,3,0,3,-12,-5,6,4,6
4012,-5,-1,-4,3,10,22,0,-4
4012,5,4,9,38,26,21,8,5
4032,-7,-3,-5,-20,-13,-8,16,-14
4032,8,2,0,-22,-17,28,-4,7
4034,-5,-2,-2,-2,-28,-91,-23,-9
4034,-1,-2,8,13,56,42,-1,0
4046,1,-2,-9,-11,-6,13,-2,1
4046,-2,0,4,-4,-14,36,7,0
4055,-3,-5,-7,-7,2,-33,-9,-6
4055,2,2,3,-2,-28,-39,-13,-7
4078,-1,2,6,11,12,12,1,3
4078,-8,-1,4,37,33,42,3,-13
4079,16,5,-5,-33,-17,-13,16,22
4079,-2,-3,-2,-12,-33,-15,-15,-1
4092,-3,1,6,9,31,48,4,-4
4092,-4,-5,3,5,1,-31,4,-2
4094,5,-2,1,16,9,37,14,5
4094,-1,0,-5,-6,2,-10,6,-2
4106,-12,-2,-4,-21,-31,-50,-24,-9
4106,-5,-2,-5,-21,-7,-5,-9,-7
4116,10,6,2,26,56,77,20,13
4116,-4,-8,-10,-43,-49,-27,-2,-6
4129,8,0,3,23,-13,-37,-5,5
4129,-6,-6,-9,-14,8,33,-7,-2
4136,-5,-1,-2,-8,-11,-22,-9,-6
4136,1,5,8,28,28,29,2,6
4152,9,7,6,10,7,-15,6,-1
4152,0,-1,-6,-9,-12,-1,1,-1
4154,-6,-8,-4,-10,-34,-22,-14,-11
4154,-7,-4,-7,16,11,52,2,-6
4167,-2,0,4,-2,8,-47,3,1
4167,-1,1,6,23,27,33,7,2
4191,-6,-2,-6,-9,-36,-14,2,-2
4191,-10,-2,4,22,22,19,-9,-8
4197,0,1,-2,12,10,-20,6,5
4197,12,5,0,-14,-6,-1,4,14
4199,-5,-3,8,-17,-43,-2,-11,-12
4199,-5,-6,-17,-5,-29,-59,-11,-5
4212,3,-7,-6,7,28,57,-4,3
4212,1,2,-3,-16,12,-29,11,1
4219,1,2,6,4,14,8,-1,8
4219,1,3,9,4,0,18,6,4
4226,4,2,0,5,17,23,16,10
4226,-7,0,3,24,12,-2,-21,-9
4243,-2,0,-5,-14,-23,-7,-1,-8
4243,14,1,-2,-21,-14,-43,6,14
4249,-17,-5,-4,8,1,-16,-22,-28
4249,-5,-5,3,-23,-47,-3,2,-2
4265,-1,3,-7,-12,26,6,0,-2
4265,15,3,-1,-3,-1,6,10,19
4280,-14,-4,-3,-3,8,4,-10,-7
4280,0,2,3,40,23,34,6,-8
4281,-12,-5,-4,-11,-15,-55,-24,-15
4281,5,1,1,4,-21,-8,-2,12
4286,1,0,-2,-14,5,56,6,0
4286,-13,-7,2,8,24,-13,1,-9
4296,7,-4,-4,13,32,31,22,8
4296,-9,-2,1,4,-15,4,-13,-16
4309,1,-3,-4,1,-25,-39,-15,-3
4309,9,2,-6,-41,-17,-32,-3,0
4316,4,4,7,6,4,1,-4,2
4316,16,3,-3,-5,10,16,18,25
4333,-3,-3,-8,-14,-7,26,9,-3
4333,2,0,-1,-8,-13,-27,-4,2
4334,-2,-1,4,36,5,-13,-8,-4
4334,0,-1,-2,-23,19,62,10,-3
4355,6,1,-3,-5,-23,-48,0,4
4355,3,-4,0,10,2,11,-12,6
4357,-6,-3,1,25,45,11,-11,1
4357,-6,1,0,-17,-52,-32,3,-10
4369,-12,-5,-2,-1,-12,-7,-7,-9
4369,-6,-3,-4,-2,5,-14,-21,3
4376,3,2,-1,0,7,18,17,2
4376,4,3,6,24,30,3,5,-1
4393,1,5,1,-25,-6,19,13,-6
4393,1,1,-4,-1,-8,1,-13,-2
4394,-2,-3,1,-3,0,-23,2,-6
4394,-4,-4,7,22,-4,8,8,-4
4415,6,0,-7,-3,5,-12,2,8
4415,-7,-5,1,27,9,8,0,-8
4417,9,3,-6,-18,-20,2,2,7
4417,-12,-4,-2,0,27,26,-3,-12
4430,-7,-4,2,21,-8,-35,-14,9
4430,6,6,3,-22,13,77,10,-6
4444,0,2,-11,6,-25,-91,6,6
4444,-5,-1,-3,-12,-41,-36,-36,-12
4452,-3,-5,-5,2,10,5,-15,4
4452,-2,-2,-3,4,28,37,26,5
4454,6,0,0,-10,0,40,9,0
4454,-9,-5,-8,-19,-2,-12,-18,2
4475,11,8,15,28,32,16,16,2
4475,1,-2,-6,-13,-4,-35,12,0
4477,-8,-8,-4,-11,-45,24,-20,-19
4477,7,2,-5,-11,-18,13,22,36
4489,-17,-6,2,10,43,-54,-12,-99
4489,13,5,-4,-39,-73,-21,5,100
4498,0,-1,-3,-6,25,0,-1,-13
4498,7,-1,0,0,20,11,12,0
4513,-14,-11,-4,12,2,15,-20,4
4513,-4,0,3,14,53,26,3,-78
4514,-2,4,7,-10,-14,-17,7,-7
4514,2,2,-3,-15,-54,-32,-7,4
4542,0,4,0,13,11,31,0,7
4542,-12,-5,-1,-23,-8,-22,-13,-15
4544,5,1,-2,16,-1,24,-3,30
4544,2,-6,-3,19,35,-15,11,-30
4558,-2,-2,0,8,-6,-1,-7,0
4558,4,1,1,-10,-14,-13,-14,-24
4559,-9,-4,0,-3,-4,26,1,2
4559,-1,-3,-2,-10,-5,-34,5,39
4580,5,3,0,-8,-15,59,1,18
4580,8,-1,2,39,64,-26,9,5
4582,-4,0,2,-33,-60,37,14,-17
4582,-19,-8,-12,4,-32,-92,-44,-56
4595,4,-1,-3,-17,-18,-51,-5,4
4595,-20,-2,8,-9,-2,44,-3,-66
4602,21,3,-13,-6,45,14,22,104
4602,-17,1,9,-9,0,42,-18,-38
4609,22,4,2,23,10,3,16,28
4609,6,-4,-5,23,-24,-36,-3,7
4618,-13,-8,-4,-20,-13,-20,-16,-59
4618,14,2,6,7,23,80,18,72
4633,-12,0,0,-4,19,-38,-9,-41
4633,6,7,2,18,-52,-45,6,21
4634,8,2,3,22,3,-24,-19,-25
4634,-8,-9,-9,-3,21,-9,-8,-37
4655,2,3,7,-9,32,47,-3,18
4655,-5,0,-2,12,18,38,11,35
4657,2,0,-6,-26,-36,19,20,-3
4657,3,1,0,-9,-6,-14,-14,6
4678,1,-7,-7,-9,-35,-40,1,17
4678,-1,-6,-12,-18,-25,20,-33,-5
4679,2,6,12,38,47,-60,-11,-6
4679,-14,0,4,19,-6,-14,7,-27
4700,10,-1,-6,-24,7,37,9,30
4700,-13,-7,-2,8,36,19,13,-36
4702,12,2,4,18,-38,6,5,-9
4702,-7,-3,1,42,39,-38,-17,14
4716,1,7,-5,-47,-54,3,18,35
4716,-13,-3,0,-3,-13,36,1,-34
4717,-30,-9,4,-21,34,45,3,-19
4717,24,2,-15,-32,-39,-86,-8,16
4729,-22,-14,-7,6,-9,-12,-29,-36
4729,-1,1,2,27,35,44,12,9
4738,-17,-3,5,20,50,-48,1,-15
4738,-5,2,4,-23,-51,21,-23,-12
4753,17,-3,-6,-7,-4,-10,25,29
4753,11,2,0,-22,-21,25,3,17
4754,-4,0,2,9,34,0,-6,-15
4754,-11,0,8,29,54,41,9,-35
4774,-21,-1,9,-16,-28,24,-24,-88
4774,26,-2,-29,-53,-42,-46,40,87
4800,-1,-4,-6,4,-16,-89,-48,-1
4800,6,0,0,21,0,17,8,3
4800,-25,-9,-2,-9,20,51,-11,-61
4800,22,17,23,47,63,15,23,62
4821,0,-2,-3,-9,-23,-1,1,-3
4821,1,-3,-6,-26,-12,21,15,-4
4821,17,5,1,10,-21,-37,-5,25
4821,-16,-11,-9,-3,-31,-88,-40,-68
4823,5,-7,-13,-20,-24,20,2,10
4823,18,10,11,13,36,48,19,19
4842,2,8,6,11,23,31,27,-26
4842,-9,-2,-2,-12,-2,-8,7,-8
4843,10,8,5,31,29,28,-14,-13
4843,-18,-11,-8,-28,-16,-41,-17,-30
4848,22,5,-1,15,17,70,27,46
4848,-3,0,0,-12,9,-57,-13,-43
4865,-8,2,8,-8,-48,15,3,-15
4865,-15,-12,-20,-25,-39,-42,-20,-9
4873,10,-6,-4,16,15,-4,-6,39
4873,-30,-8,-2,4,3,-30,-13,-75
4874,-12,2,3,-2,-2,21,-2,-2
4874,-8,0,3,13,20,-8,-7,0
4895,18,7,1,14,3,-31,14,9
4895,-17,-9,-8,-24,-46,31,-21,-81
4896,10,-2,-7,-2,29,15,27,67
4896,39,22,23,1,21,50,59,63
4909,-17,-2,2,22,47,29,-19,-34
4909,10,6,4,-6,-28,19,28,9
4918,-11,-11,-13,7,-38,-69,-24,-62
4918,-6,-14,-16,-56,-54,-89,-53,-17
4933,-16,-7,-6,-7,5,-12,-12,-83
4933,4,4,6,23,43,81,8,47
4934,-27,2,25,38,80,1,18,-46
4934,23,-3,-40,-41,-66,41,42,26
4954,-21,-14,-5,-12,-49,-94,-51,-72
4954,-1,-1,-3,-17,-24,-27,-29,68
4957,23,7,6,18,37,50,22,101
4957,-28,3,20,53,61,38,-6,-75
4968,32,20,17,22,25,27,38,24
4968,8,-4,-28,-21,-14,-12,14,14
4994,-4,-6,15,-46,-69,-20,-18,20
4994,1,-1,3,3,-10,-36,-6,-49
4995,-30,-11,-9,-15,-14,16,-17,-5
4995,6,6,12,21,18,-43,-11,6
5006,13,5,-11,-7,14,77,20,-8
5006,-9,0,3,6,23,22,3,-26
5015,-4,-1,4,22,12,-43,10,8
5015,3,-7,-9,-25,-48,-8,-8,9
5017,-13,-9,-17,-24,-45,-63,-37,-52
5017,-4,-9,0,1,5,21,-17,-5
5028,3,10,1,31,38,25,12,126
5028,-25,8,24,18,41,30,5,-65
5037,39,-20,-17,-26,-21,24,41,27
5037,4,6,-7,1,-47,-16,0,19
5053,-3,-2,24,-32,-65,-84,-42,-42
5053,-9,-8,-5,1,10,-3,-12,44
5054,-11,12,6,24,47,43,-22,-22
5054,-23,-3,13,15,99,94,44,-31
5075,56,6,-4,14,12,-19,59,34
5075,17,20,-25,-44,-98,-58,-11,9
5077,-16,-23,-11,-33,-30,-115,-79,-28
5077,-1,-7,-16,-54,-80,-15,-7,25
5089,-30,-3,-5,-10,16,31,-12,-33
5089,-6,-7,8,10,54,42,24,-43
5097,18,12,-3,14,22,43,49,95
5097,-3,3,7,20,21,-1,-18,-32
5120,-22,-6,-6,-7,-5,15,-5,-17
5120,24,5,7,19,6,-11,11,8
5121,-10,-2,-10,-10,-21,-1,1,-48
5121,3,1,10,30,26,-20,-17,-5
5136,10,-2,-3,-24,-9,-12,3,57
5136,-21,-11,-9,-8,-34,-1,-26,-34
5137,8,8,5,4,33,23,15,8
5137,7,-4,-8,-21,-24,-14,8,12
5149,-29,-14,-38,-42,-26,-11,-21,-86
5149,53,12,23,34,23,7,38,64
5165,-5,5,3,4,-26,-11,-8,-103
5165,2,-7,2,11,8,-3,-2,-36
5172,-20,-3,-4,8,4,8,-18,-31
5172,-13,-5,3,29,26,9,-11,-24
5174,7,-3,-12,-42,-2,50,18,38
5174,10,4,-25,-7,-9,-55,12,21
5202,-8,-2,17,-5,-44,-25,-25,-40
5202,-14,-10,-6,25,39,-18,-13,25
5204,-1,-1,14,2,-6,9,-10,-19
5204,-21,-3,-7,18,19,24,-7,-8
5208,10,-13,-5,-21,-17,13,23,11
5208,-4,1,-5,-25,-11,0,-1,-9
5218,-51,-11,-5,14,4,-12,-27,-116
5218,61,15,11,9,10,10,32,106
5231,-3,-1,-1,17,-2,-11,5,-38
5231,6,1,1,-4,6,27,-7,-41
5239,6,4,-10,6,1,-45,5,19
5239,-23,-3,1,-3,-16,-7,-18,-42
5256,-1,-9,6,6,11,18,4,18
5256,-2,-5,-6,-15,-20,-8,-5,51
5257,-4,-2,-8,1,9,5,-4,-5
5257,3,2,7,4,7,7,0,-9
5285,12,10,-2,3,10,-4,5,13
5285,-14,-9,-6,30,39,6,-4,-44
5287,-11,-8,-3,-75,-86,-19,0,15
5287,9,1,3,-10,-14,1,-2,-2
5300,3,3,-4,-9,-7,5,3,24
5300,-12,-7,1,2,6,-14,-7,-13
5302,-2,4,2,31,31,6,2,7
5302,0,-1,4,1,4,6,0,-2
5315,-5,0,-20,-7,-4,0,-4,-3
5315,5,-1,4,-9,-9,4,2,-4
5317,11,2,1,21,8,-13,7,11
5317,-13,-6,3,-6,-5,6,-7,-20
5337,4,0,-1,14,2,-7,-1,8
5337,-3,-1,-4,-10,-13,-7,-11,-16
5339,3,-1,3,7,3,9,5,8
5339,-5,-2,-6,7,14,1,2,-3
5368,3,2,4,-2,2,2,7,33
5368,-5,-5,-2,-12,-17,-9,-5,-5
5369,1,2,2,8,7,0,-12,-14
5369,-3,-1,6,7,9,-1,7,1
5382,6,1,-2,-3,-3,-2,-1,-5
5382,-2,1,0,-12,-10,-1,9,-3
5384,4,-1,1,13,11,1,-1,-23
5384,-12,-5,-6,-2,5,2,-2,25
5398,13,4,5,-5,-4,3,2,26
5398,2,-3,-2,-3,-3,-8,-7,47
5404,3,1,-1,3,4,0,-4,14
5404,-3,1,0,-3,-1,-5,-9,-36
5412,0,3,2,-2,0,2,2,-16
5412,1,-1,-1,-5,-6,-3,2,-15
5419,4,-1,-1,3,0,2,2,5
5419,-7,-4,1,-2,2,1,-3,-3
5435,-7,-2,1,3,2,-4,-2,-26
5435,5,1,-2,0,-5,2,4,-9
5437,-4,-1,-1,1,-2,-5,-4,-5
5437,0,0,-2,1,2,1,4,-1
5457,-9,-1,-2,9,3,-4,-4,-3
5457,-9,-2,0,-7,-3,5,-4,-15
5464,7,0,-2,6,6,0,4,11
5464,3,-2,1,0,2,-2,-2,-6
5471,0,-1,-2,-3,-2,-2,-1,-10
5471,0,-2,0,-1,0,-3,3,56
5480,-1,-1,1,3,4,4,0,6
5480,-2,-3,0,-2,0,0,-2,-9
5503,2,-2,-11,-4,-3,3,-2,2
5503,8,3,9,2,1,-1,-3,-24
5504,-1,-1,-2,-3,-2,-2,2,9
5504,2,1,-1,0,1,1,2,11
5517,0,-1,0,-4,-3,-1,0,-2
5517,-7,-2,-4,-2,-6,-4,-6,-26
5519,-3,-3,-1,0,-1,-2,-3,1
5519,-1,-1,-1,-1,-4,-1,-2,-5
5531,0,1,2,0,0,0,-4,4
5531,-1,-2,-6,-4,-6,-3,-2,-7
5540,-2,1,2,-1,-2,-4,2,-2
5540,-2,1,-4,-1,0,-3,0,18
5563,-5,2,1,-2,-1,-2,2,0
5563,0,-1,0,-2,-2,0,-1,-5
5565,-4,-2,-3,-3,0,1,0,-5
5565,-3,1,0,0,0,-1,-6,-11
5585,-3,-2,-1,-1,0,2,-1,0
5585,-2,-1,-2,0,3,1,1,-8
5586,-1,-2,0,0,0,2,2,0
5586,-3,-3,-2,0,-3,-4,-5,-5
5608,0,0,1,-1,-3,-1,-3,4
5608,-4,-2,-2,1,-3,-3,-3,-7
5609,-2,0,2,-1,-1,0,-3,-6
5609,2,3,-1,-2,-1,0,0,-6
5624,-1,-1,-1,-1,-1,-2,3,-7
5624,0,-1,-3,-2,1,-1,3,-3
5625,1,-1,0,1,-1,-2,2,2
5625,0,-4,-2,-2,-3,0,1,0
5637,-3,-2,-3,-2,-3,0,-2,0
5637,-2,-1,-3,-1,-2,0,-4,-6
5640,9,0,-1,2,1,1,1,-1
5640,-3,0,0,1,-2,0,-3,-3
5651,1,0,0,0,-3,0,-1,1
5651,-3,-1,0,-1,0,-1,0,-3
5660,0,-1,-3,-2,0,0,1,-4
5660,0,-2,-1,-1,-1,-4,2,-1
5675,6,1,0,0,-1,-4,3,5
5675,-4,-2,-3,-1,-1,-2,-1,-2
5676,-4,-1,-1,-1,-2,-2,-4,-1
5676,0,-2,-1,0,0,3,2,4
5698,-3,-1,0,0,1,-4,-2,2
5698,-4,-1,-3,-2,1,-3,0,-1
5699,-2,0,0,0,0,-1,-1,-5
5699,6,0,0,-2,-2,-2,-1,-2
5711,0,-2,-2,-3,-1,-3,0,-3
5711,-2,-2,-1,0,1,-1,1,-6
5721,-3,-4,-2,-1,0,-2,2,0
5721,0,1,-2,0,0,0,0,-5
5743,-1,-3,-1,-2,-2,-1,2,1
5743,-2,1,0,-1,-4,-2,2,-3
5744,0,0,-4,-2,-6,-4,-2,0
5744,-4,0,-1,-1,-4,-2,1,-3
5757,-1,0,-1,-1,-1,0,0,-3
5757,3,-2,0,-1,0,-1,0,0
5759,-3,-1,-1,-2,1,-1,1,-1
5759,-3,-3,-2,0,-1,-2,1,0
5770,1,-1,0,0,-2,-1,3,4
5770,-2,-2,-2,0,0,2,3,1
5780,-1,-2,-1,2,2,0,-1,2
5780,-1,-1,1,1,5,3,1,2
5795,3,2,1,0,3,1,-3,-2
5795,1,1,0,0,-1,-3,-3,-1
5796,1,1,-2,-3,-3,0,0,-2
5796,1,-2,0,-1,-1,1,-2,1
5817,-2,-2,-1,-2,-1,1,0,1
5817,0,-2,1,0,-1,-1,-2,1
5819,-5,-1,-1,0,1,-1,-3,1
5819,-1,-3,1,-1,0,0,-4,0
5831,-3,0,-2,-1,1,-1,0,-3
5831,-1,-1,-2,-2,-1,-1,-2,-3
5840,-2,-1,1,-1,0,-1,0,-3
5840,-3,-1,0,-3,-2,-2,2,-4
5855,-2,-2,-2,-2,-1,-1,-1,-1
5855,-1,-1,-1,-2,-1,-1,1,0
5857,5,0,-2,0,-1,1,1,3
5857,1,0,-1,-1,0,0,0,1
5885,1,-2,-1,-1,-2,-1,1,2
5885,0,-2,0,-1,-2,-3,-2,-3
5887,-1,-1,-1,0,-2,-1,-1,-3
5887,-4,0,0,-2,0,-2,-2,-3
5891,1,-1,-1,0,0,-2,-5,-1
5891,-2,-1,0,-1,1,-1,-3,-2
5900,0,1,-2,0,1,-1,-1,-2
5900,-1,0,-2,2,1,-1,3,-1
5915,-1,0,0,-1,-1,-2,2,-2
5915,1,0,-1,-1,-1,4,1,-1
5917,1,0,1,-3,-2,1,-1,0
5917,1,0,-1,0,-1,-1,-1,0
5937,-4,-2,-1,-1,-4,-2,-4,0
5937,1,-2,-1,-1,0,-1,-4,-2
5939,-1,-1,0,-3,1,0,1,-1
5939,-4,-2,-1,-2,0,0,1,-1
5951,0,0,2,1,0,1,0,3
5951,0,0,-2,0,-2,-1,0,-1
5960,-3,-1,0,2,-1,-2,-2,-3
5960,-2,-2,-3,-1,-1,-1,-3,0
5975,-1,-2,-2,-2,1,2,-3,-2
5975,-3,1,-3,-2,-1,-2,-3,-1
5976,0,0,-1,0,0,-1,1,0
5976,3,2,1,-2,-1,-2,-1,-3
5998,-2,-2,-1,1,-1,-1,3,-5
5998,-2,-2,0,0,0,-2,-1,0
5999,0,-1,-2,-1,-3,-2,0,1
5999,-1,-1,-2,-3,-2,0,-3,2
6010,0,0,-2,-2,0,-1,0,-1
6010,-1,0,0,-2,0,-1,-2,-2
6020,-2,-1,-1,0,-2,-1,0,-2
6020,0,-1,-2,2,-2,-2,-1,-2
6034,-3,-1,-1,0,-2,-1,-2,-1
6034,-1,0,-1,-2,-2,-1,-1,2
6041,-2,-2,1,-3,1,0,-2,5
6041,0,-1,0,-3,-1,-1,-1,2
6057,0,0,-1,0,-2,0,0,2
6057,-2,0,0,-1,-2,1,-1,-2
6059,-2,-3,-2,-2,-2,0,-4,-4
6059,2,1,0,-1,-1,-1,-1,-5
6070,1,-2,-1,0,0,-4,-2,-2
6070,2,-2,-2,0,-1,-2,0,-1
6080,0,0,-1,-1,0,1,2,-1
6080,-2,-2,-1,-1,-3,-1,0,-1
6094,-1,-1,-2,0,-1,-2,0,-2
6094,1,-2,-2,-1,-1,-3,1,-1
6101,0,-2,0,0,-2,-3,-4,-3
6101,-2,-2,-1,-1,0,0,-1,-1
6118,-3,-3,-1,-2,1,2,-4,-2
6118,-2,-1,-1,1,0,-1,-4,1
6119,0,-1,-2,-1,-2,0,0,2
6119,2,-1,-2,-2,0,-2,-2,2
6140,-2,1,-1,-1,-1,0,-1,1
6140,-3,0,-1,-1,-1,0,-1,-4
6141,-2,-2,-2,0,1,-2,1,-3
6141,-2,-1,1,0,-2,0,-2,0
6163,0,-3,0,-3,-3,1,-1,0
6163,0,-3,-2,-1,0,0,-1,2
6164,-2,-1,1,-1,1,-1,0,-2
6164,-1,0,-3,0,0,-1,3,-4
6177,-1,-1,-1,-1,-1,-2,2,-1
6177,-1,-2,-1,-1,-1,-2,1,-1
6185,-1,1,-2,-1,-2,0,-1,-1
6185,0,-1,-1,0,0,1,-1,-1
6191,1,0,-2,0,0,-1,0,-3
6191,0,0,-2,0,-1,-1,4,1
6208,0,0,0,-1,-1,-1,2,1
6208,0,-1,-1,-1,0,-2,-1,-1
6214,-3,-1,-1,-2,-1,0,-2,0
6214,-3,-3,-1,-2,-1,2,-3,0
6221,-1,-2,-2,-1,-1,-1,-2,0
6221,-4,-2,0,-1,-3,-2,-1,-3
6245,-2,-1,-2,-1,-2,-2,-1,0
6245,3,1,0,-1,0,-1,-1,-1
6246,0,1,-2,-2,-1,1,0,1
6246,-1,-1,-3,1,1,2,-2,-1
6276,0,-3,1,-1,-1,-2,-4,-2
6276,-1,-4,-1,-2,-3,-2,-4,0
6278,-1,0,-1,-2,-2,-2,-2,0
6278,0,-1,0,-2,-1,-1,-1,-1
6279,0,0,-1,-1,1,-2,0,-3
6279,-1,0,-2,-1,0,1,0,-3
6298,1,-3,0,0,-2,-1,0,-4
6298,-2,1,-2,-2,-3,-1,2,0
6298,-1,-1,-2,0,-1,2,-2,0
6298,-1,-2,-1,-3,0,-1,-2,0
6300,-1,-2,-1,0,-2,-5,0,3
6300,-1,-2,-1,-1,-2,-1,1,0
6321,2,-1,-2,0,-1,-2,-3,1
6321,0,-2,-2,-1,-1,1,1,-3
6322,1,0,-1,-1,-2,1,0,-3
6322,1,-2,-2,0,-1,-1,-3,-1
6343,-1,0,1,-2,0,-1,-5,-3
6343,0,0,-2,0,1,-2,-3,-2
6344,-2,0,-1,-2,0,-2,3,-2
6344,-3,-3,0,-2,0,-3,2,-3
6357,0,0,-1,-2,-2,-1,3,0
6357,0,0,1,0,-3,-1,-2,0
6359,-2,-1,-1,-2,-1,1,-5,-2
6359,-1,-1,-1,-2,0,-2,-6,-2
6380,-2,0,0,-1,-1,-2,0,0
6380,-1,-1,-2,-2,0,-4,0,3
6396,1,0,-1,0,0,0,0,0
6396,0,1,-1,0,-2,1,1,1
6396,0,0,-3,-1,-1,1,1,-1
6396,-1,1,-2,-1,-3,-2,-2,-3
6403,0,-1,0,-2,-1,-2,-3,-4
6403,0,-2,-3,-2,-2,-1,-3,3
6418,-2,-1,0,0,-4,-2,-4,0
6418,-3,-1,-3,-1,-1,-1,-2,0
6419,-1,-3,-1,-3,2,-1,-5,0
6419,-1,-3,-2,-2,1,-1,-3,-2
6440,-1,-2,-2,-2,0,-1,-1,-5
6440,-1,-1,-1,-2,-1,-2,0,-4
6442,-2,1,0,1,-1,-2,2,-2
6442,0,0,-2,0,-1,-1,3,0
6462,2,-2,-2,-1,-3,-2,1,4
6462,-1,0,0,-2,-1,1,-2,1
6464,-2,0,-1,0,1,-1,0,-1
6464,-5,-1,0,-2,-1,-3,2,-1
6485,-2,-1,0,0,0,-2,-1,-2
6485,0,-1,1,-1,0,0,1,-1
6486,3,0,0,-1,-1,0,1,0
6486,3,-1,1,3,-1,0,2,-1
6500,-1,0,-3,0,0,0,3,0
6500,-1,-1,-2,0,-1,-2,0,2
6507,-5,-3,-3,1,0,0,-2,0
6507,-2,0,-4,-1,0,1,-5,-1
6514,-2,-3,-3,-2,0,-1,-4,-4
6514,0,-2,-2,-1,0,-2,-2,-5
6521,0,1,-1,-2,-1,-2,-1,-4
6521,0,-1,2,-1,-1,-1,2,-2
6537,-2,-1,1,-2,0,1,2,1
6537,1,0,-2,0,-1,-2,0,-1
6539,1,-3,-1,-1,-1,-1,-2,1
6539,-2,-2,0,-1,-1,-2,-5,1
6560,0,0,-2,0,-1,0,-3,-1
6560,-1,-1,-1,0,-2,-2,3,1
6561,-3,-1,-2,1,-2,0,-1,0
6561,1,0,-2,-2,-1,0,1,0
6574,0,-2,0,1,-1,-1,0,0
6574,0,-3,-1,-1,1,0,1,-3
6581,-1,-2,-2,-2,0,-1,-1,-2
6581,-2,0,-2,-3,-1,0,-2,-2
6598,-1,-1,-2,-2,-1,0,-3,-2
6598,-1,0,-1,1,-1,1,-1,-2
6599,-1,-2,-2,1,-1,1,-1,0
6599,-1,-2,0,-1,0,-2,3,-2
6620,1,-2,0,0,-1,-1,1,1
6620,-4,-1,-1,-2,0,0,-1,-1
6622,-1,0,1,0,0,1,-1,-1
6622,2,-1,-1,0,1,-1,-3,-4
6634,-2,0,1,0,-2,-1,-3,-4
6634,-3,-2,2,1,-2,0,-4,1
6641,-3,0,0,0,-1,-1,-4,1
6641,-3,1,-1,0,-2,-1,-2,1
6658,0,-2,-1,0,-2,-2,1,0
6658,0,-3,-1,-2,-1,-1,3,0
6659,2,-2,-2,-4,-1,-2,4,1
6659,-3,-2,-3,-3,-2,0,-2,1
6680,-4,0,-2,-2,0,0,-1,1
6680,-1,0,-2,-2,-4,0,-1,-1
6682,-3,-1,-2,1,0,0,-3,-3
6682,2,0,-3,0,-1,-1,-4,-2
6695,0,0,-4,-1,-1,-1,0,-1
6695,3,-2,-1,-1,0,0,-1,-2
6701,-1,0,1,-2,-1,0,1,-2
6701,-1,2,1,0,-1,1,3,0
6718,-2,-1,1,-2,1,0,-2,-2
6718,-2,-1,1,-3,-1,-2,0,-1
6719,-1,-3,-1,-2,-2,-2,-2,-2
6719,1,-2,0,0,-1,-2,-3,-1
6740,0,-1,0,-2,-1,0,1,0
6740,2,1,-1,0,-1,1,1,1
6741,-1,0,-1,1,-1,-4,1,0
6741,-4,-1,0,0,-1,0,-1,1
6754,0,-1,-1,0,0,-2,-3,0
6754,-3,-3,-2,-1,-1,0,-5,-1
6763,-3,0,0,-1,-1,0,-1,-4
6763,-1,-1,-2,1,-2,0,1,-6
6778,-5,-4,0,-1,-1,0,-2,-7
6778,24,7,3,1,1,-2,5,1
6784,-2,-3,-4,0,-2,-3,2,-1
6784,-3,1,-4,-2,0,-2,-3,0
6800,0,1,-1,-1,-1,-1,0,-1
6800,-8,-3,-2,-1,0,0,-2,-3
6802,-1,0,-1,-2,-2,0,1,0
6802,2,-2,-1,-2,0,-2,-3,1
6814,-1,-1,1,1,-1,-2,-1,0
6814,-3,-4,-1,-2,-1,0,-3,-2
6829,-1,-3,1,-2,-2,-2,-5,-2
6829,-1,-2,0,-1,-3,0,-2,-1
6837,-1,0,1,-1,-1,0,-1,0
6837,-2,-2,-3,-1,0,-3,0,-2
6839,1,-1,-1,-2,0,-1,-3,-1
6839,0,-2,-2,0,-1,0,0,-2
6861,0,-1,-2,-1,-1,0,-1,-2
6861,-3,0,-1,-1,-1,2,-3,2
6862,-2,-2,-2,-3,0,-1,0,0
6862,-1,-1,-1,1,-1,-1,-1,-1
6873,1,-1,-3,0,0,-2,0,0
6873,-5,-4,-2,1,0,-1,-3,-3
6883,3,0,-1,2,-2,1,-1,2
6883,0,-1,0,-2,-3,1,-4,-1
6898,-1,-1,-1,-4,-2,-1,-3,0
6898,-4,-1,-2,-2,0,-2,-4,-2
6899,-3,-3,0,0,0,-1,1,-3
6899,-1,-1,0,0,-1,-4,1,-2
6920,0,0,-2,0,-2,0,-2,-3
6920,-4,0,-1,-1,-2,-1,2,-3
6921,1,0,-1,-1,0,1,-1,2
6921,-4,1,-1,-3,-3,1,0,2
6934,-1,0,-3,-3,-2,0,-3,2
6934,0,-2,0,-1,-2,1,1,1
6943,-1,-1,-2,1,-3,0,-1,-1
6943,1,-2,-2,1,-2,-1,3,-3
6958,-1,-3,0,0,-2,-1,2,-2
6958,-1,-2,-2,-1,-1,-3,3,-2
6959,-1,-1,0,0,0,-1,0,-1
6959,-2,-2,0,-3,1,-2,-1,0
6980,-1,-2,-3,1,0,-2,-2,2
6980,1,1,-1,-1,-2,1,-2,-1
6981,-1,1,-2,0,-1,0,-1,-2
6981,-2,-1,-1,0,0,1,0,-4
6993,-1,-2,-2,0,-2,0,3,-2
6993,0,-1,0,-2,-4,-4,-3,2
7003,-2,-1,-1,-2,-2,-3,1,3
7003,0,1,-1,-1,0,-3,-2,-2
7017,-1,0,0,-2,1,-1,-4,-3
7017,-3,-1,-1,-1,-1,0,-4,-4
7019,-1,0,-1,-1,-2,0,-2,-3
7019,-2,-2,-2,-2,-3,-2,0,1
7040,-1,-1,-1,-1,-3,-2,1,2
7040,-4,-1,0,-1,-1,1,-2,-1
7042,-1,-3,-1,1,0,0,-1,-1
7042,-1,-1,-2,-1,0,1,-4,-2
7054,-1,-2,0,0,-2,-2,-1,-1
7054,-2,-1,0,-1,-2,-2,1,0
7069,7,0,2,0,0,-2,0,2
7069,-1,0,-1,2,-1,-2,-3,-1
7077,1,1,1,0,-1,-1,0,0
7077,-2,-2,0,-2,-2,0,0,-2
7079,-3,0,-1,-2,-1,-2,-2,-5
7079,2,2,-1,0,-1,0,-1,-1
7100,1,0,-2,-1,-1,-2,-3,-2
7100,12,2,1,-1,0,-2,3,4
7101,-3,0,-1,-1,-3,-2,-2,-4
7101,-1,-1,0,-1,-1,-1,-2,1
7114,-1,-1,-1,-1,-1,0,0,-1
7114,-4,-4,-2,-2,0,-1,1,-5
7128,-2,-3,-2,-1,1,0,-1,-1
7128,-2,-1,-3,-2,0,-2,4,0
7137,-4,-2,-2,0,-3,-2,1,-2
7137,-3,2,-2,0,-1,0,-2,-1
7139,3,3,0,0,-1,0,-1,0
7139,-5,-2,-1,-2,-2,-2,-1,0
7160,-3,-1,-1,-3,0,1,-2,-1
7160,-5,-3,-3,0,0,1,-1,-1
7161,-2,-2,0,0,-1,0,0,-1
7161,0,-3,0,0,-2,0,-1,-2
7183,3,-1,-2,0,0,-3,-2,-3
7183,-2,-1,-3,0,-2,-1,-4,-3
7184,-5,-1,-3,-2,-1,0,-2,-2
7184,1,-1,-1,0,0,-1,-2,-1
7196,0,-1,-1,-1,-2,-1,0,1
7196,1,0,0,0,-1,-5,-4,1
7199,-4,-1,0,-2,-1,-2,-4,-3
7199,-2,-1,-2,-2,-1,-2,-1,-2
7220,0,-2,-1,0,0,-2,1,5
7220,-1,-4,-2,-1,0,-2,2,1
7222,-2,-3,1,-2,-1,-1,1,-1
7222,-1,-1,0,-3,-4,0,0,-1
7243,-2,1,0,-2,-1,0,-4,-5
7243,-1,-1,-1,0,0,2,-1,3
7245,-2,-2,-2,-1,-1,1,-1,2
7245,2,1,0,-1,3,-1,1,-2
7258,0,0,-2,1,-3,0,-1,-1
7258,-6,0,-2,1,-2,-2,-1,-6
7259,-2,-2,-2,0,-2,-2,0,-3
7259,1,-1,1,1,0,-3,-2,-1
7280,0,-3,-1,1,0,-1,3,0
7280,0,-2,1,-1,1,1,2,-1
7282,-2,-1,-1,-1,-1,-1,0,1
7282,-3,-2,-2,-2,-2,0,1,-4
7311,3,0,-1,0,0,0,-2,-3
7311,2,0,-2,-1,-4,-2,-2,-1
7312,3,-1,-1,-1,0,-1,-5,-1
7312,2,-1,-2,-1,-1,0,-4,1
7316,1,2,0,-2,0,-1,-5,0
7316,1,0,-2,-1,-2,-1,-5,1
7323,2,-2,-3,-1,-1,-4,-4,1
7323,-3,-3,-1,-2,0,0,0,2
7340,-4,-1,-2,-4,0,0,3,4
7340,-1,-1,0,0,0,-1,1,-1
7341,-1,-2,0,1,-1,1,4,-2
7341,-3,-1,-2,-1,0,-4,1,-4
7362,-3,-4,-1,-1,0,-3,-2,-4
7362,-1,0,-2,1,1,-3,-1,-2
7364,-1,0,-1,0,-2,2,-1,-1
7364,-1,-2,-1,0,-3,0,-4,-9
7377,1,0,-1,-2,-3,-2,1,19
7377,0,-4,-3,-3,-1,-3,0,-3
7384,3,0,-1,-1,0,-1,0,-3
7384,6,1,-1,0,0,0,0,-4
7400,-1,-1,-2,0,0,-1,1,-7
7400,-3,-1,-1,-1,-1,-2,0,1
7406,-1,1,-1,-4,-3,-2,-1,-1
7406,-1,-2,-3,-2,-1,-2,-3,2
7423,-1,-2,0,1,-2,0,-2,0
7423,-1,-3,1,-1,-1,2,-1,7
7424,-3,-1,-2,-1,-2,-3,-3,-6
7424,-1,-2,-1,-2,-2,-1,-1,3
7437,-3,0,2,-1,-1,0,-6,-3
7437,-3,0,-1,-3,-1,-1,-2,-2
7444,1,-1,0,-1,1,-2,-3,1
7444,-3,-1,0,-2,0,-1,-1,0
7460,0,-3,-1,1,-2,1,4,-2
7460,-2,-2,1,0,-1,0,1,-3
7461,-4,-2,-2,-1,0,-1,0,0
7461,-2,0,0,-1,-2,1,-3,0
7483,-3,-1,-2,-3,-2,-1,1,-1
7483,-1,1,-2,-1,-2,0,-1,-3
7484,-3,1,-2,-2,-3,-2,-3,-9
7484,-1,0,0,0,0,-1,0,5
7497,2,1,-2,-1,1,-2,-3,-7
7497,5,-1,-1,0,0,-1,-1,1
7504,-5,-3,-2,-1,0,0,-2,-8
7504,7,0,-1,0,-2,0,-1,9
7520,1,-2,-2,-1,-2,0,0,-1
7520,-1,-2,-1,-1,-2,0,3,1
7521,-3,0,1,0,1,0,3,0
7521,-5,-1,-1,0,-1,0,0,0
7543,-3,0,-1,-1,-1,-1,-4,-1
7543,1,1,0,-2,-2,-5,-1,-4
7544,2,-2,-1,0,-3,-2,-1,7
7544,2,-3,0,1,-2,0,2,-7
7573,1,-3,-1,0,-1,-2,-4,-1
7573,-3,-2,0,-1,3,1,-5,-1
7574,-1,-1,0,-1,-2,2,-12,-1
7574,-5,0,-1,-1,-1,-3,2,-10
7580,-3,-2,-1,0,-1,-3,0,25
7580,1,-1,-1,0,-1,-2,5,-9
7581,1,-2,-1,0,-2,-1,2,-16
7581,3,-1,0,0,0,0,0,36
7602,-4,-4,0,0,-1,-3,-4,1
7602,-2,0,-2,-2,-1,-1,-2,6
7604,1,1,0,0,0,0,3,3
7604,1,1,-1,-3,-1,-2,-2,-9
7617,0,-1,-2,0,2,3,3,-7
7617,-1,0,-1,0,-2,0,-1,7
7623,0,-1,-2,-1,0,0,2,2
7623,-1,0,0,0,1,-2,-4,-8
7640,0,0,-1,0,-1,0,-1,-7
7640,0,-4,-2,-2,-2,-1,-3,-8
7642,-1,-3,-1,0,-1,-1,2,3
7642,-6,-2,-1,0,-3,-1,-3,-8
7662,2,3,0,-2,-1,-1,0,-4
7662,1,2,1,-1,-2,-4,-3,-3
7664,-5,-1,-4,-2,-3,-4,-7,4
7664,8,1,-1,-2,-1,1,-2,-3
7676,-2,-3,-3,-1,-2,1,3,-5
7676,-4,-3,-5,-2,-3,0,0,-9
7684,-4,-2,-1,1,0,-1,-2,-2
7684,-2,-4,1,0,0,-3,0,-6
7700,-1,-2,-1,-3,-2,-1,-5,-3
7700,-1,0,-1,-3,1,-1,3,26
7701,5,4,2,0,2,2,7,-7
7701,-6,-2,-4,0,-3,2,0,-21
7722,2,-2,0,1,-2,-1,0,-4
7722,-3,-3,-1,1,-1,-1,-3,-6
7724,1,-2,-2,-1,0,-2,-1,4
7724,2,0,0,0,1,-2,0,-2
7737,-1,-2,1,-1,1,-1,1,-1
7737,1,-2,-2,1,-2,1,-3,1
7746,2,-1,-2,-1,-2,1,3,-3
7746,0,-1,-2,-3,-1,0,3,5
7760,-5,0,-1,-3,-1,-2,-2,2
7760,1,1,0,-2,2,0,-2,-11
7762,0,-1,-1,-1,-1,-2,-5,7
7762,-7,-4,-4,-1,-3,-2,-5,2
7782,0,-2,-3,-1,-1,1,1,-1
7782,1,0,0,-1,-1,2,1,-10
7784,-2,-1,-1,-1,-1,0,1,10
7784,3,2,1,-1,0,-1,-3,2
7796,6,1,1,1,0,0,-1,-6
7796,-2,0,-1,0,-1,-1,4,-5
7805,-4,-4,-2,-4,-2,-3,-16,-2
7805,-1,-2,0,-1,2,-3,12,-2
7820,-3,0,-1,-2,-2,0,3,-1
7820,-2,-1,-1,0,-2,-3,-8,-28
7821,0,-2,-1,0,-2,2,11,63
7821,-10,-2,0,1,-2,2,-9,-21
7842,5,-1,0,0,-3,-2,-10,-3
7842,-4,0,-1,0,0,0,9,-21
7844,-2,0,-1,-3,-3,-1,8,-5
7844,1,-1,-1,-2,-1,-4,-1,5
7856,-2,-3,-2,-1,-1,-1,6,0
7856,-3,-3,-3,-2,0,0,-11,11
7864,2,0,-2,-1,1,-1,-3,-18
7864,3,1,-1,0,-1,-1,5,15
7880,1,0,1,0,0,0,-7,-6
7880,-2,-3,-1,-3,-2,-2,-1,13
7881,1,-2,0,-1,0,-2,2,-8
7881,-8,-2,-2,-2,-3,0,-8,-5
7902,-7,0,0,-2,-2,-1,-6,-2
7902,4,0,0,-2,-1,1,0,8
7904,-2,-2,-2,-1,-1,-1,1,-12
7904,0,-6,-1,-3,-2,-1,-2,2
7916,-2,0,-2,-1,0,-1,-2,-5
7916,-2,-1,-1,0,-2,-1,4,8
7925,-7,-2,0,-1,-3,0,-10,-11
7925,1,0,-3,0,-2,-1,-5,0
7940,-2,-1,-1,-2,-1,-2,3,2
7940,-2,0,-2,-1,-1,-1,-1,0
7946,2,2,-1,-1,-1,-2,3,-5
7946,-7,0,-1,0,-2,1,1,0
7963,-5,-3,-2,-4,-4,-2,2,3
7963,-1,-1,0,-1,1,-3,-4,-1
7964,-2,0,-1,0,1,-2,-3,-3
7964,-1,-1,-1,-1,0,-2,1,0
7977,-1,-1,0,2,-1,-1,-4,-11
7977,9,1,0,1,-2,-1,4,19
7986,0,-3,-2,-1,-1,0,1,-2
7986,-2,0,1,-1,-2,1,1,3
7999,-4,-2,-3,1,0,1,-3,-13
7999,-1,-1,-1,-1,-2,-1,-2,-3
8006,6,1,-2,2,-1,1,-4,-23
8006,-1,-3,-4,1,-2,-3,-3,-2
8022,-4,-2,-2,0,-1,0,-2,16
8022,-1,-3,-21,-4,-2,-3,-4,-18
8024,1,0,9,-2,0,1,-3,3
8024,0,0,-2,-1,1,0,-2,-10
8037,-1,0,-1,-2,0,-1,-1,-6
8037,3,-2,0,-2,0,-2,2,10
8046,-4,-2,-4,-3,-2,-2,-4,-5
8046,2,-1,0,0,-1,0,0,0
8059,2,-1,6,-1,-1,-1,1,-6
8059,-1,1,-1,1,-1,-1,1,27
8084,3,-3,-4,0,-1,1,2,13
8084,-5,0,2,-1,0,-1,-1,-9
8086,-4,-1,-12,-3,0,-2,-3,4
8086,4,1,8,0,0,0,-3,-9
8089,-5,-3,-2,0,-1,0,-2,-11
8089,-5,-5,-6,-4,0,-4,-3,19
8105,2,-4,-19,-5,0,-3,0,5
8105,-10,-4,18,1,-2,0,4,-21
8106,-11,-1,-3,-1,-2,-1,-2,4
8106,4,1,-3,-4,-5,0,-1,4
8120,-7,-7,-13,0,-4,-1,2,0
8120,-1,-2,-6,0,-3,-5,-3,-3
8126,0,0,-1,1,0,-3,1,1
8126,1,-1,1,1,-1,-2,1,-4
8142,2,5,9,2,1,0,0,-4
8142,-5,-2,-13,-3,0,0,-5,-19
8144,-1,-1,2,-4,-2,-1,9,33
8144,-3,0,-2,-2,0,1,-5,0
8165,-7,-2,2,-1,-2,1,-2,-1
8165,27,9,20,0,-1,0,1,8
8167,-1,-2,-1,2,-1,-1,-8,-12
8167,0,0,0,0,0,1,5,2
8179,-1,3,5,1,-1,-2,-2,-4
8179,-5,-2,-2,-2,-2,-2,-7,-11
8194,1,-1,-3,0,-1,-2,-6,-24
8194,1,-3,-1,1,1,-1,-3,31
8203,1,-4,-5,-4,-4,-1,1,-3
8203,0,0,-4,-1,0,-1,3,18
8204,8,3,1,0,1,-2,-1,-13
8204,-4,-4,-9,-1,-1,-1,-1,-20
8249,5,2,4,1,1,-3,2,13
8249,-8,-2,-6,-2,-2,2,-1,-2
8251,-4,1,6,0,0,2,2,-2
8251,-8,-2,-8,-2,0,2,-1,-3
8251,13,3,5,-3,-4,-4,-2,1
8251,-3,-1,-3,0,1,-2,-1,-2
8255,-3,-3,-7,-1,-3,-3,-3,-15
8255,-1,-2,1,0,-2,-2,3,23
8262,2,-2,2,0,1,1,3,7
8262,-1,-2,-3,1,2,-2,3,11
8264,-6,-3,-17,-4,1,1,-2,-2
8264,1,0,15,2,-1,-1,-3,-14
8284,4,0,2,1,-2,-2,-5,-7
8284,-5,0,7,0,-1,1,-2,1
8286,5,5,7,-4,-1,-1,-6,9
8286,7,-5,-13,-1,-1,-3,-5,-3
8308,-1,6,12,4,1,3,1,0
8308,-14,-8,-1,-3,0,2,1,19
8309,-7,-2,-3,-4,-3,-3,-7,-73
8309,-4,6,13,2,2,0,-3,-70
8322,-6,-5,-10,-4,2,1,5,32
8322,0,-4,-6,-1,-5,-1,0,6
8325,0,3,7,1,-1,-1,4,17
8325,-4,6,1,-4,-1,-3,-9,-8
8345,-6,-4,9,0,0,2,-1,7
8345,-9,-3,-8,-2,1,-2,-9,-46
8346,8,-3,4,1,0,0,-2,35
8346,3,-1,-10,-1,-3,-1,3,-3
8384,-11,-4,-11,-3,0,-4,-6,-57
8384,14,2,6,4,2,5,14,63
8386,7,2,-7,-2,-4,-4,-1,-12
8386,5,-3,0,-4,-3,-5,0,31
8386,-16,-4,-18,-4,-4,-1,-13,-75
8386,6,-2,1,-3,-2,-2,-1,-21
8391,-13,-2,-4,0,0,1,6,-14
8391,10,1,-21,2,2,1,1,22
8405,6,4,12,5,-1,-2,1,13
8405,-6,3,20,2,0,-1,-8,-43
8407,-13,-2,8,1,-1,-1,3,31
8407,-5,-3,2,-6,-5,-5,-8,-3
8418,-9,-18,-14,-7,-5,-4,0,-27
8418,22,6,-9,1,1,5,4,-30
8434,4,-2,7,3,1,2,-1,-25
8434,1,4,6,0,-1,1,5,-5
8450,16,8,-20,-1,1,-2,4,85
8450,-21,-11,14,-5,-3,-8,-11,-42
8451,0,-2,-7,-2,-2,-1,-4,19
8451,-1,-1,3,1,5,3,-2,-18
8473,-3,1,-17,-2,-8,1,3,4
8473,-9,-3,7,11,5,4,1,20
8475,23,8,5,-8,1,4,2,-6
8475,2,-8,-5,3,-2,-2,-2,27
8479,7,-8,23,3,2,1,-2,17
8479,3,19,12,-1,-1,-1,-5,-27
8488,0,3,2,65,23,-7,-7,-5
8488,-3,-4,-25,-75,-59,-7,-2,-12
8502,-16,-13,-5,-11,1,-3,-6,-46
8502,16,-7,-41,23,48,4,5,38
8504,0,8,48,91,-11,0,14,65
8504,-11,3,3,-32,-23,-4,-19,-67
8524,11,6,-29,13,-1,-5,-9,8
8524,-34,-66,2,69,8,-6,-11,-7
8525,11,63,0,-22,27,9,8,-10
8525,-9,-33,13,-35,-4,4,-2,-20
8547,-4,8,-8,-45,-51,-12,-8,-22
8547,-6,11,15,-12,-12,-9,-1,32
8548,-14,-56,-44,-36,-7,-12,-3,-19
8548,19,33,29,82,41,12,6,60
8562,3,28,10,-61,12,13,14,45
8562,-1,-1,21,-17,-15,-3,-8,-11
8562,-1,-2,30,17,16,-10,-6,-10
8562,-1,2,-67,-48,-9,2,15,58
8584,-26,-38,7,34,15,-1,-8,-5
8584,0,1,3,-23,-28,-2,0,-59
8585,17,43,-56,16,3,5,7,-32
8585,-6,-27,26,9,-6,-2,-16,-97
8607,2,1,-17,23,6,1,9,63
8607,-33,-7,19,29,-4,-21,-32,-73
8608,-6,-3,31,45,29,5,-22,47
8608,10,17,-53,-82,-60,-22,13,47
8622,42,-3,-19,-36,-24,-1,17,-4
8622,24,10,9,52,17,11,17,25
8623,4,-18,-49,-50,-29,27,-6,-74
8623,-45,23,45,78,50,-5,4,57
8660,19,17,58,49,3,-11,-29,-128
8660,54,6,-37,-17,-13,-18,44,109
8660,-39,-5,31,10,-15,-21,-22,18
8660,31,-17,-24,-93,4,48,16,-24
8667,-74,-8,27,-24,27,-1,-37,-43
8667,34,26,65,-19,-20,15,43,42
8668,-21,-37,-71,-89,-102,-67,-17,18
8668,14,16,0,-35,7,-23,-36,-70
8682,-18,-60,-71,-16,30,38,45,24
8682,-24,47,64,20,12,2,-44,-40
8682,-33,-8,78,75,53,26,-25,-74
8682,-6,-20,6,23,8,10,20,-2
8704,8,30,4,-44,-7,-44,-44,-20
8704,39,1,-69,42,2,20,56,98
8705,-35,-5,37,30,18,-10,-31,-121
8705,16,-21,-82,-19,-4,6,9,37
8727,-24,1,59,98,15,25,12,36
8727,-64,-80,-25,-22,-34,-21,-67,-128
8728,23,13,43,26,16,-16,4,-1
8728,27,52,50,32,46,10,30,61
8751,40,28,8,39,-15,-5,17,24
8751,-27,-23,-67,-81,-9,25,-9,-35
8752,-12,-29,6,27,23,-9,20,-10
8752,10,5,-19,0,-35,-12,-12,-48
8764,-8,9,-13,-29,-17,-21,1,-3
8764,17,-5,29,3,7,4,2,79
8765,1,11,-3,-43,-1,15,-3,-24
8765,22,3,15,54,1,2,19,112
8779,12,-3,-11,54,30,10,0,-34
8779,-6,13,-17,-32,-9,-2,-3,-41
8786,-6,-16,-37,-51,-23,14,14,24
8786,12,32,6,-6,-11,-25,-26,-57
8802,13,-11,13,37,11,12,11,21
8802,-10,15,18,4,-6,-13,-3,-55
8802,-14,-8,-22,-20,-11,10,17,33
8802,-19,-24,20,54,18,-2,-9,-20
8833,8,-32,-16,-5,-9,-5,-11,-24
8833,-21,53,-5,-1,12,6,4,18
8833,21,19,-41,-51,-23,-7,0,22
8833,-2,23,56,63,22,5,8,0
8855,-38,-23,-25,-24,-3,5,3,-24
8855,-8,-34,-15,-12,-18,-13,-1,-12
8855,51,-1,-5,-5,4,9,8,17
8855,-1,15,15,0,-10,-10,-7,-25
8862,74,25,5,-8,-3,-1,28,45
8862,-27,-8,12,25,23,16,-20,-40
8862,20,48,29,-19,-2,-22,5,3
8862,9,-77,-6,31,13,30,23,64
8885,-13,11,-19,11,-4,-12,-8,3
8885,34,30,-70,-50,-6,-9,0,19
8892,15,16,34,33,22,9,7,40
8892,-29,26,0,-30,-8,-21,-34,-59
8924,-28,-50,-14,-37,-38,-3,-18,-52
8924,-6,18,14,60,24,3,7,77
8925,13,3,37,3,-25,19,34,53
8925,43,37,-40,-48,-15,-3,-6,-61
8926,15,-7,-17,-19,10,4,11,36
8926,-85,-81,-27,-8,7,0,-41,-128
8937,-37,-16,-8,12,14,11,-42,-24
8937,-2,-17,20,38,-4,-40,27,71
8944,35,39,28,17,-9,-5,5,58
8944,72,5,6,-23,-14,-45,30,127
8945,-39,40,2,-18,6,0,-43,-100
8945,-3,3,7,55,47,21,1,33
8967,11,15,-28,-83,-56,7,20,60
8967,-27,-70,-8,-44,20,24,-18,-28
8967,-25,-45,-44,-13,4,17,16,49
8967,-29,-4,9,6,-9,3,-29,-128
8981,-18,20,59,117,71,2,13,-52
8981,-12,36,-12,-63,-49,12,3,-72
8983,57,-14,-37,-24,2,18,30,58
8983,-6,5,80,105,30,5,-8,-77
9006,-6,-23,-65,-73,-20,-43,3,-2
9006,-5,14,-6,-108,-72,15,-42,-101
9006,-30,-11,72,100,91,-88,-41,-9
9006,11,-20,-106,-117,-107,72,74,83
9027,24,17,4,-76,65,-10,11,-22
9027,18,15,7,111,4,-11,0,63
9028,-20,-24,-48,-76,-54,-99,-66,-70
9028,-23,-4,26,2,36,17,-31,-90
9042,-50,3,12,-70,18,80,23,-33
9042,29,15,-53,-116,11,37,67,7
9043,34,-20,-26,-84,-33,-4,-2,40
9043,4,9,-11,74,46,-26,-43,-25
9072,2,10,20,-32,62,27,5,-12
9072,-14,0,46,37,-37,26,-8,-47
9073,-35,-24,-48,-57,-13,40,72,109
9073,14,1,24,-31,-107,-91,0,24
9086,-27,-36,5,49,-6,-31,-52,22
9086,48,73,-59,70,103,-17,2,33
9087,-46,4,48,-93,-44,38,-10,-128
9087,28,-27,-38,-5,22,19,24,115
9110,33,24,66,68,-12,7,34,68
9110,-3,-20,43,72,-15,-47,-20,-17
9111,10,15,-117,-49,-23,21,-15,-47
9111,-29,-7,35,33,47,40,44,68
9124,-44,3,82,95,8,-15,-65,-3
9124,-26,-45,20,66,-32,-29,12,-4
9125,24,8,-23,60,-56,50,19,47
9125,4,-8,84,113,78,-15,-15,-34
9147,-7,-31,-84,-71,-115,41,42,71
9147,-2,6,83,96,59,-37,16,45
9147,4,9,27,-38,8,22,24,-43
9147,-37,-29,-38,-34,-68,-106,-50,-34
9162,5,-1,27,118,57,-25,-38,2
9162,14,0,-68,-68,-51,58,25,2
9162,3,4,46,114,14,-18,1,6
9162,-1,11,-24,-47,33,72,0,-3
9185,-21,-8,-75,-86,-20,-69,-27,-109
9185,4,-8,9,-30,-39,-51,-36,53
9185,20,7,31,33,38,17,20,15
9185,-35,-10,0,3,24,63,-12,-35
9207,24,26,74,31,26,9,37,-5
9207,8,-1,-12,-43,18,15,4,-13
9207,1,-19,-15,-17,-50,-41,-31,20
9207,-45,-3,-21,-103,-4,-36,-38,-55
9222,11,-7,-8,36,1,72,10,10
9222,-11,-3,-63,-73,-15,-71,-7,-3
9223,14,3,17,23,19,22,0,3
9223,-7,-16,-11,20,-32,-18,-7,-27
9244,40,23,-10,-10,31,19,7,39
9244,0,0,28,-1,-13,15,-5,-15
9260,-6,-6,8,6,-11,-25,1,-28
9260,22,10,10,20,-7,-8,8,7
9268,-6,-17,-24,-19,-10,6,-6,-16
9268,-5,12,26,41,10,-4,-8,-14
9269,5,-7,10,24,42,12,14,6
9269,26,10,40,13,22,31,33,77
9282,-28,-1,-11,71,-45,-37,-27,-73
9282,-14,-11,-6,23,-1,-8,-21,20
9282,16,4,5,36,11,22,13,23
9282,-9,-3,-21,-17,19,9,-4,20
9304,-5,-4,-3,-3,-13,-31,14,31
9304,-20,-2,8,-14,2,22,-25,-97
9305,-15,-4,-16,-35,-47,-54,-45,-12
9305,7,2,-8,4,7,13,29,28
9327,-3,-5,-11,-44,-11,0,13,5
9327,3,3,13,26,7,-5,7,34
9328,-21,-2,0,-12,37,73,0,-4
9328,7,2,-30,-59,-28,-55,-5,-3
9350,-25,-10,-5,-18,-14,9,-14,-53
9350,9,0,2,8,19,-13,-1,25
9350,16,1,10,44,0,-14,12,30
9350,-3,-4,-12,-15,-14,7,-3,-17
9364,2,2,-1,-1,-10,-15,-8,-1
9364,-1,-3,-5,-22,9,39,5,-11
9364,0,4,6,24,26,21,19,10
9364,11,-1,4,32,17,8,4,5
9387,16,5,-5,-33,-28,-13,-12,-4
9387,-4,-6,3,8,4,-25,-7,19
9387,19,3,-14,-34,-34,-37,-13,-11
9387,-15,-9,-4,8,19,6,-6,-9
9403,1,0,-7,-13,-3,20,1,-8
9403,10,1,-7,-52,-17,14,9,22
9409,-8,1,39,25,7,-16,3,4
9409,-7,-5,1,20,7,13,-13,-21
9424,8,2,-10,8,29,10,7,8
9424,-7,0,3,25,11,-4,0,-11
9425,-3,-2,-13,-3,-26,-10,-9,-7
9425,-2,-3,-13,-34,-34,-30,-10,-1
9446,-3,1,18,19,18,31,-7,-1
9446,14,3,1,17,36,9,22,26
9447,1,-1,-6,26,-6,-14,11,3
9447,-4,-6,-1,-13,-42,-35,-18,-9
9461,-4,-1,-5,-5,-10,-14,-10,-7
9461,-5,-1,-13,-20,-3,22,3,0
9468,12,5,19,7,33,20,14,19
9468,-1,3,-8,-5,-8,6,5,-4
9484,2,2,-6,-4,2,-14,-13,-5
9484,1,2,12,13,17,9,3,0
9484,4,-4,-13,-35,13,-5,14,3
9484,3,-5,-17,-51,-56,-13,-14,-6
9515,-2,-7,-4,-12,-20,-31,-16,-6
9515,-3,0,17,34,20,13,-8,1
9515,5,2,-9,14,14,32,19,12
9515,7,0,-25,-7,5,-8,12,4
9521,-2,0,-1,13,4,-11,-8,-2
9521,-4,2,7,-13,-20,9,-2,-8
9523,-14,-7,-11,1,-6,-19,-5,-5
9523,5,2,11,3,2,2,-1,-2
9544,-1,-3,5,13,-10,-29,-12,0
9544,-5,2,-11,16,25,12,8,-8
9545,2,2,1,-4,-15,14,2,3
9545,1,-2,3,4,23,16,10,5
9567,0,2,3,11,6,12,8,-6
9567,-13,-6,4,40,12,21,-24,-5
9568,7,8,44,46,10,-2,16,-1
9568,-11,-6,-36,-54,-63,-56,-16,-11
9598,0,0,1,7,-11,2,-6,-4
9598,1,-3,-6,-17,-5,-11,6,0
9599,-7,-4,-4,13,22,-7,-16,-3
9599,-8,1,14,21,24,26,5,0
9605,-13,-3,1,-11,-4,-3,8,-9
9605,17,3,-2,-12,-14,-16,3,13
9607,-5,-6,-24,-36,-8,-3,-11,-2
9607,-6,-1,12,17,12,24,4,-3
9620,-1,1,-14,10,18,9,2,-6
9620,14,-1,3,-4,-1,13,15,22
9626,1,-7,-17,-22,-31,-39,-12,0
9626,-6,-3,8,10,11,2,-11,-10
9635,-3,-6,12,12,8,9,2,-2
9635,-3,-2,-25,-12,-4,-6,-3,-3
9642,-3,-2,-8,-4,1,-16,1,-9
9642,7,2,5,12,1,22,1,7
9656,-3,1,-1,-22,-13,-20,-12,-7
9656,-3,0,4,-1,7,-4,3,-11
9664,0,0,-7,1,3,17,-2,2
9664,-5,0,10,26,-4,-12,-8,-1
9680,7,0,-10,-46,-22,-15,-5,13
9680,-3,-5,-4,1,0,-6,-9,1
9680,-11,-3,-7,5,8,19,6,-1
9680,-3,3,9,7,24,15,13,-1
9695,10,3,5,8,-12,6,-9,8
9695,2,2,-1,-4,-14,-2,4,-4
9709,-3,-1,-4,-7,0,-32,-16,-9
9709,5,1,2,21,30,16,6,1
9716,-11,-5,2,-18,-30,10,19,-4
9716,-9,-6,-8,-26,-42,-75,-23,-7
9723,-5,-1,7,8,-9,5,-15,-5
9723,0,0,-7,-7,7,10,8,2
9748,7,5,5,19,32,28,11,6
9748,-1,-3,1,12,18,37,14,-3
9749,-3,-2,-8,-12,-9,-18,-16,-5
9749,-3,-2,-4,-9,-13,-23,-17,-6
9755,-2,-5,-1,0,8,13,6,-5
9755,1,0,-1,-11,-5,-4,5,4
9762,2,0,-1,-1,1,4,6,2
9762,-7,-5,-3,1,-17,-22,-9,-6
9776,-5,0,-2,3,-12,-18,-8,0
9776,1,0,2,0,19,18,6,3
9783,2,-1,-23,-9,-17,17,5,0
9783,-5,-1,-9,-25,-1,7,-4,-9
9799,4,2,8,0,-23,-34,5,6
9799,-8,-4,4,7,6,3,-10,-2
9806,-9,-3,-18,2,19,24,0,-13
9806,2,-2,-3,-3,-14,-31,-2,6
9822,3,1,-4,-6,-10,-11,-12,-4
9822,-3,0,2,-4,3,-5,-1,-6
9822,4,-2,0,2,9,22,19,17
9822,1,1,2,1,7,11,3,-2
9836,-7,-4,-7,0,7,-2,-2,-6
9836,-3,-3,-1,9,-16,-18,-20,-7
9844,3,1,5,-7,4,0,0,4
9844,1,1,3,-3,1,-4,2,7
9860,-5,-1,4,-4,2,9,3,-2
9860,0,0,-2,-9,-9,2,4,-3
9860,-5,-1,5,2,9,0,-5,-9
9860,6,1,14,22,9,-6,6,5
9884,-3,-5,-10,-6,-8,-6,-5,-4
9884,-1,-1,-1,-1,-5,0,5,2
9884,-9,-4,-5,-2,-4,-13,-13,-7
9884,9,8,28,70,24,29,6,6
9905,-5,-5,-11,-23,-5,8,17,3
9905,6,-1,-2,-5,-12,-19,-13,6
9905,3,1,8,-6,-2,-5,-9,-2
9905,-6,-4,-3,-5,-9,-6,-5,-14
9919,5,2,2,12,0,15,1,5
9919,-3,1,5,4,-10,-30,-1,-3
9920,-6,-2,-1,3,2,6,-1,-2
9920,-6,-4,-10,-18,13,12,-3,-5
9935,9,6,4,22,12,12,7,4
9935,0,-1,-4,-26,-15,7,-2,2
9941,-1,-1,3,-4,-27,-22,-7,-4
9941,-6,-5,-9,-11,1,-2,-9,-4
9958,-4,-1,8,5,15,-14,-5,-3
9958,-5,-3,-14,-9,-8,3,-6,-3
9964,5,3,2,-2,-11,-6,4,-1
9964,2,1,-6,-14,3,-5,10,6
9981,0,3,5,21,29,28,4,-5
9981,-4,-3,3,-5,-8,12,6,-7
9981,5,-1,-8,-12,-18,-28,-8,3
9981,1,-3,-2,-9,-11,-12,-10,4
9994,6,-1,0,-1,11,8,-3,5
9994,-3,1,0,8,13,7,10,-10
10,3,-1,3,9,2,4,8,4
10,-5,-2,-2,-2,1,-4,-4,-3
16,-10,-6,-8,-3,-20,-9,-8,-4
16,3,2,-3,-21,-7,23,-5,5
23,5,5,17,27,51,24,3,2
23,-5,-5,-25,-41,-44,-26,7,-7
40,-4,-3,-3,-18,-26,-24,-22,-10
40,-1,-4,-4,-15,-8,-34,-9,3
40,-5,-4,-4,-7,28,6,-5,-1
40,9,7,8,-18,10,50,25,17
55,-3,0,2,10,10,32,10,-3
55,2,-3,-3,3,-25,-58,-19,-5
61,-7,-4,-7,-10,-16,-6,-5,-10
61,-3,-4,2,15,12,-13,-7,-9
76,1,3,1,-3,-1,12,8,2
76,0,-1,2,18,31,28,21,-1
84,-2,-1,6,8,-8,6,-2,-1
84,12,-1,-17,14,-6,-27,-11,7
98,2,1,1,1,0,-24,-3,3
98,-4,1,17,43,23,37,12,2
106,-4,-1,-12,-29,-19,-1,-2,-4
106,-7,-2,-2,-22,-16,35,-7,0
116,-8,-4,-6,-3,-11,-62,-21,-6
116,2,3,0,6,9,-7,-7,4
121,5,1,0,2,1,37,12,6
121,-3,1,9,19,33,2,2,-7
137,0,-1,-1,7,6,3,10,-4
137,1,2,5,-15,-22,-4,-9,-4
143,0,-2,-17,12,-20,-54,-17,1
143,-4,-5,-4,-17,-15,-6,-6,-3
159,1,-1,-3,-6,3,14,8,5
159,5,1,-2,1,19,42,15,9
183,-5,-1,2,3,10,-10,5,-4
183,4,-4,8,13,-5,13,8,-3
184,-7,-5,-5,-9,0,-20,-14,-12
184,2,-1,-3,6,7,4,-1,-5
186,2,-2,0,-10,-35,-18,-5,-1
186,-4,-1,1,5,11,-3,-2,6
196,7,5,13,1,-8,21,5,3
196,-4,-2,-33,-36,-22,-10,-8,2
203,0,2,1,5,9,2,5,2
203,-2,0,0,-1,0,21,-11,-3
220,-1,-1,13,48,30,1,-1,-2
220,1,1,-8,9,-2,-16,11,1
226,2,-1,-3,-7,-34,-38,-14,1
226,-5,-3,-5,-8,-7,-20,-23,-5
235,-1,-3,-1,0,9,28,11,3
235,8,2,11,17,21,17,18,10
241,-5,-2,-1,-6,-1,7,8,-12
241,4,0,-3,-12,-2,2,6,5
264,0,0,-12,-16,12,-15,-4,-2
264,0,-2,5,-3,-14,-6,-2,-5
280,-5,-1,2,3,8,34,-4,-4
280,-5,-2,-1,-13,-24,-55,-19,-10
282,-6,-4,-21,-27,-37,-23,-7,-5
282,-10,-8,-3,-7,10,11,-10,-3
286,9,4,9,39,55,39,36,15
286,-2,4,3,1,1,20,-2,-8
304,4,2,6,-6,-25,-1,3,4
304,-6,-6,-5,-15,-33,-23,-9,-1
304,-8,-6,-5,-14,-11,-65,-26,-5
304,-3,0,-2,23,7,8,10,-9
327,1,2,20,19,19,13,5,1
327,-2,0,-5,5,-2,15,6,0
327,-6,-2,1,11,11,23,16,-4
327,5,2,-5,-20,-14,-29,-5,10
347,5,0,2,9,-14,-13,-17,-5
347,3,1,7,-3,23,22,15,5
347,1,-1,-5,-7,1,18,7,8
347,-5,0,11,30,15,-7,2,-6
370,3,1,-7,-14,-2,51,10,3
370,2,2,-8,-4,-8,-44,-17,-5
371,6,2,-2,-5,-19,-47,-20,-7
371,-8,-6,-5,-29,-31,-33,-16,-6
376,-6,-4,-6,1,29,39,10,3
376,13,7,4,1,18,17,24,13
392,-12,-4,1,-10,-35,-11,-21,-10
392,12,1,3,8,17,16,7,13
399,6,0,-1,-5,-11,-18,8,3
399,0,2,7,7,2,-1,-4,-10
406,-6,-3,2,1,5,7,-18,-6
406,4,0,-2,-2,6,14,13,7
423,9,4,-2,9,10,-7,1,6
423,-8,-6,-1,-2,6,6,-5,-10
424,3,-3,-7,-26,-29,11,5,-3
424,-6,-7,-7,3,-19,-36,-15,-7
437,0,0,-3,0,1,3,-21,5
437,5,5,12,41,45,-11,4,2
444,-5,-6,-10,-46,-48,11,8,7
444,0,2,3,3,10,12,9,-3
459,-7,-6,-6,-12,-31,-38,-13,-6
459,-10,-5,0,-12,-19,10,-26,-3
466,2,1,6,15,39,20,20,-2
466,5,1,1,1,1,-2,13,5
490,-3,-2,-5,-10,4,-35,-11,-5
490,-8,-3,0,1,6,39,3,-6
491,11,5,0,-8,30,43,24,12
491,-3,-1,-9,-2,-36,-30,-14,-8
519,-13,-9,-10,-11,-19,-67,-35,-12
519,6,0,2,37,31,40,13,6
521,0,-1,-8,-40,-32,-18,-2,7
521,-3,-1,-8,16,6,22,9,-8
535,-4,-1,-2,-6,4,22,-2,-5
535,-9,-3,-3,-5,-15,-52,-19,-16
535,7,1,2,13,3,23,0,5
535,4,-1,4,7,20,-2,5,7
557,-5,-4,-3,-6,-1,25,2,-3
557,-18,-6,-7,-14,-21,-31,-24,-18
559,14,8,7,24,30,3,14,12
559,1,-1,0,-23,-24,32,2,2
564,-7,-3,-2,1,-10,-68,-12,-8
564,20,5,1,-12,-11,30,18,23
566,-5,-3,1,10,-3,-21,-14,-4
566,-9,-1,-2,11,18,8,8,-5
587,2,-1,-1,-14,8,25,13,3
587,-4,-1,3,6,2,17,1,-6
588,-1,3,6,21,30,19,3,-9
588,6,1,7,-1,-13,-11,8,5
610,-3,-3,-7,24,-26,-49,-21,-11
610,-8,-5,-11,-32,-11,-15,-10,0
611,6,-1,1,14,-1,5,3,5
611,-8,-1,8,31,41,-9,-18,-11
623,2,2,-3,-36,-48,60,20,4
623,4,-5,-14,-25,-11,-52,-5,14
647,-5,0,-2,10,37,31,-1,-5
647,-5,-3,-3,-3,-4,6,3,-7
650,2,-3,-3,-9,-16,-16,-4,0
650,-1,-1,0,3,4,13,0,-10
650,-2,3,13,15,-11,-35,-1,-5
650,0,-3,-8,-6,14,10,-1,8
670,-2,-1,2,17,17,0,8,2
670,0,3,0,-24,-29,3,11,-4
671,-9,-6,-4,2,-15,-34,-22,-8
671,3,3,8,4,24,49,7,4
692,5,1,1,3,7,-1,12,9
692,-5,-4,0,6,-14,-16,-17,-3
693,-6,-2,-4,-7,-10,-23,-10,-8
693,2,-2,-3,3,4,9,-5,2
707,3,-1,3,-22,11,23,-1,3
707,-2,-1,-3,8,4,-8,3,-5
707,1,-1,0,3,-10,-18,-4,3
707,6,-1,-8,-24,-13,-36,-6,7
730,-10,-1,7,6,12,31,17,-4
730,7,4,4,5,0,25,3,2
731,-9,-3,-5,-4,0,-27,-3,-10
731,-5,-2,-7,-49,-2,-14,-8,-9
744,4,0,2,9,14,7,3,5
744,-7,-5,-3,2,8,25,4,-4
752,6,1,-3,-5,7,21,9,10
752,-6,-2,4,15,-10,-35,-9,-8
766,4,0,-2,-1,-12,23,3,3
766,3,1,1,-9,-13,-52,-8,5
767,-7,-7,-7,-2,2,8,-10,-7
767,-4,0,-1,-3,-2,11,-4,-5
798,-10,-1,0,18,22,16,-6,-11
798,16,7,7,32,50,62,26,13
799,-10,-6,-12,-53,-81,-56,7,-12
799,7,3,7,1,-20,-29,-37,-1
804,-4,-4,-14,-22,-14,-13,-10,1
804,-1,1,3,12,35,12,4,3
812,-2,1,5,11,16,8,4,-3
812,-10,-6,-7,-7,-14,21,16,-6
842,2,1,3,15,9,-31,-6,4
842,2,1,1,3,-5,-7,-8,2
843,1,-1,-3,-4,6,9,1,5
843,-2,-2,-3,4,-19,-6,18,1
859,-3,1,5,9,21,20,0,-10
859,7,2,4,18,0,-15,9,9
860,0,-5,-14,-20,-18,14,-1,-1
860,-6,-3,-2,-3,16,-10,-13,2
863,1,0,0,7,4,33,6,2
863,-11,-4,0,-17,-48,-84,-22,-16
880,-1,0,3,11,-5,-11,-26,-4
880,15,6,3,11,31,70,20,14
887,8,3,10,7,24,-2,21,5
887,-2,-4,-11,-10,-11,3,-4,-7
887,1,-2,-1,3,-2,12,11,3
887,-2,-3,-6,-7,-8,-7,3,-6
910,-1,1,5,-2,-4,-39,-16,-5
910,-1,1,-7,23,-9,-7,-3,-1
911,2,0,-1,-7,21,47,16,10
911,-5,-2,0,5,6,7,7,-2
924,-14,-4,-8,8,-2,-29,-19,-15
924,5,-3,-9,-53,-63,-23,-6,14
931,-2,-2,-3,2,19,1,-3,2
931,1,6,6,9,10,37,8,-9
947,4,-1,-1,12,4,10,-6,0
947,-13,-6,1,2,2,-4,-12,-13
948,4,0,1,0,3,-55,-26,1
948,4,0,-1,-2,-27,-29,5,0
971,-3,-5,-12,-15,-23,9,5,3
971,-5,1,2,8,42,63,14,-4
971,-7,0,12,0,-3,-11,-4,-6
971,-9,-6,-9,-5,-7,-20,-14,-8
993,1,1,0,-13,-8,-12,-7,1
993,3,2,1,8,26,64,23,6
993,2,3,8,21,71,68,20,-1
993,8,4,1,-10,-51,-92,-11,1
1007,-12,-12,-23,-38,-83,-76,-23,-7
1007,-5,-6,-7,-21,-20,-60,-25,-7
1014,-6,-2,-3,11,17,45,3,-7
1014,2,3,5,22,60,96,15,12
1030,13,4,3,10,31,2,26,14
1030,2,3,8,-8,-35,-24,-2,-4
1030,-9,-9,-10,2,-18,-20,-25,-3
1030,5,-2,-1,1,17,-2,4,7
1052,-1,6,6,-4,-12,-11,13,2
1052,-3,-1,-4,-1,13,27,9,-6
1053,-2,0,-5,-16,-3,-21,-1,-4
1053,-6,-4,-5,-10,-45,-37,-31,-4
1067,4,1,5,-7,16,28,3,0
1067,3,1,-4,4,-3,-4,7,-2
1068,6,0,-10,2,-15,-26,11,5
1068,-13,-7,-1,4,19,21,-21,-10
1090,12,4,3,6,23,32,13,14
1090,-6,-1,3,6,12,-11,0,-8
1091,7,1,3,-6,-27,-4,8,21
1091,-2,-5,-8,-13,-20,-15,-10,5
1112,-6,-4,0,7,19,22,-5,-9
1112,0,0,5,2,13,8,-5,-6
1114,10,5,4,-13,-41,-41,-2,-6
1114,-5,-3,-3,-8,4,35,19,-16
1128,1,-1,1,3,5,-45,-10,-5
1128,-1,-1,0,27,42,25,-1,2
1159,-10,-3,4,-11,-33,3,0,-16
1159,-4,-1,-10,-17,-18,-20,8,3
1161,2,0,-6,-5,-13,10,-7,5
1161,-2,-2,-1,7,13,1,2,1
1161,-1,-1,-3,11,6,9,6,1
1161,-9,-4,3,7,9,20,-17,-8
1180,0,-2,1,7,14,14,3,1
1180,7,0,2,-4,-16,-74,-4,1
1181,-2,-3,-5,-3,-13,8,-6,4
1181,-3,-2,-4,-8,-8,-17,-14,-4
1187,-8,-3,-3,3,24,27,-3,-2
1187,3,4,4,6,1,23,7,1
1187,9,8,10,2,24,50,27,17
1187,7,4,5,9,-8,-22,17,8
1210,-10,-6,-6,-2,-23,-51,-26,-15
1210,-1,-4,-11,-35,-43,-27,-18,-2
1211,-7,-3,0,10,24,-1,-6,-12
1211,3,2,7,11,29,40,17,-1
1232,3,3,5,14,1,40,33,5
1232,-3,-5,-4,-17,-16,-25,8,0
1234,-6,-6,-9,6,-11,-46,-39,-8
1234,-7,-1,-4,-17,-9,-11,-14,-7
1246,-3,-2,2,0,16,59,8,0
1246,-4,-3,-2,-2,0,-33,-1,-1
1247,4,1,4,9,14,44,-4,4
1247,-6,-2,5,15,6,-36,-5,-6
1270,17,3,-10,-35,-20,-10,1,8
1270,-4,-4,-3,1,-26,-13,-8,-2
1271,-6,-5,-9,-20,-18,-26,-14,-6
1271,-3,-2,-1,8,22,49,2,-5
1292,-4,3,4,8,20,-47,5,-6
1292,-1,0,3,6,-8,46,0,3
1293,2,-3,-11,-24,-6,-24,7,0
1293,-3,-1,-4,-4,-2,2,7,-2
1316,-13,-6,-1,-13,-23,-24,-18,-12
1316,3,0,0,3,16,32,8,5
1317,-4,1,4,2,-19,-15,-1,-8
1317,4,-1,2,17,10,-13,-2,8
1330,-3,-1,-4,-17,-9,10,-8,-1
1330,3,4,3,5,9,2,-4,3
1332,-2,1,5,5,5,32,4,-2
1332,3,-1,-6,0,-4,-51,-2,0
1352,-7,-4,7,17,-2,-4,-11,-8
1352,3,0,-8,-19,-11,22,-3,5
1354,9,3,6,16,29,32,19,8
1354,-2,-1,-5,-12,-6,-6,-3,3
1366,4,-1,7,30,5,19,15,8
1366,-6,-4,-4,-18,-8,-64,-19,-8
1375,-7,-3,-4,-5,-20,-10,-8,-8
1375,-1,0,0,-3,4,9,0,-5
1390,-7,-3,-2,-1,-3,11,7,-5
1390,11,4,5,10,3,25,16,9
1391,4,1,-1,-7,6,-13,-2,5
1391,-1,-3,-2,1,-25,-9,-2,-2
1412,-5,-3,-6,-2,12,-5,-13,-4
1412,-6,-3,0,10,-1,23,3,-5
1415,5,-2,-5,18,14,-22,-6,7
1415,11,4,2,-8,-8,20,5,2
1426,3,0,-3,-8,-3,-14,6,4
1426,-3,0,1,7,13,37,-7,-5
1435,-5,-3,0,0,14,-16,10,-3
1435,-1,-1,-4,-12,-51,-58,-16,2
1450,-5,-2,-4,-2,-7,1,-8,-5
1450,-7,-2,3,6,18,10,6,-2
1451,-3,-3,0,7,34,72,13,-4
1451,12,6,11,21,-12,-29,15,9
1473,7,0,-5,-26,-30,-48,-25,2
1473,-9,-6,-3,-7,-9,-14,-10,-4
1474,-3,-2,-3,2,-1,12,7,-2
1474,-1,1,5,23,44,53,5,-4
1487,-3,-2,12,7,-23,-28,3,-10
1487,9,2,-12,-11,5,6,0,5
1495,8,3,-2,-11,-10,-24,0,13
1495,-9,-6,-6,-10,3,8,-11,-10
1510,1,1,2,9,24,44,9,9
1510,1,2,3,11,1,-20,-1,-4
1511,-6,-1,-2,-10,-27,-23,-11,-5
1511,2,-2,-3,-2,9,14,4,6
1532,-5,-2,-4,12,25,-2,0,-6
1532,4,4,1,-13,-17,25,10,4
1534,3,1,-4,-4,-22,-17,-2,-4
1534,-8,-5,0,-4,-1,8,2,-3
1546,-4,-6,-5,2,-10,-54,-20,-8
1546,-10,-4,-4,-26,-24,-16,-13,-13
1555,5,1,6,10,18,32,11,9
1555,9,2,1,3,29,30,21,10
1570,4,2,12,15,-3,16,16,4
1570,1,-1,-5,3,-13,-19,-17,-3
1572,-2,-1,0,-2,4,3,-13,-10
1572,-2,-2,-8,-11,-13,1,2,-2
1593,-5,0,0,5,7,-3,-4,4
1593,1,-4,-4,-8,-5,-16,2,0
1594,-5,-5,-1,1,8,-11,-14,-6
1594,2,-3,-7,-28,-27,-18,2,5
1606,4,2,2,13,9,19,2,2
1606,-7,-8,-5,-7,-9,-5,-1,-6
1615,-8,-5,-3,8,6,6,4,-2
1615,-4,1,-3,-10,-8,-12,-3,-6
1630,2,0,-6,-11,4,30,19,7
1630,-5,1,15,18,21,25,1,-1
1631,-2,-5,-16,-18,-11,-55,-8,-6
1631,8,5,16,27,-37,-23,-6,8
1669,3,-2,-11,-27,-7,5,-6,-2
1669,4,-1,3,5,26,21,9,12
1671,1,0,5,1,10,16,-2,1
1671,3,1,-3,-7,14,28,4,-7
1671,-3,-2,-5,-5,-12,-24,-11,0
1671,-3,1,5,6,-26,-31,1,3
1682,3,1,-8,-27,-3,22,-1,6
1682,-3,0,-2,7,23,-33,-6,-13
1705,0,-2,-4,-19,-28,5,-4,2
1705,3,-1,3,6,-7,-8,0,-1
1706,-10,-4,8,11,16,-13,3,-9
1706,-11,-6,-14,-25,-19,16,-8,1
1713,-1,2,-3,-7,14,9,-6,-2
1713,0,3,5,14,19,11,-1,-6
1714,13,3,0,2,-14,-2,11,17
1714,-9,-5,-2,11,22,25,-2,-15
1726,-5,-2,-1,3,-12,-54,5,-6
1726,-2,-5,-9,-4,-3,1,-4,2
1736,-11,-3,4,9,14,28,-6,-11
1736,1,1,3,-7,-11,-20,-4,2
1749,-3,-5,-8,-10,-27,-17,-2,-1
1749,-1,1,-2,-2,0,-15,-10,-5
1756,7,2,-4,-2,-3,-4,10,16
1756,3,2,8,14,16,26,7,6
1772,0,-2,-1,4,23,39,4,1
1772,-5,-4,-4,3,11,5,7,-3
1774,-10,-5,-3,-2,-30,-20,-18,-13
1774,-9,-7,-9,-22,-40,-40,-1,4
1786,1,1,2,6,20,3,-6,-9
1786,2,1,1,6,21,16,9,3
1795,-9,-1,5,0,-26,-13,0,-12
1795,6,0,-5,0,22,36,-1,0
1818,-2,-3,8,-1,-24,-26,2,-5
1818,-12,-9,-22,-18,-25,-44,-28,-12
1819,-9,-3,-2,5,21,8,-3,-10
1819,3,0,7,39,34,37,7,0
1832,0,4,8,-24,-27,0,10,12
1832,-18,0,0,14,26,15,-5,-12
1833,13,3,-5,-13,-38,-30,8,23
1833,-6,-5,-2,25,22,30,-16,-5
1847,5,-1,-15,-43,-12,-23,5,2
1847,9,1,12,8,-10,-12,15,3
1855,-12,-9,-7,-5,-11,-21,-27,-18
1855,-1,-2,2,-7,8,3,-2,-4
1870,13,3,5,30,12,22,14,14
1870,6,7,5,12,32,24,7,0
1876,-4,-3,3,28,13,26,11,-11
1876,-1,1,-7,-16,-52,-51,-13,3
1893,-1,-1,2,-2,21,22,-18,-7
1893,2,-3,4,45,29,-10,2,5
1894,-10,-5,-12,-72,-22,-5,-8,-14
1894,-17,-10,-14,-39,-19,9,2,-11
1915,-19,-7,-1,13,-34,-67,-26,-19
1915,26,3,1,-9,-7,19,1,17
1917,26,5,8,26,37,24,28,29
1917,-6,-1,5,0,16,24,1,-20
1930,2,1,-10,-15,-11,-16,1,2
1930,-8,-3,-5,-16,-8,9,-10,-11
1968,-2,0,5,22,32,10,2,2
1968,3,2,-1,-15,-12,-21,-2,-12
1969,-7,-8,-7,4,-37,4,-4,-3
1969,-2,-4,-6,-17,-31,-22,-6,2
1970,18,8,7,13,23,45,16,18
1970,-13,-3,-1,5,4,-44,-8,-14
1975,14,10,16,14,33,39,4,-2
1975,13,-1,-14,-31,-15,-3,11,37
1976,-12,-6,-9,-21,-47,-35,-14,-11
1976,-2,1,1,22,32,32,8,4
1988,-2,1,5,24,37,17,24,0
1988,-5,-4,-8,-45,-39,-39,-16,-10
1997,4,0,1,22,-8,-30,-25,-2
1997,-10,-5,5,-12,1,-36,-19,-12
2013,25,12,2,10,6,39,26,34
2013,-8,-1,1,19,26,50,22,-3
2014,-11,-5,0,-3,23,28,8,-8
2014,27,8,8,4,-33,-68,-22,17
2034,-18,-6,-9,-7,-2,-1,-9,-21
2034,-36,-10,-2,-7,0,-3,-20,-38
2041,24,6,2,13,29,5,17,19
2041,-25,-7,-6,-15,-23,58,-1,-21
2049,19,8,18,9,30,28,17,10
2049,20,4,-13,-9,-38,-58,19,21
2057,-18,-10,-14,-35,-48,-69,-53,-32
2057,2,1,3,5,15,-2,-4,10
2073,-15,-8,-4,8,16,9,-6,-11
2073,-15,-5,5,-8,12,75,4,-15
2074,11,8,14,41,15,-30,8,2
2074,29,6,-6,-3,11,8,23,22
2093,-11,-8,-10,-1,0,24,-9,1
2093,11,2,-1,-5,5,-12,16,15
2103,-22,-8,-10,8,-9,-10,-10,-15
2103,4,3,7,-20,-12,1,-3,-4
2118,20,3,-1,4,-7,5,17,22
2118,-3,1,3,14,10,-35,-11,-3
2119,15,10,1,21,3,-3,4,19
2119,2,-2,-6,-15,-31,-9,25,15
2134,-35,-11,-7,-8,15,15,-32,-34
2134,29,8,14,6,2,23,28,30
2137,-20,-11,-5,2,-5,-36,-5,-13
2137,6,1,1,32,17,-15,-3,21
2156,7,2,-3,-16,-19,14,13,7
2156,-23,-5,2,8,15,-4,-28,-30
2158,-8,-2,0,-6,-24,24,4,6
2158,-11,-1,-3,4,18,19,5,-14
2169,6,0,-2,-4,-22,-55,-8,6
2169,11,5,3,20,-19,-17,-7,12
2178,15,6,1,-24,19,44,16,10
2178,-8,-4,-5,12,25,-5,13,-9
2193,2,1,-1,-28,-32,-34,-4,-3
2193,-17,-2,4,-1,-19,1,-9,-29
2194,8,2,-12,-29,-3,1,-5,5
2194,-2,-3,11,40,47,8,-1,-3
2215,1,1,-11,-26,-16,-3,-2,19
2215,-4,-2,0,16,35,30,9,4
2217,-10,0,17,11,-10,44,21,-5
2217,5,-5,-10,-24,-53,-72,-18,8
2230,-6,-5,-1,7,0,-17,-33,-28
2230,22,10,7,2,13,8,10,20
2236,6,-1,0,10,22,37,24,22
2236,3,7,9,11,24,25,9,-12
2253,29,7,1,-23,-7,-22,41,49
2253,-15,-11,-9,-7,-17,10,-22,-28
2254,-11,-5,-2,8,20,-9,-21,-16
2254,5,-3,-5,-20,0,-1,-22,6
2275,-2,3,9,45,-17,-22,6,-2
2275,-11,2,4,-8,-6,-3,-22,-18
2277,22,6,6,-15,4,7,31,27
2277,-4,-2,-20,5,9,42,7,1
2289,-31,-7,0,9,33,-22,-43,-58
2289,20,3,7,-4,-20,-9,4,31
2298,-11,-5,-12,-16,-9,-8,-17,-21
2298,19,8,4,-10,-16,0,23,16
2313,3,-4,-2,-8,14,64,1,17
2313,-6,-5,-12,-26,-23,-77,-32,-44
2315,-13,-8,-2,-12,-34,-40,-6,18
2315,10,1,3,-5,-25,-26,-10,21
2335,-33,-5,-4,-5,25,23,-20,-34
2335,7,6,17,52,60,73,32,2
2336,23,7,-3,11,30,41,34,-6
2336,-13,-9,-2,-36,-50,-64,-29,-43
2348,2,-6,-5,7,-7,1,5,45
2348,-2,-2,0,21,-2,-2,-6,8
2358,-3,2,-9,-37,37,45,6,1
2358,0,3,1,2,-15,-2,5,-12
2380,5,1,8,24,-20,-31,-7,-15
2380,-5,-2,-6,14,-7,3,-6,19
2382,-41,-9,4,12,-23,-78,-55,-73
2382,1,-4,10,18,6,31,7,12
2403,-4,-1,-9,-32,5,43,5,-13
2403,26,7,-1,-13,29,21,32,32
2404,-5,-7,3,34,-16,-12,-10,-67
2404,-15,-7,-10,-36,13,-33,-31,12
2409,13,5,4,3,-31,-8,8,77
2409,-15,-5,-13,-21,5,-7,2,-11
2417,33,12,10,1,-33,3,-7,46
2417,11,-3,-3,32,12,-13,9,-12
2433,-17,-5,2,14,12,-2,4,-26
2433,-2,2,-4,-18,3,37,-9,-15
2434,11,3,0,-24,-14,-12,14,7
2434,-4,4,5,24,-8,-22,-4,-18
2455,34,0,-9,-29,-24,-10,15,45
2455,-19,-8,-1,8,-5,-58,-40,-71
2462,-10,-1,4,8,18,43,23,99
2462,31,14,15,14,31,59,36,59
2468,-29,2,20,51,-15,-8,5,-50
2468,-9,-13,-11,-19,36,41,16,-19
2478,26,14,-24,-66,-51,-54,-19,-5
2478,-9,-8,-8,6,4,-42,-14,51
2492,4,0,7,19,16,6,-9,-16
2492,-14,6,-2,-23,20,18,5,-36
2494,-28,-10,5,0,-26,51,-1,0
2494,7,0,3,-12,-13,-28,22,-20
2522,-1,-27,-14,-21,-10,-26,-20,-72
2522,3,6,9,23,-2,-25,-2,44
2524,-13,1,8,24,56,45,24,8
2524,-14,9,10,19,-14,59,16,-35
2529,18,-11,-19,-45,6,-5,49,30
2529,1,-7,-17,-11,-69,-80,-46,-2
2538,1,-13,-8,8,-14,-78,-42,-31
2538,-41,-21,-15,9,11,29,-15,-1
2552,50,27,7,10,35,47,39,82
2552,-33,-7,1,5,0,5,-10,-55
2554,17,16,4,-12,-4,15,24,-18
2554,-33,-17,0,44,22,-6,-20,-75
2575,6,2,-20,-65,-29,-5,26,-9
2575,19,4,-1,-3,-1,4,13,19
2576,-22,-12,3,30,13,-27,-31,-22
2576,10,6,-5,-48,3,49,-3,-15
2589,-5,11,10,43,30,5,-22,-6
2589,33,-6,0,-20,-18,-32,25,42
2598,-30,-22,-18,-35,-58,-63,25,-16
2598,10,2,7,-30,-9,-9,-30,-2
2612,-22,0,1,30,53,-6,-40,-30
2612,-12,-2,-1,-3,-50,38,6,25
2614,16,6,7,0,36,34,-6,6
2614,31,1,-11,1,-11,21,41,23
2635,-24,-12,-7,-19,-29,-16,-46,26
2635,0,6,9,19,17,-50,-28,-39
2636,-23,3,4,25,9,4,-47,-87
2636,19,6,-3,7,11,34,26,42
2648,-38,-12,-1,-2,15,65,-7,-58
2648,15,-7,-11,14,-3,-62,34,29
2658,1,-9,1,9,-52,-48,-26,30
2658,-25,0,-8,-44,-34,-74,-61,-34
2672,20,10,6,12,36,27,11,-7
2672,-35,-5,-3,-3,5,55,-2,-16
2679,35,15,8,22,58,101,80,23
2679,16,-2,-8,-1,-30,-46,18,31
2695,-10,-8,-3,-13,-37,-67,-48,-73
2695,8,1,3,9,9,-8,4,85
2697,20,7,4,1,23,17,6,-33
2697,-41,-1,11,8,30,88,-5,-50
2718,25,13,-5,-32,-6,21,50,51
2718,15,-10,-27,-59,-65,-78,-9,-26
2719,-11,-17,-8,-17,-53,-62,-35,4
2719,-25,-13,-9,-13,10,-30,-24,-1
2739,-32,-8,16,46,7,-4,-27,-109
2739,16,10,5,-9,28,81,37,80
2757,-1,3,-2,-11,23,18,15,24
2757,2,0,0,15,5,-5,-9,-19
2758,-1,4,6,15,11,5,-2,7
2758,11,6,14,39,43,26,16,-23
2761,-2,-6,-16,-56,-70,-41,-24,9
2761,11,2,1,4,-32,-24,6,-16
2777,5,0,0,-3,-8,-2,6,40
2777,-18,1,6,6,30,65,-6,-91
2779,3,6,9,20,43,-40,11,107
2779,-10,0,3,0,-7,20,-2,-73
2791,-2,-7,-12,-19,-34,-56,-16,2
2791,-20,-10,-13,-26,-37,-28,-30,-33
2800,-12,-10,-4,9,11,13,-22,-110
2800,34,8,3,-1,20,14,33,84
2814,10,2,2,16,11,17,22,87
2814,7,4,6,8,1,8,1,-29
2817,2,4,3,7,7,14,0,-35
2817,-16,-4,-3,-8,2,-15,0,5
2845,0,-2,-8,-5,-8,0,-10,-44
2845,4,3,28,-2,-5,-7,4,41
2846,-4,-4,-2,-8,-3,1,2,18
2846,-4,-3,0,8,-1,0,-6,-19
2852,-9,-3,0,-2,-1,0,4,17
2852,-4,-3,-1,-7,-8,-7,-7,-3
2859,-14,2,0,13,7,10,-1,-19
2859,3,-1,4,2,4,-5,-6,0
2875,30,7,2,10,11,-3,12,4
2875,1,-1,-3,10,-10,-6,-1,6
2876,2,-1,-4,-26,-21,6,5,0
2876,-2,-2,-6,0,0,-8,-2,5
2897,-17,-7,-3,-16,-9,-10,-11,-14
2897,0,0,-1,11,11,3,-5,-10
2899,8,6,7,17,10,4,1,19
2899,-5,-6,-1,-2,-4,-2,-3,0
2912,-18,-11,-25,-18,-2,0,-4,-10
2912,-4,-2,11,5,-9,-4,-2,4
2918,-4,1,-11,11,3,3,2,-11
2918,5,-1,-6,-14,-1,-4,2,7
2935,3,2,7,4,-3,1,-3,-7
2935,-3,-4,-15,-16,-4,-2,-5,1
2937,-13,-6,-8,-6,3,1,-5,-6
2937,15,6,6,9,0,3,6,7
2959,3,0,4,-4,-5,-1,0,7
2959,1,-7,-8,-7,-2,-1,2,4
2960,4,0,8,14,13,1,-2,-7
2960,-1,-3,-3,-9,-15,-4,1,9
2980,-5,-3,-1,0,-5,-1,2,-12
2980,0,2,-3,-1,-2,0,-3,-5
2982,0,-2,3,5,2,-1,-7,3
2982,-4,0,-6,-5,0,-5,4,17
3002,-7,0,0,0,1,6,2,-70
3002,-1,1,-1,4,2,-6,9,5
3004,4,-2,-1,-2,3,4,3,5
3004,-6,-4,-3,-1,4,0,-6,-4
3020,3,-2,1,3,-2,-6,2,59
3020,-3,1,0,-3,0,1,-11,-65
3022,0,1,-2,-2,-1,0,6,25
3022,-3,-2,-1,-1,3,-3,-2,0
3031,0,-3,-18,0,0,-3,-8,-20
3031,7,-2,-1,-4,-2,3,4,0
3051,4,0,-4,-8,-2,-2,1,48
3051,-1,1,3,1,-2,1,-1,21
3055,1,-1,-3,0,-4,-5,-3,63
3055,-2,-2,-4,-4,-3,-4,-8,-14
3057,6,2,1,0,3,1,4,-8
3057,-4,-4,-6,-4,-6,-3,-2,-23
3077,-6,-3,3,-6,-1,-3,-6,-27
3077,-2,-4,-3,1,-3,-3,-7,17
3079,0,-4,2,3,0,-1,-2,18
3079,-2,-1,-2,-5,2,1,1,-11
3091,4,2,4,4,-4,0,1,-7
3091,-3,2,4,1,-4,1,1,7
3100,-4,-3,-9,1,-5,0,-4,-16
3100,-1,-1,-1,-2,-1,0,4,4
3115,-3,-1,6,3,-2,-1,4,5
3115,-3,-3,-7,-4,-2,-6,-5,4
3121,-3,-3,3,1,-3,-3,-6,-23
3121,4,2,-2,-1,-4,-4,-5,-1
3145,0,1,0,-3,-1,1,-3,-11
3145,3,0,-2,-3,-2,1,2,10
3146,-3,-4,1,-2,0,0,-1,-7
3146,-6,-4,0,3,-1,2,-7,-10
3151,-5,-3,-2,-2,0,-2,-2,-2
3151,4,0,0,0,0,0,1,13
3160,-4,-2,-1,2,-3,-3,-7,-7
3160,-5,-2,-3,-3,-2,-1,0,-8
3182,-5,-3,-1,-1,-1,-4,-4,-4
3182,-3,-1,0,1,-2,-4,1,4
3183,1,-3,-2,0,0,1,2,-5
3183,6,3,1,2,-1,1,0,0
3198,0,-1,1,0,-2,0,2,1
3198,-3,-2,-3,-1,-3,-1,-1,-1
3199,-2,0,-2,-3,-2,0,6,5
3199,4,0,0,0,2,-2,3,-5
3211,0,2,-1,0,1,1,3,1
3211,-5,-1,-3,-3,-1,-2,-1,-2
3220,-3,1,-1,-2,-3,-3,4,-11
3220,3,-1,-2,2,-1,0,5,2
3235,0,0,-1,-1,-1,-2,-1,-3
3235,1,-3,-2,2,-1,-3,-4,-2
3237,-2,-2,-1,-1,-1,-4,-2,-7
3237,2,-4,1,-1,-1,-4,-7,-2
3257,0,-3,-3,0,-1,-3,-6,0
3257,-1,0,-3,-3,-2,-1,-2,2
3259,2,-2,-2,-3,0,1,0,-2
3259,-1,0,-2,-3,0,-2,0,1
3271,-3,0,1,-3,0,0,4,0
3271,-2,1,1,1,0,1,5,0
3280,-1,-1,0,1,0,1,4,-3
3280,-5,-2,-1,-1,-2,0,2,-5
3295,-8,-2,-2,-2,-3,-3,-1,-1
3295,-2,0,-4,0,-1,1,0,3
3296,-7,0,-4,-2,3,3,1,-2
3296,0,1,0,0,0,-4,-7,4
3318,4,1,1,2,1,1,4,-4
3318,2,-1,1,-1,-1,-1,-1,0
3319,4,-1,1,2,0,-1,-2,-1
3319,-2,-2,0,0,-1,-4,1,1
3332,-3,-3,-1,-3,-3,3,0,-2
3332,2,0,0,-3,-2,-2,3,-1
3357,-1,-2,-2,-2,-3,2,3,0
3357,-2,-1,-2,-3,-1,0,-2,-3
3357,0,0,-2,0,0,-6,-4,-4
3357,-5,-2,-3,-2,0,-2,-5,-1
3361,-1,2,1,1,-4,1,-6,-1
3361,-4,-2,-1,0,-4,2,-3,-4
3377,3,1,3,0,-1,-1,-7,-1
3377,7,2,2,-1,-1,1,-6,1
3378,-2,-3,-3,-3,1,-3,-3,5
3378,-3,-1,-5,-1,-1,-1,-2,2
3391,6,2,-1,-2,-1,0,4,3
3391,-2,-2,-2,-3,1,-1,4,-1
3400,1,1,0,-2,-3,-2,2,-8
3400,3,2,0,-3,1,1,4,-2
3415,-1,-1,-1,-3,-1,-1,-1,-6
3415,-1,-1,-2,2,-1,-1,0,2
3417,-3,-2,-2,3,1,-2,-1,1
3417,-2,-2,-3,-3,0,0,-3,2
3437,-1,-1,-2,-2,-1,-1,-1,0
3437,-5,-2,-2,-1,-1,1,0,-2
3439,2,-1,-1,0,-1,-1,1,-5
3439,-1,-1,1,2,-2,0,1,-3
3451,3,-2,1,0,0,0,-1,-1
3451,-3,-2,-2,-3,-2,0,1,-1
3460,0,1,-2,-4,-1,-3,2,3
3460,-3,-1,0,-1,-1,-3,-3,-1
3475,-3,0,-3,1,-2,-1,-2,0
3475,-1,0,1,1,1,0,-3,0
3476,-3,0,0,-3,-1,0,-2,-3
3476,-2,-1,1,-2,-1,0,2,-3
3498,-2,-4,0,-2,0,-2,-1,-1
3498,1,-3,-1,1,-1,-1,-5,-2
3500,2,-3,-2,0,0,-1,-2,-3
3500,-1,-3,-1,-2,0,-1,-2,-1
3512,-4,-1,-1,-2,1,0,-2,-2
3512,-2,0,-3,-3,-3,-1,-2,0
3520,1,0,-2,-1,-2,1,4,-1
3520,-1,2,-2,-1,-2,0,1,-3
3535,-1,2,-1,1,-1,1,0,-4
3535,1,2,0,0,1,2,-1,-2
3541,1,-2,0,-1,-3,-2,-2,2
3541,2,-4,0,0,-3,-2,-2,2
3557,-1,-1,-1,-1,-3,-4,0,3
3557,-2,-2,0,-3,-3,-1,-1,3
3564,-4,-2,-1,-1,-2,-3,0,-3
3564,-2,0,2,1,-1,-1,-3,-5
3571,-1,0,-1,-1,-1,2,-4,-2
3571,0,-1,-1,0,3,1,2,-3
3580,-4,-1,-3,1,2,-2,2,-3
3580,-1,2,1,0,2,-3,0,-1
3602,-4,0,1,0,-3,-3,-1,-1
3602,-1,0,0,-2,-2,-4,3,0
3604,-2,-1,1,0,-2,1,-1,0
3604,0,0,-3,-1,0,0,-3,-2
3618,-3,-1,-2,-2,-2,-2,-2,1
3618,-7,-2,-3,-1,-3,-3,-2,-2
3619,-2,-4,-3,-3,-1,-3,0,-2
3619,0,-2,-3,-1,-1,-1,-2,0
3640,1,-2,-3,0,-2,-1,0,0
3640,0,-4,-1,-2,-1,-2,-3,2
3642,-1,2,1,1,1,0,-3,1
3642,2,0,-2,1,-1,0,0,0
3655,1,-1,-2,-5,0,1,4,1
3655,1,-1,-2,-1,-1,0,2,-3
3661,9,1,1,-5,1,-1,-2,-1
3661,0,-1,0,-1,0,-1,-3,-4
3678,0,0,0,-1,0,-1,-1,-3
3678,-3,-2,-1,1,-1,0,-1,-2
3679,-3,-2,1,0,-1,1,-4,-2
3679,-1,-3,-2,-1,-2,-1,-1,1
3700,1,-3,-2,-1,-1,-1,-1,-1
3700,-1,0,-1,-3,-4,-1,1,0
3702,-5,0,-2,0,-1,-2,-2,-1
3702,0,-1,-4,-2,-2,-2,-2,0
3715,-4,-3,-2,0,0,-2,-3,1
3715,3,-1,-1,-1,0,0,-3,1
3723,0,-2,0,0,-2,-1,-2,0
3723,-6,-3,0,-1,1,2,-1,-1
3737,-1,-3,0,1,0,3,0,0
3737,1,-3,-3,0,0,-1,2,-1
3738,1,0,-3,-2,-1,-1,1,-4
3738,0,0,-1,-4,-2,-1,-4,-3
3760,1,-1,-2,-3,-1,-1,-4,-1
3760,-2,-1,-1,-1,-2,0,0,0
3761,0,-1,0,0,-2,-1,3,-2
3761,0,-2,-2,0,0,-4,3,-2
3774,-3,-1,-1,-1,-1,-1,3,-2
3774,0,-1,-1,-1,-2,-2,1,2
3781,-2,-1,-4,-1,-1,0,-3,0
3781,-1,0,-1,-2,-2,-1,1,0
3798,-2,0,-1,-2,0,-3,-4,-1
3798,-1,-2,0,-1,-1,-2,-6,-3
3799,-4,-1,1,-1,-2,-1,-3,-1
3799,1,0,0,0,-1,-1,-2,1
3820,-4,-2,-2,1,1,-2,0,-1
3820,-2,-1,0,1,-2,-2,5,-2
3821,-1,-1,-1,0,-1,-3,1,0
3821,-2,-1,-1,0,-3,-1,-1,-2
3833,1,-1,-1,-2,-2,-1,0,-3
3833,2,-1,0,-2,-1,-3,-1,-2
3842,-1,0,-2,-3,1,1,1,-1
3842,-1,0,0,0,0,-1,0,0
3856,-2,-1,1,-2,1,1,1,0
3856,-4,0,-1,-1,0,-1,3,-2
3865,0,-2,-1,-2,0,-1,5,1
3865,0,0,-2,-1,1,-1,1,1
3879,0,-1,0,1,-2,-1,-6,-1
3879,0,0,0,-1,-2,1,-7,-1
3882,0,-1,0,0,-4,-3,-7,0
3882,-1,-1,0,0,-2,0,-3,-1
3894,2,0,-1,-1,1,0,2,-3
3894,-2,-2,-3,-1,0,-1,-1,-1
3903,2,-3,-4,-1,1,1,-3,-3
3903,-1,-1,-3,-2,-1,1,-3,-1
3917,-2,0,0,0,-2,0,1,-4
3917,0,1,-1,1,-4,0,-2,-2
3919,-2,-1,0,-2,-2,0,0,-1
3919,-2,-4,-3,-1,-1,-1,2,-1
3940,0,-2,-1,-1,2,-1,-3,1
3940,-2,-3,1,-2,0,-1,-2,0
3941,-1,0,1,0,-1,-2,0,2
3941,-4,-1,1,-1,-1,-2,-1,0
3954,-2,0,-3,-1,-5,1,-1,4
3954,-3,0,0,0,0,0,1,0
3962,-2,0,-2,1,0,-1,-2,-2
3962,1,1,0,-2,-1,-1,-5,-3
3978,-1,-2,-2,-1,-2,-2,0,-4
3978,-2,-1,-2,-5,1,-1,-3,-2
3979,-3,-1,0,-3,-2,0,0,0
3979,-2,-2,-2,-2,0,0,0,2
4000,-1,-1,-1,0,-2,-3,2,1
4000,1,0,-2,1,-1,-2,3,-1
4002,2,1,-3,2,0,-2,5,-4
4002,1,0,-3,2,-2,0,4,-4
4013,-2,-1,-1,-1,-3,0,-2,0
4013,-1,-4,0,-1,-1,-1,-3,0
4022,0,-3,-2,-1,-1,-2,-4,-2
4022,1,-1,1,-2,-1,-2,-3,-1
4045,2,-1,0,-1,-1,-1,-1,0
4045,1,1,1,-3,-2,-1,-3,0
4046,0,1,1,-2,-1,-1,2,-2
4046,0,0,0,-2,0,-3,2,-2
4067,0,2,-2,-1,0,-3,1,-1
4067,-2,-1,-6,-1,0,-3,0,-1
4069,4,1,-1,-1,0,0,-2,2
4069,-1,-2,-2,-1,-2,1,-3,2
4074,-1,-2,0,1,1,2,-2,1
4074,-1,-2,-3,2,0,2,-1,1
4082,-3,-2,0,-1,-1,-1,-2,-1
4082,-3,-3,0,1,0,-3,-2,-2
4097,-1,-2,-1,-1,-3,-2,-4,-4
4097,2,0,-2,-3,-2,0,-2,-2
4099,-2,-4,-2,-4,-3,-2,0,-2
4099,-2,-1,0,-2,-2,0,-1,-1
4120,-1,-3,-1,-1,0,0,1,1
4120,-3,-2,1,2,-1,-3,2,-2
4122,-4,1,-3,2,-2,-1,2,-1
4122,-3,1,-3,-2,-2,-2,0,-1
4135,-3,0,-3,-2,-2,0,-2,0
4135,0,0,-1,-1,-1,0,-5,-2
4140,1,-1,-1,-1,0,-1,-6,-2
4140,1,-3,-1,-1,-2,-1,-1,-2
4158,1,-3,0,-3,-1,-2,0,-1
4158,-2,-2,2,-3,1,0,1,1
4159,1,-3,1,-3,-1,-1,-1,3
4159,-1,-2,-1,1,0,1,-2,-1
4180,-2,0,-1,1,0,0,-1,-1
4180,-2,-2,-1,-2,-2,-1,-1,2
4182,-5,-1,-3,0,-1,-4,-2,-2
4182,0,2,-2,-3,-3,-4,-2,-3
4194,-1,0,0,-1,-4,-1,-5,-3
4194,-3,1,0,0,-3,0,-2,-3
4200,1,-1,0,1,-2,-1,-4,0
4200,2,-2,0,0,1,1,-3,3
4217,-1,-1,-2,-3,1,-3,-1,-1
4217,0,-2,-2,-2,-1,-1,1,-2
4219,-4,-2,-2,-2,-1,0,1,-1
4219,-1,0,0,0,-2,0,-1,-3
4240,0,-2,-2,0,0,0,1,-4
4240,3,1,-2,-2,1,-3,2,-3
4241,3,2,0,-1,-2,1,3,0
4241,-1,1,-2,0,1,-1,0,2
4254,0,0,2,-3,-1,-2,-1,2
4254,0,-2,-2,-1,-1,-2,-2,-1
4261,-2,-2,-1,-1,-1,-1,-3,-2
4261,-3,-2,-1,-1,1,0,-1,-3
4278,1,0,0,-1,-1,1,-2,1
4278,-1,0,-3,-2,-1,-3,-3,5
4279,0,-2,-3,0,-1,-2,-2,-1
4279,2,-2,-1,-2,-1,-2,2,3
4300,-1,0,-3,-1,-2,-1,-2,1
4300,-2,0,1,-1,-1,0,-3,-1
4302,-7,0,0,-3,-1,0,2,-2
4302,-3,0,2,-1,-2,0,5,1
4314,-3,-3,-1,1,-2,0,2,-3
4314,-3,-2,-1,0,-2,-1,-1,-6
4323,0,0,-1,0,2,-2,-3,0
4323,-3,-2,-2,-1,0,-1,0,-4
4345,2,-1,-4,0,0,-1,-1,-8
4345,1,-1,-3,0,-6,2,-4,-9
4347,-2,0,-1,-2,-2,0,-4,-8
4347,-2,-1,-2,-4,1,-2,-4,-5
4360,-1,-2,0,-3,3,-2,-1,0
4360,2,-2,-2,0,4,-3,1,1
4361,-1,-2,-1,-1,-3,-3,0,2
4361,-2,0,-1,-2,-2,-1,0,-2
4374,-2,-1,-1,-3,-2,2,0,-4
4374,0,1,-1,-3,-2,1,1,-2
4383,1,-1,1,-1,-2,1,0,0
4383,2,1,-2,1,-3,0,-2,2
4398,-3,-2,0,0,0,-3,-1,3
4398,0,0,0,-2,-1,-3,0,1
4399,-1,-1,0,-2,-1,-3,-3,2
4399,-1,-3,-1,1,-2,-1,-1,0
4420,4,1,-2,0,-1,-1,1,0
4420,0,-2,-3,2,-1,0,2,2
4421,-1,1,-1,-1,-1,0,2,1
4421,1,-1,0,0,-1,0,-3,-1
4433,-1,1,-1,-3,-3,-1,-2,-1
4433,-1,-3,0,0,0,-3,0,1
4442,3,-4,-2,-1,0,-2,3,-2
4442,-1,-1,-2,-2,-2,-3,2,1
4457,-4,-2,-1,0,0,0,-1,1
4457,0,1,1,-1,-1,0,-1,2
4459,-1,1,-2,-1,-1,2,-2,-1
4459,-1,-1,0,-2,0,2,-1,0
4480,-1,0,-3,-2,-2,-1,-5,-1
4480,-3,-2,-4,0,-1,-2,-3,0
4482,-1,-2,-2,2,0,0,-4,-2
4482,-1,-1,1,0,-1,-1,-1,-3
4494,-2,-1,1,0,-1,-2,-6,2
4494,2,0,-1,0,-1,-1,-2,1
4503,1,0,-4,1,-2,0,1,3
4503,1,-1,-2,-2,0,-1,1,2
4525,2,1,-1,-1,0,-2,-1,3
4525,-2,-1,0,-4,0,-3,-1,-2
4527,1,-1,1,0,-2,-2,0,-3
4527,0,-1,0,1,-3,-3,-1,1
4540,0,-2,-2,-1,-3,-2,1,-1
4540,-3,0,-1,0,0,-1,-3,-3
4541,-3,-2,-2,-3,1,0,3,-3
4541,-5,-3,-1,1,-2,-1,0,-1
4554,-1,-2,-2,0,0,-2,-1,-1
4554,-2,-1,-2,0,-1,-2,0,1
4562,1,0,-4,-2,-1,0,-1,2
4562,0,-1,0,-2,0,0,-1,-2
4577,-1,-2,-1,-2,0,1,3,-2
4577,-3,-1,-2,1,-1,0,3,-3
4579,-1,-2,-1,1,-1,-2,0,-1
4579,0,-3,-3,-2,-1,-2,-6,-3
4600,-1,-2,1,-1,-1,-1,-4,0
4600,0,-1,0,-3,-4,-1,-3,-1
4602,-1,-2,1,-3,-1,-2,-3,-1
4602,-2,3,-1,-3,-2,-2,-6,1
4622,2,0,-1,-1,0,-1,-3,0
4622,-2,0,-1,0,1,-2,0,-1
4624,2,1,1,-1,0,0,0,-1
4624,-3,-3,-2,0,-2,1,2,-2
4638,0,-2,-3,1,-2,2,4,-1
4638,1,-1,0,2,-3,3,2,-2
4639,0,-2,-2,1,1,0,-1,-1
4639,0,1,-1,0,0,0,-1,0
4660,0,2,0,-3,1,-1,-1,2
4660,0,0,-1,-3,0,1,-2,3
4661,-2,0,-1,-4,-1,0,-1,-2
4661,-2,-1,-2,-3,-3,-2,1,-4
4674,-1,-2,-3,-3,-1,-3,1,-6
4674,3,-2,-2,0,0,-2,0,-1
4682,0,-1,0,0,0,-2,-3,0
4682,-2,-2,-1,1,-2,0,0,0
4697,-1,-1,-1,0,-1,-5,0,-3
4697,-3,-2,-2,-2,-1,-4,-4,-2
4699,-1,0,-1,0,1,-2,-2,0
4699,-2,-1,-1,1,2,1,-4,0
4720,-3,-3,-2,-2,-1,1,-2,-2
4720,-1,-2,-2,0,0,1,-4,-2
4721,-2,-2,0,0,-3,1,-3,-1
4721,1,0,0,0,-2,-2,-2,3
4734,-1,-2,-1,-1,-3,0,-2,2
4734,-3,0,0,-2,-4,-1,1,0
4742,-1,0,-2,-1,-4,-1,3,1
4742,0,2,-3,-1,-2,-2,3,-3
4757,1,-1,0,1,-1,-1,2,0
4757,-3,-2,0,-2,-1,0,-2,-2
4760,-4,-3,-1,1,2,-1,0,-5
4760,-2,-2,0,-2,2,-3,-1,-6
4779,-3,-1,-3,-1,2,-4,1,-3
4779,-2,1,-4,-2,0,-1,-1,-3
4781,1,-1,-3,-2,0,-3,-1,2
4781,-1,-3,0,-2,0,-2,-2,1
4802,-3,1,2,1,-3,0,-3,0
4802,-4,-1,1,-1,-1,0,-2,-1
4804,1,2,-2,0,-1,1,-2,0
4804,-1,-2,-1,0,-1,0,-1,0
4817,1,-3,-1,0,-2,0,0,-1
4817,1,-1,1,0,-2,-1,-1,0
4824,0,-2,-1,2,0,-1,-5,-3
4824,-2,-2,-1,1,0,-2,0,-2
4840,3,0,-1,-3,-2,-2,-3,-1
4840,0,-2,0,-1,-1,-1,0,1
4841,-2,-1,-3,-1,-2,-2,1,-1
4841,2,-1,-2,0,0,-1,0,-4
4862,0,-1,-2,1,-2,0,-3,-3
4862,1,-1,0,-1,-2,-1,-1,-5
4865,-2,-2,1,-1,-2,-3,1,-2
4865,1,-1,1,-2,-1,-2,4,1
4878,-1,2,-1,0,-2,-1,2,-2
4878,0,0,-1,-3,0,-1,-2,-2
4879,-3,-2,-1,-2,-2,0,-2,-1
4879,-3,0,0,0,-1,-2,-1,1
4900,-4,0,0,-2,2,1,-3,0
4900,-3,0,-1,-1,2,0,-1,1
4901,-2,-1,-2,-3,0,1,-2,-2
4901,0,0,-3,-3,-2,3,-1,0
4923,-2,-2,-1,-1,1,0,-4,2
4923,-4,-2,-1,0,-1,0,0,1
4924,-1,-2,0,-2,-3,-1,0,0
4924,-1,-1,1,1,-1,-2,-2,-3
4936,1,-1,0,1,-2,-3,0,-1
4936,0,-2,-1,0,-2,-3,3,-1
4944,-4,0,-3,-2,-1,-2,1,1
4944,-3,0,-2,-1,-4,2,-4,-2
4960,1,0,-3,-4,-1,0,-2,-1
4960,2,-1,-2,-2,0,-1,-1,-2
4962,1,-1,-1,-1,0,0,-1,0
4962,0,0,-2,0,-1,3,-1,0
4983,-4,-1,0,0,0,-1,2,2
4983,0,-1,-2,0,-1,-2,2,1
4984,-2,0,-2,1,-1,-1,1,-3
4984,1,0,-1,0,-1,-2,-1,-1
4997,-1,-2,1,-1,-4,-1,-4,-4
4997,-2,-2,-1,-3,-1,0,0,-1
5004,3,0,-1,-4,-2,-1,0,-1
5004,-2,-1,0,1,0,-2,-1,2
5021,-1,-1,-2,1,-1,0,-1,2
5021,-2,-3,-2,2,0,-1,-1,-3
5022,-1,-2,0,2,1,0,-3,-1
5022,-3,-3,-1,-3,1,0,-1,-3
5042,-3,2,-3,-2,-1,1,1,-1
5042,-1,1,0,-1,0,-1,-7,-3
5043,-1,0,-1,-3,-2,-1,-2,-3
5043,-1,0,-2,-1,-2,-2,1,-1
5057,1,-4,-2,-2,-1,-2,1,-3
5057,0,-4,-1,-2,-2,-4,0,-1
5064,3,-1,-1,0,-2,-3,-3,-1
5064,-2,-2,-2,0,-2,-1,-2,1
5080,3,-1,-2,1,0,-1,-3,1
5080,-3,0,-1,-1,0,0,0,1
5087,-4,-2,-2,-2,-2,-2,1,-3
5087,-2,-1,-2,-2,-2,-4,2,-2
5102,-2,-1,0,0,-1,-2,2,-1
5102,1,1,0,1,0,0,1,-1
5103,-1,-3,-2,1,-1,-1,-1,1
5103,2,0,-2,-1,-1,1,-3,-2
5117,-3,-1,-2,-4,0,-2,-4,3
5117,-1,0,-2,-1,-1,-1,1,1
5124,-3,1,1,-1,1,0,1,1
5124,0,-1,1,2,1,-1,1,0
5140,-2,-1,0,0,-1,-1,-1,0
5140,0,0,-1,1,-2,0,-2,-2
5141,0,-1,-3,-2,-2,0,0,-1
5141,1,1,-2,-2,-1,-1,-5,-3
5163,-1,-1,0,-3,-2,-1,-2,-4
5163,2,0,1,-2,1,-1,-1,-1
5164,1,-2,-1,-1,0,-1,-3,-2
5164,-1,-3,0,0,-1,-2,-1,-1
5177,-3,-3,-2,2,1,-1,-1,-3
5177,-1,-2,-2,1,-3,-3,-6,1
5184,0,-1,1,0,-3,-2,-4,-3
5184,-1,0,-2,-1,-1,-3,1,-1
5200,2,-1,-1,0,-2,-2,0,-2
5200,6,0,0,-1,-1,1,1,1
5202,-1,2,-2,-1,-1,-1,-1,-1
5202,1,-1,-1,0,-2,-2,1,-1
5222,-2,-2,-1,-2,-2,0,6,-3
5222,-5,-3,-3,-2,-1,-1,3,-3
5224,-4,-1,0,0,-2,2,1,0
5224,-4,-1,0,0,-1,0,-4,0
5236,-1,0,0,-2,0,0,-2,1
5236,1,0,-1,-1,-1,-2,-4,-2
5243,3,0,0,0,-1,-1,-4,-1
5243,-3,1,-2,-1,-1,-1,-3,1
5260,1,-1,-2,1,-1,0,-1,0
5260,-2,-2,1,-2,-3,1,-1,-2
5262,-3,-4,0,0,-2,-1,3,0
5262,0,-1,-1,0,1,0,2,-2
5282,1,-1,0,-1,0,-3,-2,0
5282,0,0,-1,-1,-1,-1,-1,1
5297,2,1,-1,-1,-1,-2,-6,4
5297,-2,-1,0,-1,-3,0,-4,0
5299,-4,-1,-1,-1,-1,-3,-1,-2
5299,-3,-2,-1,-4,1,0,3,-5
5305,-2,0,-2,-2,0,-1,2,-3
5305,3,-2,-2,0,-1,1,2,1
5320,0,-1,-1,0,-3,-1,-1,-2
5320,-2,-2,-2,1,-2,0,-4,-1
5321,-1,-1,0,-2,2,0,-4,-3
5321,2,-1,1,-1,1,-1,-3,-2
5343,-1,0,0,-1,0,0,-1,0
5343,-1,-1,-1,0,-1,0,0,-2
5344,-4,-1,-2,0,-2,-3,3,1
5344,-3,0,0,-4,-1,0,1,-2
5356,-2,0,-1,-2,-2,-2,-1,-2
5356,1,-2,-3,-2,-1,-1,-3,2
5366,1,0,-1,-1,1,1,-4,2
5366,-8,-3,-2,0,-2,0,-4,0
5380,1,-1,-1,0,-1,-1,2,1
5380,-2,-1,-1,1,-2,-1,4,2
5381,-1,0,-1,-1,-1,-2,0,-4
5381,0,-1,-2,-2,-2,-2,-2,-4
5410,-1,-1,0,-1,-2,-3,0,-2
5410,-2,-3,0,-2,0,0,-2,-1
5411,-1,-1,0,0,-1,-2,0,-3
5411,-1,-2,-1,-1,0,-1,0,10
5425,-4,-2,-1,-1,0,1,-4,0
5425,2,0,0,-1,-1,-1,-1,-3
5427,-3,-1,-1,0,-1,1,-1,-5
5427,0,0,-1,-3,-3,-2,1,-4
5440,2,-1,-1,-3,-2,0,2,-3
5440,-3,-4,-2,1,-3,-2,0,3
5441,1,-4,-1,0,0,-1,-4,0
5441,1,0,0,2,0,1,-4,-2
5463,3,0,-2,-1,0,1,-3,1
5463,-2,0,-3,-1,0,-1,-4,-4
5464,3,0,-2,0,-1,-1,1,9
5464,1,1,-2,-1,0,-1,-3,-5
5477,-1,0,-3,0,-2,-1,-4,1
5477,-1,-1,0,-1,-1,0,-3,-8
5485,-3,0,0,-3,-1,-2,0,1
5485,0,-1,-1,0,-1,0,1,0
5500,-3,-2,-1,0,-1,-1,2,6
5500,-2,-2,-1,-1,0,0,-3,-6
5502,-3,-5,-1,-1,0,-3,-3,0
5502,2,-4,-1,-2,-2,-2,1,0
5522,-3,0,-2,0,0,-4,1,-3
5522,0,1,-2,-2,0,-4,2,4
5537,-4,-1,-1,-3,1,-1,-1,-6
5537,1,-1,-1,1,0,2,-2,0
5538,-2,-1,1,-2,-2,1,-5,-15
5538,0,1,-1,-1,-1,1,1,23
5545,-1,0,0,-1,-1,1,-2,-13
5545,-3,-3,-2,-3,-3,-1,0,29
5560,1,-2,0,0,1,2,1,-14
5560,1,-3,-1,2,-3,-1,-1,-1
5561,1,-3,-2,1,-2,1,-4,-8
5561,-8,-5,-5,-2,-2,-5,0,18
5582,1,2,0,-1,0,0,10,-15
5582,1,2,0,-3,0,-1,1,-8
5584,-5,-1,-2,-1,-6,-3,1,4
5584,-2,1,2,-1,-7,0,-4,-14
5597,-4,0,1,1,-6,-3,-8,14
5597,0,-1,0,-3,-1,-1,-2,-7
5605,3,-1,0,-3,3,1,-2,0
5605,-4,-3,-1,-2,4,-1,-1,-10
5619,1,-3,-2,-1,1,-1,0,3
5619,-1,-1,-1,-2,0,0,-5,-17
5626,1,0,-1,2,2,-1,1,8
5626,-2,-1,-1,0,5,2,-8,-10
5643,10,5,-1,-1,-1,1,-3,4
5643,-1,-1,0,-1,-1,-2,-2,10
5644,-6,0,-2,-2,0,1,9,-22
5644,0,1,0,-1,-1,-1,1,-12
5656,-9,-5,-2,-1,1,-1,1,16
5656,1,-1,0,-3,0,-2,-7,-11
5665,4,-1,1,-2,-4,1,-6,2
5665,0,-3,-3,0,0,0,6,13
5679,-7,-2,-2,-5,-1,0,-6,-9
5679,-2,-1,-2,-2,-4,-2,4,6
5685,-6,-1,-1,-2,0,-2,-1,5
5685,3,0,1,0,2,-1,0,-11
5710,2,-2,-1,0,-1,-2,1,-14
5710,-4,-2,-2,2,0,1,2,-2
5711,-1,-2,0,0,-3,-1,4,1
5711,4,0,-2,-2,-5,0,-3,7
5724,-1,-3,-1,-1,-3,0,-3,2
5724,-10,-3,-2,-1,-1,2,1,-7
5733,9,1,0,0,2,2,-6,14
5733,-4,-2,0,-1,-1,-1,0,2
5740,-5,-3,-1,-1,-2,-4,-10,-6
5740,1,1,0,-1,-1,-2,-4,0
5746,-8,-2,-1,-2,-3,-4,-3,3
5746,0,1,-2,0,0,-1,2,-10
5763,-2,0,-3,1,0,0,0,7
5763,-13,-3,-1,-2,-1,-5,0,0
5764,4,2,-1,-1,1,-1,4,1
5764,-3,-1,0,-4,-1,0,1,-5
5785,-3,-1,-1,0,-1,0,0,-7
5785,-2,-2,-2,-2,1,0,2,17
5787,-6,-2,-2,-3,-1,0,-2,-3
5787,-2,0,-1,-2,-1,-2,-3,-10
5800,-1,-1,-1,-2,-1,-1,-1,-6
5800,4,0,1,-2,1,-1,-1,3
5802,1,-2,1,0,0,-3,-5,14
5802,0,-1,0,2,-3,2,0,-31
5831,-7,-3,-1,0,-4,-2,4,0
5831,6,2,-1,2,0,0,0,31
5832,-6,-2,-2,1,-1,1,-1,-3
5832,-3,-1,-1,0,-2,-3,-5,5
5846,0,0,-1,-1,0,-1,0,-9
5846,-2,0,-2,-2,-2,-2,2,-12
5847,-9,-4,-4,-2,-2,-3,-3,-4
5847,0,0,0,-1,1,-3,-3,5
5860,4,2,-1,-1,2,-1,-2,-3
5860,0,-3,-1,0,-2,0,1,14
5874,5,0,1,-1,-3,3,1,-8
5874,-1,-1,1,-2,-3,-1,1,-2
5882,-7,-3,-2,-4,-2,-2,-1,8
5882,-5,-3,-3,0,-2,-2,-8,-13
5885,-2,-3,2,0,0,-3,-4,-6
5885,6,0,-2,-1,-1,-1,-1,8
5905,1,0,3,0,-1,2,0,8
5905,6,-2,-7,0,0,1,2,-9
5907,1,0,-1,0,-2,0,3,4
5907,-7,-1,-8,4,0,-2,1,7
5919,2,1,-4,-1,-2,-3,-3,-7
5919,4,1,2,-2,-2,0,-2,-17
5927,-1,-2,-12,-4,-1,-1,-6,5
5927,-4,-3,6,2,1,0,-2,-6
5942,-3,-2,0,-1,-2,-1,0,0
5942,3,0,0,1,-1,-1,-2,-3
5944,1,-1,-1,-3,-2,-4,1,20
5944,5,2,-2,-3,1,-1,0,-9
5965,5,0,-10,-3,0,-3,1,-5
5965,3,2,31,1,0,-1,0,4
5966,-4,-1,-2,3,0,1,3,10
5966,2,1,-4,-5,-1,1,2,2
5979,2,0,5,-1,-3,0,-1,1
5979,-11,-4,-16,-1,-2,-1,-4,-17
5988,0,2,2,1,-1,-2,-5,-20
5988,4,0,4,-1,0,1,-4,-6
6010,6,1,1,0,1,3,0,33
6010,-8,-1,-5,-1,-2,-1,-1,-2
6012,-5,-6,-15,-4,-3,-3,-3,-15
6012,0,-3,7,-4,-2,-1,1,-8
6025,-4,-5,-9,0,1,0,-3,-2
6025,4,-2,-3,-2,1,1,1,1
6026,0,-1,-15,-2,1,-1,2,-1
6026,3,0,7,-1,0,-1,3,16
6047,-9,-7,-1,-3,-2,0,-2,-18
6047,-5,1,7,2,-2,1,1,1
6050,11,5,-5,1,2,1,-2,-14
6050,-2,0,-14,-4,-3,-3,-4,-9
6063,-2,0,6,3,0,-1,-2,-2
6063,4,9,22,0,-1,-2,-6,-4
6064,-4,3,21,-4,-4,-2,0,4
6064,3,4,2,3,0,1,-5,9
6085,4,1,3,-3,-3,0,-1,0
6085,-3,-2,-6,-4,-2,-2,1,-5
6086,5,7,36,2,-2,1,4,-13
6086,-1,-13,-4,0,-1,-1,3,-5
6099,-19,-8,-12,0,-2,-3,-6,-7
6099,9,1,-14,-1,5,-1,-5,-17
6107,4,-1,-20,12,0,0,6,26
6107,2,6,1,7,3,2,2,3
6130,11,10,15,10,10,5,12,18
6130,-11,-5,-6,-25,-23,-3,0,-6
6132,8,-9,-30,-10,3,1,1,1
6132,-2,-2,1,-7,-8,-5,-2,13
6152,-2,-11,-6,4,-1,-1,-8,-20
6152,-3,-13,-10,-1,2,-1,-10,-49
6154,-8,-2,21,-1,-4,0,1,19
6154,-10,6,1,3,5,1,-3,1
6158,-3,9,9,-4,-1,-2,-10,-11
6158,12,-1,-12,5,3,-1,6,26
6175,-13,-5,-1,-5,-2,-4,-9,-51
6175,10,-5,-10,-2,0,2,13,57
6182,-12,-5,0,-7,-5,-7,-3,-9
6182,7,3,-9,5,5,2,11,69
6196,15,5,24,3,-3,-1,-6,-11
6196,-2,4,21,-1,-2,-1,-1,-34
6213,12,-1,-7,-3,-4,0,6,61
6213,10,1,3,3,0,0,-4,2
6214,-3,1,-1,3,3,3,0,-13
6214,-17,-11,-13,-6,-5,-7,-12,-21
6219,-11,-6,-23,7,-5,-8,-8,7
6219,-12,3,22,-6,2,5,-5,-22
6228,15,3,-5,-2,-1,3,2,14
6228,2,-1,-13,-4,-3,1,3,-19
6242,-12,-6,-14,-5,-1,-3,-1,-15
6242,32,2,-12,1,-1,-1,8,13
6245,-5,3,29,2,0,1,4,-7
6245,-10,-1,21,2,2,0,-3,-15
6265,23,17,-6,-8,-1,1,0,-20
6265,-18,-1,8,4,-1,-3,-5,7
6266,-22,-3,-29,-17,0,-3,-6,-35
6266,-24,-18,-9,3,0,1,0,-13
6279,29,1,10,3,10,1,14,61
6279,31,9,-14,3,-11,-1,13,-22
6288,3,-5,-30,4,18,-2,-1,30
6288,-2,-19,-10,12,-21,-4,-17,-14
6303,-24,7,-33,36,19,-8,-17,-56
6303,15,-2,-11,-89,-45,-4,13,36
6305,-10,-4,-10,-7,7,-2,-2,16
6305,-13,3,4,-2,8,-4,-9,-47
6333,0,-3,9,6,11,5,1,6
6333,-23,5,6,36,16,-6,-17,-10
6334,-31,-8,31,14,-10,5,-5,-81
6334,11,-5,-23,-5,-6,-16,14,100
6338,20,-7,11,-21,-22,-2,-2,-8
6338,10,-16,1,16,9,7,5,5
6355,-19,24,9,-6,-14,-1,-28,-78
6355,-16,8,-8,14,19,9,7,-14
6363,5,10,19,-15,-4,7,10,5
6363,-35,-3,17,-15,-24,1,-7,3
6368,24,-3,-3,-22,-10,-13,7,16
6368,-4,14,-13,17,0,-4,0,19
6385,-19,-28,25,23,14,2,7,-8
6385,-10,-21,-15,-21,-3,-2,6,-19
6387,-11,-32,-13,21,2,6,-17,-4
6387,44,28,31,74,13,27,14,30
6408,-40,-40,-44,-67,-13,-32,-12,-34
6408,9,-10,-20,64,37,3,-3,47
6409,11,16,-81,-95,-15,3,13,43
6409,16,56,-6,1,-28,-16,-9,-22
6422,-15,-22,5,-46,-23,14,-5,-2
6422,-33,-34,-35,-6,1,-10,-20,-69
6429,31,6,16,53,15,-2,6,90
6429,0,-13,12,-50,-2,3,-13,-105
6452,19,78,62,26,-3,5,11,-29
6452,-16,18,16,-7,1,-12,14,40
6454,-21,0,13,85,19,10,-1,-41
6454,6,-16,-36,-84,-20,-13,-3,79
6467,35,17,23,13,2,-2,-1,10
6467,16,29,59,18,-2,1,5,-7
6474,11,-10,75,5,4,9,13,0
6474,-26,-18,-8,42,-16,-9,-12,-34
6491,-13,-35,-9,-3,-6,-9,-16,0
6491,14,20,-18,1,9,13,-2,44
6496,-1,12,27,6,0,-9,-2,17
6496,3,-32,-1,6,19,11,4,-57
6513,14,-17,-26,-5,-3,11,25,85
6513,-16,8,14,19,-4,-9,-21,-111
6514,-29,-18,-12,-4,-7,-9,-2,6
6514,45,23,12,-2,-7,-6,1,14
6518,-4,-4,-18,10,-3,0,2,-30
6518,-1,-19,-28,-36,2,1,13,69
6535,-7,-2,-1,-25,1,-4,-13,-46
6535,-18,2,49,48,5,-2,-10,22
6542,22,27,-8,-33,1,1,15,65
6542,-4,-10,-5,-29,1,-3,-11,67
6556,11,-15,-33,-14,-8,10,-3,59
6556,2,0,9,-23,-18,-6,-5,-25
6565,-8,4,7,9,-1,-5,-10,70
6565,10,-2,-5,19,16,31,10,-76
6566,29,8,-5,8,-12,-41,11,43
6566,-24,5,52,57,38,11,-24,-97
6579,-8,-17,-38,-54,-56,3,-4,-62
6579,-7,9,-3,0,-7,-32,-7,-10
6587,-5,-2,17,17,4,11,5,30
6587,-1,-11,-46,-43,-3,3,10,54
6602,3,5,15,-23,18,3,-10,-67
6602,1,0,5,43,7,4,2,-3
6609,16,3,-5,-13,-15,1,9,-40
6609,-31,-22,-15,-24,7,0,-13,38
6625,-13,1,16,37,14,9,-2,-52
6625,3,5,-20,1,4,-6,13,20
6627,16,14,17,-15,-8,-4,4,16
6627,3,-1,-28,-28,-17,-3,-17,-10
6648,-5,-5,-7,11,8,-5,-9,18
6648,-10,-7,22,10,-25,-2,-8,-30
6649,-10,-1,-80,-80,2,2,8,-8
6649,8,4,13,2,7,1,6,19
6687,4,1,-6,33,11,1,-10,-13
6687,0,-3,-4,21,9,-2,-14,-46
6688,7,0,32,13,-6,2,-7,5
6688,16,-7,-9,-34,-12,1,24,21
6688,6,9,37,82,21,-12,-11,-4
6688,-3,-9,-14,15,13,-4,-5,1
6708,-19,-12,-44,-88,-24,5,-1,-11
6708,15,1,4,-17,-6,-8,7,12
6709,-6,-5,12,89,-1,1,4,-4
6709,-12,-1,15,28,16,36,-6,-22
6711,11,3,-16,6,6,-26,3,-2
6711,-2,5,21,6,29,5,5,43
6730,-32,-15,-13,-44,-57,-16,-18,-44
6730,46,5,-78,-99,-1,45,38,99
6731,-42,-27,34,65,29,-20,-6,-106
6731,29,9,-25,-14,-48,-26,-2,59
6752,23,5,-2,-26,40,1,1,39
6752,-40,7,-14,-116,-69,-43,-34,-95
6754,27,9,-29,0,23,59,21,127
6754,-13,7,-22,0,63,13,13,-39
6775,-18,23,54,33,-37,73,22,-10
6775,15,-4,16,-28,39,-95,27,90
6776,-19,-3,-4,-27,-72,34,-9,-120
6776,-31,-13,30,65,43,-36,-31,-50
6782,24,5,-16,-67,-21,-58,-40,62
6782,-3,10,13,6,-21,31,-2,-19
6789,-18,-26,31,91,52,-28,-22,6
6789,26,11,92,68,98,127,100,110
6805,25,-7,-97,-115,-80,-30,20,-22
6805,-16,-16,-30,46,-28,3,-52,-64
6806,31,22,8,48,84,-70,-35,41
6806,-31,9,13,-27,-46,64,4,-28
6843,-19,-12,-1,70,65,-63,-10,-69
6843,-17,1,56,71,-44,-19,-5,-55
6844,20,-14,-59,-79,-116,34,17,37
6844,-19,-10,-21,20,14,-110,-41,-48
6846,-9,3,55,85,41,73,27,-14
6846,-5,-4,-25,14,48,45,13,5
6856,-29,5,70,81,48,38,24,-16
6856,35,3,-96,-128,-128,-119,-79,-5
6865,-71,-20,-17,55,51,15,-2,-17
6865,41,-7,45,117,56,71,74,77
6866,-10,7,33,-50,11,-48,6,-84
6866,3,0,-9,51,-55,-46,-7,-24
6887,33,6,11,2,-25,-49,-45,75
6887,-36,-3,49,73,83,19,-30,-41
6889,8,9,-36,-31,62,71,39,-27
6889,-34,-21,-44,-56,-20,28,16,-77
6901,-6,-33,-36,-35,-107,1,-10,-75
6901,23,18,6,-51,-10,-112,-46,31
6918,-21,-16,4,65,-70,-58,-19,-52
6918,-3,10,17,-20,103,74,-44,78
6925,62,20,25,55,125,-27,114,63
6925,-7,-12,15,25,-128,-36,16,-45
6927,-30,-18,-56,-26,-49,-128,-96,-28
6927,-33,-19,-18,37,44,90,35,22
6947,11,19,33,51,118,105,23,33
6947,2,9,7,60,127,114,51,-7
6949,11,24,35,42,-54,101,70,42
6949,14,-15,-31,26,-126,-107,-28,7
6962,-42,-22,-29,10,-77,-42,-52,-32
6962,-30,-13,24,6,-60,-128,-90,-36
6971,2,20,-46,-35,48,56,-4,-4
6971,-1,-16,10,-47,16,86,19,-40
6986,-10,2,0,-5,37,-37,51,66
6986,31,10,-8,-48,6,52,-3,-7
6987,8,7,22,24,-7,8,-13,-32
6987,23,12,18,56,32,43,115,83
7007,14,8,-4,2,54,-87,-87,-57
7007,-24,-17,-38,-103,-105,5,23,5
7009,25,5,19,-24,-14,-36,-34,34
7009,-2,-1,15,59,61,-28,0,-55
7030,-20,-13,-13,-88,-74,38,-24,3
7030,38,24,-17,13,81,26,20,12
7036,14,-3,14,7,36,75,53,19
7036,-7,2,17,60,-59,-29,-11,7
7052,-4,-11,-16,-32,-41,-66,-54,-18
7052,-20,-12,-15,-33,15,-71,-6,9
7054,-5,-5,19,13,18,24,4,41
7054,18,13,2,-14,38,43,-13,-23
7068,4,13,-11,-22,21,61,70,-9
7068,-26,-9,-34,-44,-81,-39,-42,-75
7075,8,2,2,24,40,-13,-25,70
7075,-5,-23,-24,-68,66,24,27,45
7081,12,3,-35,11,-29,19,26,-27
7081,-8,-8,-17,-84,-81,19,-29,23
7096,10,1,0,8,1,-20,-11,-6
7096,-12,5,14,49,4,-95,11,-97
7105,3,2,-2,-89,-32,46,5,15
7105,4,-4,5,27,50,7,4,20
7106,-18,-6,-2,-3,-3,-33,-25,59
7106,11,7,2,7,23,-12,-29,38
7128,-2,5,35,62,-24,30,25,27
7128,-7,4,30,65,24,9,-3,-69
7129,-3,-4,-15,-21,11,61,15,5
7129,1,6,9,23,42,-3,15,-49
7141,-13,-12,-15,-41,-52,-82,-58,-7
7141,17,-11,-2,11,0,-27,-4,21
7150,-1,0,-1,-56,-12,24,8,-63
7150,-11,-6,-7,69,105,37,-10,32
7164,-3,3,-7,-80,-76,-33,24,-6
7164,-19,6,6,49,7,-7,-22,-18
7164,6,-8,-12,-21,-4,-1,27,13
7164,10,9,6,-7,4,77,9,22
7187,-2,-5,7,23,34,-21,-11,5
7187,4,-2,-12,-47,-51,-56,-4,41
7188,-14,-4,-4,55,43,-35,-10,-53
7188,9,-3,0,-32,-103,34,-17,-3
7226,-1,3,-5,12,40,52,19,-5
7226,-1,3,0,24,44,8,23,-2
7227,2,-7,10,-9,-76,-11,-15,-12
7227,-14,7,1,-38,-41,-87,-43,-86
7229,1,-6,-3,16,25,9,11,80
7229,16,1,-6,-9,-4,-2,1,40
7232,-7,-3,0,14,46,-4,1,-46
7232,-12,-1,3,-7,-14,63,11,3
7247,23,10,-6,-14,57,51,25,20
7247,9,5,-14,-33,0,3,49,-1
7248,-1,-7,-7,-76,-96,-95,-58,18
7248,-16,-15,-5,4,-60,-78,-48,-27
7269,-20,3,32,72,60,32,-15,-32
7269,-6,0,-11,10,52,88,26,23
7270,-11,4,-1,1,20,20,19,-29
7270,27,5,-8,-18,-25,-19,10,30
7284,-1,-6,-9,-13,-11,-38,1,9
7284,-13,-5,2,-6,30,49,-6,-22
7285,20,5,-10,-2,-2,29,23,-37
7285,19,-1,-6,-2,1,-74,-19,72
7315,2,-2,1,-55,-64,0,-17,-33
7315,-4,-3,-1,15,18,32,3,2
7315,-8,2,9,18,19,-18,9,-2
7315,-7,-3,-1,10,-3,-1,7,-7
7329,-4,-5,-8,-5,-19,-7,-38,-26
7329,5,1,-9,-18,-2,2,18,27
7330,-4,-2,-4,-8,1,-10,8,-3
7330,-3,-1,5,25,21,80,21,-7
7354,-1,5,9,32,37,-70,-1,-8
7354,-11,-4,3,-9,-25,-5,-22,-19
7356,-1,2,3,32,-12,-40,-22,22
7356,-6,0,-3,-13,-8,13,15,-4
7360,-4,6,16,44,41,60,3,-51
7360,20,-4,-18,-38,-26,-10,12,88
7360,-6,-5,-1,2,2,-3,15,-18
7360,-8,-8,-6,-13,-29,-37,-40,-30
7382,3,2,0,12,9,-14,-2,-17
7382,12,7,19,42,25,19,18,-41
7382,14,-2,-7,-4,-19,6,1,43
7382,-10,-5,-5,-7,7,15,4,-13
7398,-4,-3,-2,10,19,-20,10,2
7398,-4,1,8,4,1,12,-17,-25
7403,2,1,-7,-3,14,10,-4,62
7403,4,7,7,-11,9,16,23,-20
7419,-6,-5,-6,8,-16,32,6,5
7419,-4,-5,0,-30,-24,-64,-13,-9
7420,-9,-14,-23,-24,-39,-12,-4,-23
7420,0,-3,0,-13,-15,-45,-29,56
7449,4,3,-5,-12,2,51,3,9
7449,3,2,5,12,20,-23,1,-19
7458,-1,2,6,16,24,34,9,-11
7458,-6,0,-3,-11,-16,-11,1,-8
7459,-5,-7,-9,-16,-30,-13,-10,2
7459,-2,0,6,25,20,16,-6,-3
7463,-1,-3,2,13,1,-9,-9,6
7463,2,3,3,14,12,-26,-2,5
7480,2,3,18,31,11,7,1,0
7480,8,4,-3,-41,-47,8,-2,6
7480,-11,-5,-4,-7,3,21,-12,0
7480,-1,-2,-6,-7,20,14,24,-10
7502,-3,-5,0,-1,0,-45,-28,-27
7502,-20,-8,3,46,8,6,-7,18
7518,-5,5,4,-15,-24,-39,1,-3
7518,26,5,5,5,-1,56,13,34
7519,-1,1,-7,13,41,-18,-1,-6
7519,6,6,-1,-31,-20,37,-7,4
7532,-4,0,4,13,42,45,24,-25
7532,-5,-10,-12,5,-43,-41,5,3
7539,-4,-5,-8,-31,-55,-91,-69,12
7539,-5,-3,-3,3,-8,-2,0,-2
7540,-3,4,15,15,36,24,-2,-37
7540,7,6,-15,-18,43,52,31,7
7561,6,3,-3,-14,-16,18,30,9
7561,-1,-1,3,13,23,31,2,-10
7562,10,6,2,9,-8,-51,-6,-3
7562,-16,-9,0,-16,-32,-49,-40,-64
7586,-2,-4,-9,-27,-30,5,-3,23
7586,-1,1,-3,1,18,15,3,0
7586,2,0,5,22,42,52,13,5
7586,8,8,16,50,20,-13,3,7
7601,10,3,0,-18,-8,33,29,-11
7601,-4,-6,-7,-27,-43,-64,-3,-13
7602,-4,-5,-2,5,-12,34,-20,16
7602,-18,-7,2,8,36,-72,-24,-18
7623,10,1,-1,-7,-30,25,1,-8
7623,4,-1,-1,14,-11,-24,-3,8
7624,-1,-2,1,2,17,36,12,-5
7624,-7,-2,9,42,77,25,-8,-16
7638,0,1,-10,-54,-54,30,19,0
7638,-7,-8,-13,-22,-47,-19,3,-6
7652,6,1,-7,-11,-29,-103,-40,29
7652,-1,0,4,19,38,80,5,-31
7658,4,-2,3,7,7,-69,-5,15
7658,6,0,5,8,-5,12,5,-10
7675,-15,-5,-5,-12,-23,-15,-6,-20
7675,5,2,3,-14,2,31,12,3
7688,-2,2,2,1,22,42,13,-8
7688,-8,-6,-7,-5,27,-14,-11,-10
7690,5,0,4,21,2,-10,9,26
7690,2,4,0,-5,-43,-19,-1,-10
7697,-10,-2,-1,19,21,12,-10,-29
7697,6,2,2,-3,15,-21,7,14
7703,-3,-4,-2,-4,-26,18,-6,-4
7703,-1,1,-3,-21,-3,5,16,8
7719,-5,-2,-1,0,3,47,13,0
7719,-4,-1,4,27,14,-67,-17,2
7734,4,-3,0,-16,-2,16,-5,2
7734,-4,-6,-13,-29,-30,-38,-20,-2
7751,-3,-4,-5,5,-16,-24,-7,9
7751,-4,0,-1,-4,10,31,6,-5
7751,6,1,2,23,34,55,21,14
7751,-6,-3,-4,-7,7,-18,7,-40
7767,15,5,9,16,-14,-16,11,66
7767,-2,-3,3,-13,-33,-28,-26,-16
7772,-2,-6,-13,-7,2,32,4,-19
7772,-1,-2,-4,-14,-2,-26,-10,0
7804,-4,-1,4,13,26,11,13,-20
7804,-1,2,4,7,14,36,7,-5
7805,4,4,-1,-31,-22,-14,3,15
7805,-5,-2,-2,-4,4,-2,6,7
7806,-2,0,0,-3,-1,-37,-15,-15
7806,5,2,0,9,-24,-11,-2,6
7808,-11,-3,-4,-17,9,10,-14,-20
7808,2,-2,-1,11,7,-10,5,9
7817,-1,-2,-6,-12,9,22,3,9
7817,-4,-1,-5,-5,0,75,13,2
7824,3,4,0,-6,-12,-82,4,1
7824,-2,1,3,1,-33,12,-8,2
7840,-8,-5,-2,12,25,-1,-15,-12
7840,7,2,0,-4,39,22,15,8
7846,1,1,4,18,-6,-25,11,-6
7846,-2,-4,-7,-35,-56,-15,-19,2
7862,-12,-5,-2,-7,-14,-29,-17,-21
7862,-1,0,0,-3,8,34,0,5
7863,5,3,10,44,59,16,15,9
7863,3,4,4,-4,23,110,29,6
7886,14,5,-2,-20,-18,-73,3,1
7886,2,-4,-3,-14,-43,-59,-24,4
7887,-9,-6,-9,-17,-21,-16,-12,-3
7887,4,1,2,11,-11,-28,15,4
7898,-3,-2,1,6,8,23,-18,-9
7898,-1,1,2,5,37,12,8,-7
7906,11,1,8,13,24,59,14,8
7906,-3,-2,0,-6,-1,22,-5,1
7922,-3,-2,0,0,-10,-23,4,-6
7922,-1,0,0,10,-22,-72,-29,-10
7923,-13,-3,-4,-9,3,42,3,-7
7923,6,4,-2,-15,-25,-46,4,5
7937,0,-2,-1,9,1,33,-12,0
7937,0,-3,0,13,15,-20,2,-5
7952,0,-3,1,-1,18,10,-3,-2
7952,-7,-7,-7,-7,-15,19,18,4
7959,-4,-1,1,13,-4,14,-2,-5
7959,-3,-3,-5,-11,-4,33,-2,-2
7967,2,2,1,-3,25,13,-2,-1
7967,-4,1,6,20,-3,-94,-12,-6
7982,0,-3,0,12,4,-1,-6,-2
7982,-12,-8,-8,-12,-9,22,-2,-13
7983,5,4,0,0,-16,-4,12,12
7983,-3,-5,-8,-40,-16,20,-17,-6
8006,-8,-7,-8,3,17,5,-1,2
8006,-3,-1,1,4,-6,-27,-1,-18
8007,-7,-2,1,15,16,18,-11,-12
8007,5,0,-5,-25,-39,-29,4,6
8027,0,1,0,2,5,-2,6,1
8027,6,0,1,-1,32,104,13,10
8028,0,-1,-3,-6,-14,-101,-1,-4
8028,-3,1,2,3,30,30,-9,-3
8041,-3,-6,-3,-16,-41,60,3,-1
8041,-4,-2,-4,-6,-25,-107,-13,-5
8049,-1,-1,-3,12,-10,-2,-19,-11
8049,-9,-8,-6,-22,-6,-26,-20,0
8057,2,2,2,10,18,47,16,6
8057,1,3,2,-5,11,18,19,5
8072,-1,-6,-4,17,-7,-19,-1,2
8072,-3,-3,-3,-1,-14,-4,-14,-5
8078,0,4,6,9,31,24,12,4
8078,0,1,4,20,2,43,5,13
8095,5,3,1,-9,-6,-59,1,5
8095,-8,-4,-4,1,-27,13,-8,-22
8102,-3,-2,0,1,33,-22,-9,7
8102,6,7,0,-22,14,80,27,10
8103,6,0,0,-4,-46,-53,14,10
8103,5,-2,1,33,-12,-36,-55,-8
8118,-14,-9,-12,-50,-35,-14,-12,-15
8118,3,1,5,16,30,31,15,8
8124,1,0,2,-11,35,34,9,2
8124,2,0,1,5,7,-2,2,6
8140,-5,-3,-4,-6,-47,-65,-15,-10
8140,-6,-3,0,9,11,-12,-10,1
8146,-2,1,3,-9,1,29,7,-4
8146,2,6,8,35,51,41,25,7
8162,5,-2,0,6,16,9,4,3
8162,9,2,-1,-7,-27,-19,0,4
8162,-9,-5,-5,13,-28,-28,-18,-10
8162,2,-4,-6,-43,-24,-21,5,13
8185,-4,-1,4,18,45,46,-2,-8
8185,8,1,2,-15,-4,26,11,4
8186,-7,-5,-5,-7,-40,-103,-40,-10
8186,0,2,5,20,11,22,13,-5
8199,-6,0,-2,-7,-10,13,6,-6
8199,8,5,5,26,42,11,1,14
8206,1,0,-3,-21,-3,31,8,0
8206,-1,-4,-3,1,-4,33,17,4
8223,2,-3,-7,-17,-26,-105,-28,-2
8223,-9,-5,-6,14,11,-23,-17,-12
8228,-3,2,3,20,54,88,8,5
8228,0,3,0,-37,-16,-6,15,10
8244,1,4,6,-7,-16,30,22,-4
8244,-4,-4,-3,-11,-47,-97,-27,-10
8252,-18,-12,-5,7,7,28,-8,-17
8252,5,2,5,20,2,-24,-4,4
8266,5,1,1,17,21,16,-8,12
8266,-11,-3,-2,28,41,-6,5,-15
8267,11,1,-15,-95,-101,60,17,16
8267,-6,-2,0,17,22,-68,-35,-15
8289,-4,-6,-6,-2,-1,25,8,-2
8289,6,-1,2,12,18,59,11,9
8290,1,2,3,30,36,-36,0,-5
8290,-1,0,-2,-14,-23,25,-2,-4
8329,-3,1,-7,-17,-20,-69,-21,-2
8329,-1,0,0,-9,13,43,0,-3
8331,7,2,-1,2,-8,23,15,8
8331,-7,-3,8,6,-26,-36,2,1
8351,8,2,1,24,54,37,9,6
8351,-7,-2,-4,-32,-82,-71,-16,-15
8351,-6,-9,-7,-14,-13,-28,-19,1
8351,-4,0,0,12,35,0,-12,-4
8353,-5,2,10,44,51,103,27,3
8353,11,5,-1,-8,44,2,38,15
8357,-5,-2,-4,-19,-83,-91,-34,-12
8357,-14,-11,-15,-23,-47,-7,-22,-22
8373,0,-5,-1,5,32,-4,-4,1
8373,-6,-5,-3,1,-2,34,-9,4
8373,2,5,10,17,88,92,28,3
8373,8,2,-6,-1,-6,-56,30,6
8395,1,2,-1,-3,-52,-59,-38,-7
8395,-4,-7,-8,-26,-64,-48,-29,2
8396,-7,-2,1,16,10,2,6,-1
8396,6,3,0,17,23,51,-3,4
8409,1,1,4,-6,16,12,25,-6
8409,7,2,2,2,-20,-27,-1,3
8410,-13,-6,-2,26,42,4,6,-6
8410,13,8,8,2,10,68,21,15
8431,-6,-8,-11,-43,-54,-72,-15,-4
8431,-5,0,3,16,28,16,3,-21
8440,3,0,0,-31,-10,-27,-12,-2
8440,2,-1,1,-8,-34,-27,-11,-3
8454,-12,-15,-25,-23,-18,33,-9,-5
8454,-11,-2,0,-11,8,-3,-15,-6
8461,4,1,2,15,14,23,24,6
8461,2,3,3,20,39,34,11,7
8478,12,5,10,12,6,-44,0,3
8478,-10,-2,4,3,3,65,-2,-7
8486,16,8,3,-1,4,-56,7,18
8486,-4,-5,-2,9,19,70,16,-3
8487,-13,-9,-15,-54,-77,-88,-41,-15
8487,-3,-5,-7,2,-31,-20,-12,1
8492,-3,2,7,17,20,38,-17,-3
8492,4,3,5,40,83,116,27,21
8507,1,3,-1,-12,3,-17,48,-7
8507,-2,-6,-7,-24,-57,-62,-17,-7
8507,-12,-11,-10,-9,-35,-13,-43,-17
8507,-6,-4,-4,-6,23,-73,-6,0
8530,5,11,15,35,36,87,18,11
8530,3,2,-4,-11,-12,-40,-6,0
8531,2,1,1,1,20,-1,0,1
8531,-8,-3,1,17,-6,7,-8,-16
8544,11,-1,-4,-44,-63,-32,10,18
8544,-8,-6,-5,-5,-5,4,-8,-8
8568,-7,-6,-7,-8,0,-2,-2,-12
8568,3,-2,-2,10,13,-21,-14,7
8570,3,4,6,7,20,58,12,-2
8570,7,1,-1,-4,42,4,17,9
8571,-4,2,5,7,-36,-29,-11,-10
8571,-2,0,-1,-3,-17,-25,-24,-9
8590,-3,-3,-3,6,-19,-23,0,-3
8590,6,1,2,27,43,65,14,12
8590,7,4,3,-15,22,-24,11,4
8590,-6,-8,-9,-27,-61,-40,4,-10
8612,-6,-3,6,34,21,1,-38,-12
8612,-6,-5,-12,-37,-33,24,11,-1
8613,11,1,2,8,4,34,24,25
8613,4,4,-1,-23,-17,-24,-4,4
8635,-11,-3,1,21,21,-10,-13,-15
8635,-1,1,3,31,21,9,-23,-8
8636,5,0,-4,-17,-4,4,8,2
8636,-3,1,-3,-23,-23,-8,13,-1
8649,-2,-5,0,21,7,10,-2,-1
8649,0,2,2,-15,2,-33,1,-12
8651,4,-1,-2,23,7,44,4,5
8651,-3,-4,-9,-32,-13,-20,-19,-6
8672,6,6,4,5,36,76,27,9
8672,1,4,6,4,37,-90,-5,6
8674,-5,-5,-10,-40,-90,-7,-4,-14
8674,-12,-9,-9,-11,-40,-71,-39,-11
8695,-4,0,4,6,10,-11,-6,-1
8695,-5,-6,3,22,43,88,27,9
8695,4,8,4,15,26,18,11,2
8695,5,2,4,3,-8,-5,-10,-2
8718,-5,-7,-8,-3,-8,41,2,-2
8718,2,3,6,1,32,-12,15,5
8718,-3,-3,-4,-22,-37,-47,-13,-8
8718,0,-5,-5,-2,-29,-19,-19,-3
8740,-5,-3,-4,1,18,8,-3,-8
8740,0,3,4,24,-9,17,-4,2
8741,-5,-1,0,-26,12,-7,7,-8
8741,-6,-5,-7,-4,-24,19,14,-6
8755,10,2,7,39,8,-50,-25,15
8755,-1,-3,-5,-2,-28,1,10,9
8756,5,-1,-3,-5,-1,21,-9,2
8756,-2,-2,1,6,47,45,18,-2
8785,6,5,3,1,31,24,8,3
8785,4,-1,-4,-24,-36,-18,9,2
8786,-8,-4,-5,6,-19,-40,-25,-11
8786,-5,-4,-5,-9,-23,9,-19,-8
8809,-8,-2,0,-4,19,-39,3,-8
8809,9,5,4,-1,-2,48,17,2
8810,-9,-8,-3,14,14,-22,-24,-8
8810,-6,-2,-5,-14,11,-30,6,2
8811,13,5,-1,14,-21,-10,-1,2
8811,-7,-5,-9,-26,-19,78,-1,-8
8821,-2,2,2,16,20,-63,0,-2
8821,-1,-2,-6,-43,-47,-9,-7,-3
8844,0,-2,-2,-8,0,-19,-5,1
8844,-4,-6,1,27,8,-11,-7,-1
8846,-7,-3,0,-5,-7,38,1,-9
8846,8,4,10,38,69,32,21,15
8852,-2,-2,-3,-36,-48,0,14,-2
8852,3,0,-2,1,-9,-35,-28,-4
8852,-5,-4,-1,-3,-16,14,-11,-10
8852,18,8,9,26,37,-49,11,13
8867,1,-5,-6,-9,-13,39,20,14
8867,-11,-2,-4,-14,13,37,-10,-12
8867,-3,2,6,20,20,3,6,1
8867,-6,4,5,10,-5,-9,11,-6
8889,17,12,7,13,-16,-56,-17,16
8889,-9,-7,-8,-19,-48,-51,-36,-8
8890,-2,0,1,11,46,68,19,3
8890,8,6,7,29,73,110,26,13
8929,-24,-9,-10,-48,-37,-54,-13,-30
8929,5,-2,-8,-21,-64,-71,-8,-2
8930,5,-5,-9,-10,-6,12,4,12
8930,-12,-7,-4,3,3,-22,-37,-12
8931,-4,-2,0,-5,50,54,12,0
8931,6,2,6,26,37,18,23,9
8934,8,3,-2,-2,-17,24,3,2
8934,-7,-3,-3,-16,-45,-91,-18,-9
8950,-3,2,3,45,36,56,-2,0
8950,3,0,-5,-47,-9,14,11,-1
8950,1,-1,-4,-22,-36,-45,5,8
8950,-3,-1,3,3,2,57,5,-2
8974,-2,0,1,-2,0,-35,-7,-8
8974,-1,0,1,15,24,0,-8,2
8974,-4,-2,3,40,65,13,-4,-7
8974,8,3,-1,-14,-51,20,9,-6
8995,-16,-15,-14,-26,-80,-104,-37,-3
8995,5,2,2,13,45,22,4,7
8995,-1,3,0,-9,18,24,2,-10
8995,-4,-6,-6,4,-3,-10,3,-4
9017,6,1,2,11,29,93,13,6
9017,0,3,2,-15,-37,-105,-5,-3
9019,-2,-8,-3,1,-15,-12,-21,7
9019,0,1,3,-1,34,63,26,0
9033,7,4,5,4,45,9,21,8
9033,-2,0,3,17,-26,-36,-4,-3
9033,-6,-3,-4,-20,-59,-74,-39,-12
9033,-3,-1,-5,-7,9,12,9,6
9047,-2,0,1,1,0,-35,-8,-4
9047,1,-2,4,29,32,48,11,-2
9048,7,5,1,-11,-6,23,28,15
9048,1,-3,-3,-3,-2,3,1,-6
9070,-2,-4,-2,17,-13,-26,-33,-10
9070,1,-2,-6,-19,15,38,-5,4
9070,1,5,5,4,-17,-50,7,-2
9070,-7,-2,-2,-14,-12,-12,2,3
9109,-2,-3,-4,-4,19,91,19,0
9109,-4,0,-1,18,-23,-127,-13,-9
9109,-3,-9,-7,-8,-22,47,-6,1
9109,-5,-1,-1,2,8,12,-23,-6
9112,3,3,-1,-1,6,-14,19,13
9112,-8,-3,0,12,24,62,9,-8
9130,2,3,2,-12,11,2,12,3
9130,-3,-4,-2,7,19,-35,-11,-6
9131,8,5,0,-16,4,50,12,1
9131,2,-4,-11,-52,-64,-39,-14,6
9133,-2,1,3,30,29,-44,-2,-7
9133,-1,-3,-4,-22,-11,92,-1,-1
9152,-2,-2,-4,-11,-10,-111,-11,-4
9152,-1,-3,1,32,23,43,8,6
9154,-6,-3,-5,-24,-27,5,-18,-9
9154,0,0,-3,-4,17,20,14,2
9166,3,2,1,-6,2,31,25,4
9166,-9,-4,-3,-5,-7,-15,-9,-15
9182,1,-1,0,-4,-5,-6,4,2
9182,-2,0,3,11,-1,-39,-19,0
9206,2,1,4,20,24,21,-5,3
9206,-5,-5,-3,-7,10,-30,1,-10
9206,6,-1,-1,-17,-34,-22,-9,4
9206,19,4,3,35,24,55,33,14
9212,-8,-1,-5,-39,-41,-93,-20,-19
9212,-9,-3,-6,-15,-45,-28,-31,-8
9213,-2,-4,-4,4,30,60,5,12
9213,-3,3,4,7,8,-36,10,-10
9226,6,1,4,24,10,47,-4,9
9226,4,4,2,-1,2,10,9,-3
9233,-3,-1,0,15,16,10,7,-1
9233,3,2,4,34,36,24,-2,6
9249,-4,-6,-6,-48,-52,-1,1,-6
9249,-13,-6,-3,-6,-10,-4,-5,-12
9249,24,10,7,19,18,-29,-3,20
9249,-7,-4,-4,-13,-14,-14,-4,-7
9273,-4,-2,-6,-13,-8,26,1,-3
9273,1,2,6,20,43,23,11,6
9273,3,1,-4,-20,-18,-28,0,-2
9273,-5,-6,-6,-25,-55,-59,-42,-8
9295,-3,0,2,15,19,-5,-2,0
9295,4,3,2,5,9,31,22,10
9296,-6,2,3,5,35,38,16,-11
9296,9,4,-1,6,-19,-26,12,7
9317,-15,-10,-6,-11,-35,-12,-16,-6
9317,8,-1,0,-3,39,120,-1,12
9318,2,3,7,25,55,-46,18,2
9318,-8,-2,-7,-39,-85,-80,-14,-11
9332,-14,-13,-15,-14,-75,-68,-40,-15
9332,-9,-4,-5,-5,36,15,2,-5
9339,-6,-3,1,-2,5,30,6,-4
9339,11,3,5,9,44,33,5,12
9346,5,3,6,22,32,68,23,8
9346,-2,2,0,-3,-3,-48,-14,-11
9354,-3,-7,-9,-17,-65,-28,-14,-11
9354,-9,-7,-6,9,6,3,-14,-8
9370,4,5,8,3,47,11,22,-2
9370,6,-1,-3,-15,-51,3,10,12
9370,-13,-10,-9,0,-4,10,-35,-12
9370,1,5,0,-5,9,-9,11,2
9393,15,5,5,18,2,8,4,11
9393,2,0,-1,18,9,-11,-6,4
9393,-2,0,1,-13,7,39,17,7
9393,-11,-2,0,3,8,81,-4,-15
9415,12,5,-3,0,-1,-95,4,17
9415,3,3,3,10,-33,-41,-13,-9
9416,-5,-6,-10,-16,8,48,-7,-6
9416,-12,-4,-5,-9,4,-32,-8,-10
9444,9,4,3,-2,19,20,13,4
9444,3,-1,-2,-4,-16,-6,-2,3
9462,-5,-2,2,30,31,11,-3,-3
9462,2,-2,0,-7,9,-15,8,4
9463,-1,-3,1,-7,-13,43,2,-6
9463,0,-7,-4,-8,-15,-46,-12,5
9463,-4,-3,-1,0,1,38,1,-2
9463,4,1,6,15,38,-19,12,8
9468,1,0,-7,-24,-40,-24,-12,-4
9468,-6,-4,0,3,7,65,-2,-3
9482,-1,2,2,-4,-12,-64,9,-6
9482,7,-1,-5,-14,-62,-35,-20,2
9490,-15,-9,-10,1,-1,-39,-36,-12
9490,2,4,5,9,41,53,23,8
9490,5,3,-2,-4,11,27,15,5
9490,-4,-1,-2,-5,4,9,3,-7
9512,6,1,2,5,1,2,2,0
9512,-1,-2,-5,-9,-14,-22,-2,1
9536,-3,-1,0,14,4,-12,-14,-7
9536,7,1,4,14,16,20,12,7
9538,-6,0,5,14,33,19,-2,-12
9538,-7,1,-4,-25,-60,-58,-1,-9
9538,-4,-5,-7,-19,-63,-65,-6,0
9538,-9,-9,-8,-7,8,31,-25,-1
9551,-2,1,2,16,37,28,20,3
9551,15,9,8,19,44,-19,10,18
9552,-6,-2,-3,-1,-6,12,-2,-4
9552,5,1,-2,-28,-37,-6,-2,-2
9573,-3,-8,-6,-10,5,11,3,3
9573,-4,-5,-4,-7,-7,1,-3,-7
9573,2,3,2,6,10,20,1,-6
9573,-10,-6,-8,-13,-23,-51,-7,-4
9595,2,3,2,12,1,3,-5,2
9595,6,4,5,3,4,8,7,-4
9595,3,1,0,-5,25,49,3,8
9595,-7,-3,2,10,2,-20,-8,-10
9617,-2,-3,-2,32,14,4,10,4
9617,-2,-1,-6,-54,-29,-44,-10,-9
9619,4,-2,-5,-6,-15,-5,-3,5
9619,-1,1,1,10,16,0,-4,-1
9633,-10,-5,-2,-17,-8,19,-14,-12
9633,6,-3,3,26,22,23,0,11
9634,-8,-3,2,12,20,-3,-2,-7
9634,15,9,9,0,-2,-11,19,12
9655,12,3,0,-13,-16,24,7,7
9655,-10,-6,-4,2,4,-21,-7,-12
9656,-5,-2,0,-11,-6,-16,-10,-7
9656,-4,-2,-1,28,2,-37,-7,3
9669,-9,-3,-6,-18,-13,62,5,-2
9669,0,2,2,28,26,-32,5,-1
9669,14,5,2,-18,-19,26,27,20
9669,-2,-4,2,29,22,4,-12,-8
9693,-1,-2,0,-24,2,-14,-7,-4
9693,-4,-3,-10,-31,-62,4,-22,-9
9693,-6,-3,0,21,7,-83,-15,-11
9693,5,0,-1,-16,15,51,11,10
9715,5,0,1,2,-4,-1,18,7
9715,-1,-3,2,9,17,-3,-1,-1
9716,5,-1,-1,8,-14,-1,3,0
9716,-8,-3,-9,-16,-7,9,-3,-2
9729,-3,1,0,18,28,-36,-6,1
9729,1,3,4,-15,0,49,10,-2
9730,2,0,-1,-4,-62,-35,-14,2
9730,4,1,3,-19,-5,-33,-11,3
9752,1,-1,-2,0,-7,26,5,3
9752,-1,-6,-4,18,31,64,13,3
9754,-2,0,-1,-5,19,23,10,4
9754,1,5,1,3,-9,-38,-5,-5
9774,-8,-2,0,-11,-20,-51,-21,-14
9774,3,-1,0,-2,-14,-9,1,1
9782,-8,-7,-4,-1,26,52,-2,-3
9782,0,1,8,54,41,-14,19,2
9789,4,3,2,-29,-18,78,23,5
9789,-22,-8,-9,-14,-62,-126,-52,-22
9790,4,-1,-3,5,9,14,-12,-1
9790,-9,-6,-9,-20,-18,18,2,-4
9813,12,5,4,16,23,25,19,11
9813,0,2,2,13,41,86,24,5
9813,3,1,1,1,-6,-68,-3,4
9813,-4,-5,-3,-4,-9,-2,-18,-12
9835,0,-4,-5,0,-19,-31,-2,3
9835,-7,-3,0,1,1,12,-1,-7
9836,16,9,5,11,23,0,14,17
9836,2,0,-2,-12,-4,50,15,3
9849,-7,-2,1,15,-13,-44,-8,-4
9849,-7,-4,-4,14,0,21,-11,-5
9850,-8,-4,0,-9,10,28,-2,-8
9850,6,1,0,-8,-20,-62,-4,-2
9872,-10,-7,-7,-6,-24,-42,-15,-14
9872,7,5,5,26,40,19,-8,1
9872,-14,-9,-8,-27,-15,-16,-8,-13
9872,11,0,-1,-6,-11,63,24,23
9896,-8,-1,-3,0,3,-54,-34,-11
9896,0,3,3,5,12,-8,2,-5
9897,0,0,-3,-8,-8,-4,8,5
9897,-4,-1,0,7,31,26,3,-4
9909,0,0,1,-6,-5,42,11,-1
9909,0,-1,-5,-20,-28,-63,9,10
9910,-11,-2,-1,-14,-7,10,-24,-17
9910,3,3,0,7,-10,-47,5,5
9933,1,-1,0,-4,-6,-14,-19,-1
9933,3,-2,-6,-21,-3,58,10,1
9934,-5,-2,5,12,6,-23,7,-9
9934,7,-1,-1,-6,12,52,-1,5
9955,-7,-3,1,18,-19,-63,-1,-9
9955,-18,-9,-8,-4,-14,-33,-30,-20
9957,16,6,0,-8,-17,11,15,18
9957,-14,-6,-7,-10,6,55,3,-8
9968,6,1,1,2,13,2,4,5
9968,7,3,5,3,4,-9,2,4
9977,2,0,3,19,30,14,0,0
9977,-4,-1,5,12,-21,-13,0,-12
9992,-4,-2,-6,-36,-39,-39,-29,-5
9992,7,-1,-2,4,34,16,8,15
9994,-5,-3,-5,-15,4,46,-8,-3
9994,2,4,4,-8,1,-23,24,-9
14,-6,-4,-5,-5,-7,-11,-22,-8
14,7,-2,-2,19,9,-9,3,7
17,2,0,2,-21,14,92,16,10
17,2,-1,-4,-11,-7,-57,-7,4
45,0,0,0,-5,-16,-9,27,-4
45,-8,-2,1,4,-14,-30,-41,-8
46,-6,-4,-6,0,-17,-36,-10,0
46,-14,-4,-3,-8,52,62,4,-3
52,24,9,4,-4,-20,2,26,7
52,5,0,0,4,5,-1,19,12
60,-11,-4,-1,23,-13,-21,-33,-24
60,8,0,-2,-19,8,17,-3,14
83,-3,-4,-6,1,20,-2,13,-1
83,4,2,1,0,-28,5,17,-1
84,-8,-5,-7,-13,0,-22,-16,-16
84,0,-1,1,18,-11,-1,-1,-5
89,-7,0,1,20,25,25,-2,-8
89,-5,-3,-8,-26,-4,-34,-23,-5
97,-10,-5,0,5,-4,-2,18,-2
97,-5,-3,-1,-2,-29,-63,-35,-5
113,-9,-2,2,17,21,45,-3,1
113,14,9,5,-1,0,44,30,15
114,2,-8,-5,6,26,-29,-1,2
114,-4,-5,-4,-3,-1,32,2,-2
135,0,3,1,-31,-24,-2,-3,9
135,-9,-4,-3,10,-1,9,-1,-8
136,-6,3,1,13,-9,-32,-23,-21
136,5,1,-1,-2,-28,-40,6,12
149,-8,-6,-6,-9,4,-10,-14,-3
149,3,0,-1,-2,13,17,18,5
158,9,4,6,0,-48,-15,-1,9
158,-14,-5,-2,3,20,27,-16,-18
172,2,0,3,22,31,25,5,-1
172,2,-2,-3,-11,-14,-15,0,-3
174,7,-2,-3,0,10,-21,3,11
174,-2,0,1,15,33,30,-5,-4
195,9,9,5,-8,-21,9,10,10
195,-3,-4,-5,-14,6,-33,-3,-10
196,-11,-8,-8,14,17,27,-8,1
196,5,2,1,-15,-24,-9,9,3
217,-6,-6,-9,-21,-19,-24,-9,-9
217,-3,0,3,4,-13,-28,-17,-7
219,7,3,-2,-18,-5,35,8,9
219,1,0,1,23,31,-4,16,1
233,-1,-2,1,26,11,15,4,2
233,1,-1,-1,-13,-28,-6,-9,4
234,0,0,4,25,14,-26,-2,-1
234,16,4,2,15,38,64,16,13
255,-1,-2,-2,-17,-13,-5,21,-1
255,-6,0,-4,-22,-26,-12,-12,-9
257,-5,-2,-4,-14,-35,-63,-20,-11
257,-11,-4,-5,2,-4,20,-9,-12
269,12,-1,0,4,32,-21,-1,7
269,-3,-1,2,17,-4,52,7,1
285,-1,-1,-4,-24,-27,-6,12,1
285,-3,0,-2,-13,-35,-76,-30,-9
293,-13,-5,-1,14,27,33,-11,-14
293,13,8,7,21,25,37,14,10
294,-2,-3,-3,8,12,2,13,0
294,-6,-7,-6,-14,-7,5,10,-3
315,-5,-2,1,3,-27,-15,-22,-11
315,9,5,5,4,24,7,-5,21
316,-10,1,-1,-31,-15,-24,-8,-17
316,7,0,0,-11,-16,52,25,58
329,6,4,3,11,43,-37,-13,9
329,-5,-7,-2,17,2,12,13,-4
338,2,-4,-3,13,-15,-49,-19,-5
338,-9,-5,0,-4,-37,-34,-18,-24
360,9,1,-1,-9,1,65,20,13
360,-2,-2,-4,-3,24,3,16,11
362,5,7,4,4,12,27,13,3
362,2,1,1,-1,-7,-37,-5,-20
382,-25,-15,-9,9,4,-8,-28,-16
382,1,6,10,18,23,56,0,-2
385,-1,0,1,-3,-19,-62,6,6
385,3,5,-1,0,11,24,-1,0
389,-15,3,4,-1,18,79,3,-8
389,18,11,6,7,12,-97,12,9
398,2,-5,-8,-12,-21,44,6,8
398,-4,-5,-6,-14,-24,-61,-17,-7
413,2,-3,0,15,21,-1,-14,-7
413,-8,-3,-1,-33,-10,39,3,-2
414,3,6,4,-4,21,32,22,10
414,5,2,3,15,12,-2,25,-1
435,12,-2,-6,-21,-53,-87,-24,1
435,-7,-5,1,-2,-4,-8,-25,4
436,5,2,0,8,45,48,4,6
436,5,0,2,2,-4,39,16,-14
449,7,3,4,7,-13,-24,-2,11
449,-24,-10,-7,-8,-34,-63,-24,-29
458,-5,-4,-1,-1,7,21,6,-1
458,-6,2,1,4,6,4,-6,-11
472,2,-2,-3,-10,15,38,40,3
472,13,2,1,12,14,24,-12,6
475,1,4,5,-8,-11,-16,-4,-9
475,10,1,2,1,5,26,-8,14
495,-2,0,-1,-6,6,-27,3,13
495,-9,-3,1,21,-41,-56,-5,-25
496,7,-6,-4,7,-1,-15,-28,-7
496,-5,-6,-6,-21,-20,-18,-30,7
517,5,9,6,24,31,49,24,-9
517,9,-1,-7,-13,25,53,37,12
519,5,7,6,5,-17,-37,4,-7
519,-6,-10,-12,14,-1,-35,-26,-4
533,19,3,2,2,34,47,23,34
533,-19,-8,-15,-56,-39,-46,-5,-46
534,13,4,1,-11,-22,-3,-10,17
534,-5,-2,6,18,3,31,12,-3
570,-21,-5,-1,8,22,-9,-25,-26
570,20,-2,2,17,13,21,32,22
572,-11,-8,-6,-6,-14,-37,-21,-26
572,1,1,-4,-9,-19,-26,-22,23
578,-9,-1,-2,10,-9,-17,11,-1
578,-7,0,-6,-31,8,56,-9,6
579,-4,-2,1,15,56,-15,-9,-17
579,3,-2,-6,-22,-55,9,19,4
593,-2,-5,-6,-18,-9,-37,-5,2
593,-8,-1,-4,-2,-33,21,3,-15
594,7,4,2,2,18,-3,13,11
594,-5,-1,2,3,12,20,6,-21
615,0,-6,-6,-17,-48,-29,-7,1
615,-5,-1,-3,-3,4,-62,-51,11
616,-1,1,4,-1,15,92,16,8
616,6,6,4,-1,41,5,22,27
637,-1,0,0,21,-7,51,17,-32
637,2,-10,-10,-12,-18,-76,-16,-8
638,-3,-5,-2,33,-43,-73,-32,-18
638,-13,-5,-9,-48,-24,-33,-25,-37
652,-8,3,1,1,14,52,4,10
652,-1,8,7,2,52,58,38,37
659,-7,-1,-1,-6,-3,26,19,6
659,11,5,8,23,10,-3,17,16
675,10,0,4,5,-39,-49,-27,-13
675,-12,-11,-8,1,3,-22,-22,-39
676,-8,-7,-2,25,42,45,0,-12
676,-6,-2,-3,-26,-18,-27,-2,-29
698,-4,-4,-10,-13,-22,-46,-42,-20
698,-1,-1,-4,-22,-24,21,-5,40
699,6,5,8,7,32,47,38,-19
699,8,-4,-6,-36,-11,-17,12,23
711,-5,1,3,10,5,25,32,-1
711,-18,-5,-1,8,1,2,-15,-52
727,-10,-15,-22,-27,-23,-26,-28,14
727,-3,6,7,15,5,-13,-28,-86
735,7,2,3,5,-21,-13,16,33
735,7,1,5,-3,10,1,-18,2
737,-31,-15,-12,-35,-2,-38,-14,-18
737,11,2,1,23,-14,-6,3,42
765,1,-2,0,-13,13,19,-16,-3
765,-4,8,9,26,43,49,16,-8
766,19,5,-3,-20,-16,-7,32,46
766,-15,-20,-3,36,4,16,-6,18
780,10,7,0,-10,11,-15,-24,-33
780,-10,-4,-5,2,-37,-21,9,-26
781,11,8,6,3,2,18,1,74
781,-5,-2,4,21,53,20,-9,-22
795,-1,-4,-2,-7,-6,-10,40,30
795,22,0,-3,5,-21,-84,-24,4
796,-9,-14,-17,-41,-92,-47,-45,-32
796,-16,1,-3,-19,34,41,-7,-32
825,11,8,7,19,51,28,17,60
825,-4,1,-7,-58,-10,45,32,6
827,8,6,8,20,0,28,21,3
827,-6,-2,1,27,9,-18,-17,20
831,0,2,-2,-21,8,-4,-5,-46
831,11,-2,-5,-11,-38,-29,-1,25
848,-5,0,3,5,25,-3,-12,-12
848,4,5,-3,-10,-2,39,23,-26
855,-5,-2,2,11,25,26,1,1
855,2,0,8,37,31,-44,-4,8
857,-20,-10,-12,-48,-70,-14,-6,-42
857,3,-2,-4,1,-25,-79,-40,5
878,-7,-3,-6,-9,-21,25,13,-16
878,-24,-10,-2,20,45,12,-33,66
879,23,19,24,77,49,58,45,-4
879,-7,0,-10,-30,-3,10,11,8
891,9,-9,-28,-14,-33,-20,20,26
891,-10,-11,3,21,-10,-37,-36,-37
900,-7,-3,-1,-21,11,-38,-29,-10
900,-8,1,5,26,-29,18,-8,-15
915,14,9,5,-3,13,33,21,31
915,6,5,-2,17,24,111,32,-1
916,10,0,-4,0,16,-81,5,12
916,4,-1,-4,-9,-22,-19,0,9
938,-6,-3,2,0,-16,-74,-76,-23
938,-11,-3,-3,-6,-13,25,8,39
939,5,4,6,7,32,75,42,15
939,8,1,-1,-16,5,53,30,9
951,-25,-12,-22,5,-4,-71,-10,-45
951,15,-1,5,22,-1,-27,-6,-52
960,-24,-4,-7,8,-24,-10,-29,-46
960,-1,2,1,-19,-10,-4,7,-2
975,11,13,11,64,65,68,10,19
975,9,-3,4,-46,-26,-6,23,-32
977,-4,-17,-13,-21,-2,-16,18,4
977,3,-6,-6,15,-4,-49,-46,8
1005,-21,-9,-3,-49,-63,-33,-40,-61
1005,2,10,5,16,34,33,29,26
1007,9,12,16,29,33,61,23,7
1007,2,2,5,14,26,15,39,20
1011,-4,-8,-1,-8,-20,-44,-35,-63
1011,14,1,-3,-2,-26,-33,-12,49
1021,14,-2,-4,-7,-20,2,1,75
1021,-5,0,-2,3,23,13,1,-50
1042,-21,-4,8,7,19,39,15,25
1042,9,0,-6,-7,6,-10,5,-18
1045,-4,-2,-13,-18,-25,-27,-19,-19
1045,9,1,5,-3,-12,1,10,47
1065,-12,-5,0,-17,14,3,-5,-56
1065,-12,-6,-3,-17,-48,1,-11,-29
1067,1,2,0,13,-9,4,-9,-29
1067,0,-2,-3,-3,-7,-24,-3,15
1080,2,-4,0,-8,-2,10,2,36
1080,-14,-3,-13,-1,9,-6,-16,-111
1081,15,6,4,11,18,1,23,89
1081,12,3,-6,0,-2,2,2,9
1095,15,2,4,-5,-11,3,6,1
1095,7,5,4,0,4,2,6,20
1096,-21,-4,-3,-5,-3,-6,-24,-58
1096,4,0,2,0,5,-2,1,-4
1117,4,0,0,0,-11,4,11,37
1117,-12,-3,0,-3,-2,-11,-6,-7
1119,-6,-3,-4,0,10,10,-10,-22
1119,-4,1,25,-2,1,-1,3,12
1131,12,0,2,9,26,3,8,1
1131,8,4,0,-34,-45,47,11,17
1146,-3,0,3,-19,-21,-71,-11,-10
1146,-6,-2,-2,8,12,-9,-12,-18
1155,-7,-4,-8,-2,3,-11,-10,-4
1155,-6,1,1,18,54,9,-5,5
1157,-3,14,-10,14,32,27,1,-3
1157,-6,-12,-26,-16,-2,-5,-4,-10
1178,1,-2,9,0,-7,11,5,10
1178,1,-5,-13,-4,-16,-7,3,12
1179,8,-1,3,-9,-29,6,-7,-17
1179,1,1,-4,-2,-24,-7,2,-4
1192,2,-1,0,-5,-21,3,3,8
1192,1,3,6,1,-2,-17,-5,-2
1200,-4,-5,-5,-11,-3,1,-6,-9
1200,-6,0,1,-2,9,5,-5,-7
1214,-3,0,-1,-6,-4,-5,10,3
1214,-4,0,3,6,12,-11,-6,-3
1222,-2,-5,4,14,22,5,-3,-4
1222,-3,-4,-4,-3,-17,4,3,7
1238,-10,1,1,-12,-45,-7,-14,-1
1238,-1,-2,-2,-1,-27,-6,17,1
1239,-1,-6,-2,-3,-10,9,2,0
1239,-3,-1,1,-5,3,-1,6,-11
1252,2,-1,-4,-2,3,-6,0,-1
1252,-5,-4,-19,2,15,2,-3,1
1260,-9,-3,21,2,14,7,-1,-6
1260,-3,2,-6,3,9,-3,3,6
1283,-4,2,2,-2,10,4,1,-1
1283,-12,-4,-9,2,8,-4,-5,-6
1284,10,2,-5,2,1,3,8,27
1284,1,-2,-2,0,2,-8,-11,-25
1298,4,1,3,1,5,2,1,6
1298,7,-1,6,1,2,-4,-3,0
1299,8,-2,-7,-4,-4,-5,-7,-11
1299,1,-3,3,2,1,2,4,9
1311,-9,-4,-6,1,-1,-5,-15,-16
1311,3,3,7,1,-4,-5,-1,-14
1320,-3,-1,0,1,-2,3,0,-4
1320,-1,-1,-4,-3,0,3,-1,5
1335,-3,-2,-9,-2,-3,-2,2,0
1335,1,-3,0,1,1,-5,-3,9
1341,-3,-1,-2,-2,1,-2,-5,-7
1341,-7,2,-2,-2,2,-1,-7,-5
1357,2,0,-4,-2,-2,0,0,3
1357,-3,-1,3,3,2,1,-3,0
1359,5,-1,-3,0,0,2,-2,-2
1359,-5,-4,2,-2,-3,-3,-6,-8
1381,8,2,3,2,-1,1,7,5
1381,2,-1,-1,0,-3,-2,-1,2
1384,-2,-1,-1,0,-3,-1,-2,-6
1384,-8,-3,-1,1,0,-2,-2,-1
1404,4,1,3,1,2,2,1,5
1404,-2,-2,-1,-2,-6,-14,1,-2
1405,-7,-4,-3,0,-5,0,1,-4
1405,1,-1,0,-2,-1,0,-1,-1
1418,6,-1,-1,3,0,4,10,1
1418,4,2,0,-4,-1,-1,-7,6
1420,-1,2,-3,-4,-1,0,3,-2
1420,0,1,-1,-1,-2,-2,-3,2
1440,0,0,0,-1,-4,-5,-6,-1
1440,-1,-1,0,1,-1,-1,-1,-2
1442,-1,0,-1,0,-3,-1,0,-4
1442,-2,0,0,-2,-3,-3,1,-1
1455,-4,-1,-3,0,-2,-3,-2,0
1455,-4,-3,0,0,1,2,6,1
1461,-3,-1,-1,-4,-1,-3,-12,-4
1461,1,-2,-1,-3,0,-3,3,1
1485,-4,-1,-1,-3,-1,-5,-2,-1
1485,-1,0,-2,-1,1,0,-1,2
1487,4,0,1,0,-1,-1,4,-2
1487,1,0,0,2,-2,-1,0,-2
1500,1,-2,1,-2,-1,-2,-1,-1
1500,1,-1,1,0,-2,0,12,-3
1502,-2,0,-1,-1,-4,1,-2,-1
1502,0,-1,-3,1,-2,-1,-1,0
1514,-2,-2,-2,0,1,1,3,2
1514,-3,-3,-2,2,0,2,0,4
1523,-1,-2,-2,-2,-1,-3,2,3
1523,-1,-1,-1,-3,-1,-2,0,1
1538,-4,1,-1,0,0,-1,-2,-3
1538,-2,1,0,0,-3,-1,-4,-2
1539,1,0,-2,2,1,-3,0,1
1539,-3,-2,-1,-1,-1,2,-2,0
1560,-1,-1,-1,-3,-1,-4,0,-1
1560,-2,-2,-1,-2,0,-1,-2,-4
1562,1,0,0,-1,0,0,2,2
1562,0,-2,0,-1,0,-1,5,5
1574,1,-3,-1,0,2,-1,-1,1
1574,2,3,2,1,2,1,-1,0
1583,1,0,0,2,0,0,0,-3
1583,-3,0,1,1,0,-2,0,-4
1598,-13,-3,-1,-1,-2,1,-1,-1
1598,9,2,2,-1,-1,-2,-5,2
1599,-1,0,1,1,-1,2,-3,-1
1599,1,1,-2,-1,-2,-2,-5,-6
1620,-4,-2,0,0,-2,3,0,-1
1620,-2,-2,-2,-1,-4,-4,-6,-3
1621,-2,-3,2,-1,-1,2,2,0
1621,0,-3,0,0,1,1,5,-3
1634,0,-1,0,-1,0,-3,-1,-1
1634,-3,-2,-2,-3,1,-2,2,0
1642,3,-1,-1,0,0,0,-2,1
1642,1,1,-1,0,0,-2,-7,0
1658,3,1,-1,0,0,0,-5,-3
1658,-2,-1,-3,-1,-1,1,-3,-1
1665,-1,-1,-2,0,1,-1,-1,-4
1665,0,-1,1,-3,0,2,-2,1
1682,3,2,-1,-2,-3,-1,0,1
1682,-8,-2,1,-1,-2,1,-3,-3
1684,3,2,-1,-2,-3,-1,0,1
1684,-8,-2,1,-1,-2,1,-3,-3
1685,4,0,1,0,-1,-1,4,-2
1685,1,0,0,2,-2,-1,0,-2
1685,1,-2,1,-2,-1,-2,-1,-1
1685,1,-1,1,0,-2,0,12,-3
1689,-2,0,-1,-1,-4,1,-2,-1
1689,0,-1,-3,1,-2,-1,-1,0
1690,-2,-2,-2,0,1,1,3,2
1690,-3,-3,-2,2,0,2,0,4
1704,-7,-1,-3,0,-2,-4,-6,-4
1704,-1,-1,1,-1,-1,-2,0,-3
1706,-6,-3,-3,-2,-3,-2,0,-1
1706,0,-2,-3,-4,-4,-5,1,-2
1710,-2,-3,-1,0,-2,-2,2,0
1710,-1,-3,-4,-1,0,-2,0,1
1718,-3,-2,-2,0,0,-1,-3,0
