0,-1,0,1,-1,0,-2,-1,-3
0,-2,-1,-1,-1,0,-2,-3,0
0,-2,-2,-2,0,0,0,0,0
0,-1,-2,0,-1,-2,0,5,1
5,-2,-1,-2,0,0,-2,-1,-1
5,-2,0,0,-1,0,0,-2,-2
6,-2,-2,-1,-2,-2,0,-6,-4
6,-1,-1,-2,-1,1,-3,-2,-2
6,2,0,-1,-1,-1,-1,1,0
6,-1,-3,0,0,-1,-1,-1,-1
11,0,0,-2,-3,-2,0,0,0
11,-1,0,-1,-1,0,-1,-1,-1
17,0,-1,-1,-1,-1,-1,-3,-2
17,0,-1,-2,0,-1,0,-1,-2
26,0,0,0,0,0,0,1,0
26,0,-2,-1,-1,-1,-2,-2,0
41,-1,-1,-2,-1,-1,-2,2,-1
41,-1,-1,-1,0,-1,-1,2,0
80,-2,-2,0,0,-1,-3,0,0
80,-1,-2,-2,-2,0,-1,-1,-3
83,-1,-2,-1,-3,-1,0,-1,-2
83,-1,-1,-1,-2,0,-2,-3,1
84,-2,-3,-1,-1,-1,-1,1,0
84,1,0,0,0,-1,-1,-2,1
85,-3,-1,-1,0,0,0,1,1
85,0,0,-1,-1,-1,0,1,-2
103,1,1,-1,-2,-1,-2,-3,-3
103,0,-1,0,-1,-2,-1,-1,-1
105,0,0,-1,-1,-1,-1,-1,1
105,-1,0,0,-2,-1,1,0,1
133,-2,0,-2,-1,0,0,-1,0
133,-1,-1,-3,-1,-1,0,-3,0
135,-2,-1,-3,-1,-1,-1,-2,0
135,-2,-1,-2,-1,-1,-1,-3,-4
146,5,-2,1,-2,-1,-2,-1,0
146,-1,-1,0,-1,-1,0,0,0
147,-2,-2,-2,0,-1,0,-1,1
147,-1,-1,-1,-2,-2,-3,-1,-2
161,-2,0,-2,-1,-1,-2,2,-1
161,0,-1,-2,-2,-1,0,-1,-1
209,0,-1,-1,-1,-1,-1,-2,-1
209,-1,0,0,-1,-2,-1,-1,-2
210,0,0,-1,-1,-1,-1,0,-3
210,-1,-1,-2,-1,-1,0,1,-2
214,-3,-1,0,0,-2,1,-3,1
214,0,-1,0,-1,1,-1,-1,0
215,2,1,1,-1,-2,-3,-1,-2
215,-1,0,-1,-1,0,-1,-3,-1
216,-5,-2,0,-1,-2,0,0,0
216,-3,-2,0,-2,-1,-2,0,-2
229,0,-1,0,-1,0,-2,0,-2
229,-1,-1,1,0,-2,-3,0,0
235,-1,-2,-1,-1,1,-2,-2,1
235,3,0,0,0,-3,-1,0,0
244,-1,-3,0,-2,1,0,-1,0
244,-2,0,-2,0,-1,0,-1,-1
274,-3,-1,-2,0,0,1,-2,0
274,-4,-2,-1,-1,0,-2,-1,1
275,-2,0,0,-2,-1,0,-2,-1
275,-3,-2,-2,0,-1,0,-1,-1
288,-2,-2,-2,-1,-2,-1,-1,0
288,1,1,0,0,-2,0,-3,0
291,0,0,0,0,-1,-2,-1,-3
291,3,-1,-1,-2,-2,-2,0,-3
303,2,-2,-1,-1,-1,-1,-1,-2
303,0,-2,0,-1,-1,-2,-2,-2
317,-2,-1,-1,-1,-1,-1,-2,1
317,-1,0,-2,0,0,-3,0,-1
326,-3,1,-1,-2,0,-1,-2,-4
326,1,-2,1,-3,-3,0,-3,-2
328,-2,1,-1,0,1,0,-2,-3
328,-2,-1,-1,-1,0,1,-1,-4
352,0,-1,-2,0,0,0,0,-2
352,-4,-2,-3,0,-1,-1,0,-1
352,2,-1,-1,0,-2,1,-1,1
352,0,-1,0,-1,-1,1,-2,1
363,2,-1,0,-1,-1,-2,-1,-1
363,-2,-2,-2,-2,0,-1,0,-2
378,-1,-3,-2,-1,-2,-2,-4,-1
378,-1,0,-1,-1,-1,0,0,-1
386,2,-2,0,-1,-1,0,0,1
386,-1,0,-3,-2,-1,1,-1,1
387,6,0,0,-1,0,-1,0,2
387,-2,-3,-1,-2,-1,-3,-2,-1
408,-4,0,-1,0,1,-2,-2,0
408,0,0,0,-1,-1,-3,0,-1
410,-7,-2,-3,0,-1,0,-1,-1
410,-1,-1,-1,0,-1,-2,-1,0
422,1,0,0,-2,0,0,-2,1
422,-4,-2,1,1,-1,0,-1,-1
431,-4,0,-1,-1,-1,-1,1,-2
431,1,-1,-1,0,-1,0,0,2
446,-2,0,0,-1,-3,-1,0,0
446,2,1,0,1,1,-2,-1,-3
447,0,-1,-2,-3,-1,0,0,-2
447,-7,-2,-3,1,0,1,-2,-2
469,3,1,0,0,0,-1,1,-2
469,-1,-3,-1,-2,-1,0,0,-2
471,0,-3,-1,1,-2,-1,-2,-2
471,1,-1,-2,-1,-1,-3,0,-3
483,-2,-2,-2,0,1,0,-1,-2
483,1,-2,-1,-1,-1,-1,-1,0
491,-4,1,0,-2,0,-3,-2,-1
491,0,1,-1,-1,0,-1,0,3
506,-1,-1,-2,-1,-2,-1,-3,-1
506,-2,1,-2,-1,-2,-1,-2,-1
508,-2,-1,6,2,-1,-2,-2,-2
508,1,0,0,0,-1,-1,1,-3
529,-2,-1,-3,0,0,0,4,1
529,-1,0,-1,3,1,-1,0,-1
530,0,-2,-3,0,-2,-1,-1,0
530,-2,-1,0,-1,-1,-1,-4,-1
542,0,0,1,-1,-1,-2,-3,-3
542,-1,-2,-6,2,0,-2,-1,-1
551,4,0,-2,-1,-1,-2,0,0
551,1,0,-2,-1,0,-1,-1,1
566,-2,-2,-2,-1,-3,-2,-2,0
566,-2,-1,1,-4,-2,-1,-2,0
567,-5,-1,0,-2,-1,0,-1,-3
567,0,-1,8,-2,-1,0,-3,-4
588,-2,1,2,0,-1,-1,-1,-1
588,-2,1,-1,-1,-3,-1,-4,0
596,1,0,-1,-1,-2,-1,0,-4
596,-3,-2,0,-3,-2,1,1,0
603,-7,-4,-19,-4,-1,0,-3,0
603,-9,-5,4,-2,-1,-2,-2,0
612,4,-1,-2,1,0,-1,1,3
612,1,-3,-2,1,0,-1,-1,0
633,-4,-2,-15,-5,-1,0,-3,-5
633,-4,-4,-2,-1,0,0,-3,-17
635,-5,-1,-1,-2,1,0,-1,40
635,0,-1,-3,0,1,1,0,-4
656,2,0,3,3,0,-1,2,2
656,4,-1,-3,-1,-1,-1,-1,-5
658,1,0,-4,-1,-1,0,-1,-16
658,-1,1,-1,-1,-2,0,1,-7
662,0,-2,3,-1,-1,0,0,-2
662,-7,-2,0,-1,-1,1,-2,5
671,8,1,-2,0,-1,-2,2,-2
671,-4,-2,-3,-3,-2,-2,-2,6
686,1,-2,0,1,-2,1,0,-5
686,3,2,0,-1,-1,0,1,0
688,-9,-5,-4,-2,-2,-2,-3,-3
688,-2,0,-1,-1,-4,0,-1,-7
709,1,1,7,1,0,-1,-1,-2
709,8,1,-2,0,-2,-3,-2,6
711,-4,-2,-1,-1,0,-2,2,-9
711,6,0,-1,0,0,-1,5,6
722,-2,0,3,-1,-1,0,-3,-3
722,-3,0,-7,0,0,1,4,3
738,8,2,20,1,-2,-1,-3,-4
738,-3,-3,1,0,0,-1,-5,0
747,3,3,11,0,2,-1,2,9
747,-7,-2,13,-2,0,-2,-2,-14
748,1,-1,-5,-1,2,0,1,26
748,3,1,-1,-1,0,1,-1,2
768,4,1,2,-1,-4,0,0,-8
768,7,1,-5,-3,-2,-2,-5,0
769,-6,-4,-4,1,-1,0,5,-12
769,-4,-1,8,-1,-1,-3,1,0
782,2,0,-6,2,-2,2,0,5
782,-5,-1,-1,1,-1,0,-5,-1
792,7,5,0,-2,0,1,-1,-4
792,3,-1,-20,-1,0,1,-5,-4
807,-6,-6,3,-2,-1,-1,-3,-22
807,-3,-1,0,1,-2,-2,2,16
808,-1,-1,2,-2,-2,-3,-3,11
808,-6,-2,-4,-1,-3,-3,1,0
829,-2,-3,-4,-1,1,-1,1,4
829,-2,-1,-1,-1,-3,-3,-2,-17
831,-12,-5,-10,-2,0,-2,-5,-15
831,7,1,-10,-3,-1,-2,6,7
842,0,-1,7,0,-2,0,-3,-6
842,-6,-1,1,0,-2,-1,-2,1
852,3,1,-3,1,-2,-1,-2,-12
852,-15,-2,0,-2,-3,-2,-7,13
874,2,1,-1,-2,-3,-2,0,1
874,5,1,-21,-4,-1,1,5,7
875,-4,-4,13,-3,-2,0,-2,1
875,-10,-7,-3,0,-4,-2,-4,-18
889,4,-1,-7,-2,-1,-1,0,4
889,3,-3,0,-1,-2,-2,-4,4
891,-8,-1,-12,-2,-2,1,7,-19
891,8,1,7,-1,0,-1,11,5
902,-13,-5,4,-2,-1,-3,6,4
902,-3,0,-7,0,-3,-1,3,-4
911,-1,-2,0,-1,-1,0,-5,0
911,5,1,-1,-3,-1,-1,-2,-2
925,10,4,20,2,-1,0,-1,9
925,1,-3,2,-1,-1,2,-3,-4
932,-3,-5,-10,-2,-2,-3,-7,-22
932,0,2,17,2,1,-1,1,22
949,2,-1,-9,-3,-1,-2,-7,0
949,16,4,6,1,0,-1,1,0
950,-5,-1,2,-1,0,2,-3,-6
950,-9,-2,-2,-3,-1,-4,-9,-23
963,-5,-2,-15,-2,-1,-3,-5,-3
963,0,0,11,2,0,2,1,10
972,-24,-6,-9,-2,-2,-2,-7,-23
972,5,0,-18,-2,0,0,-4,-2
986,4,4,0,-2,-1,1,2,23
986,-3,-5,-2,1,0,0,-4,-5
992,6,-1,-3,-1,0,1,0,1
992,-8,-2,26,3,-1,-1,-7,-10
1009,4,0,5,1,-1,-2,2,-1
1009,-1,4,3,-1,-1,-1,2,-7
1010,1,-1,-6,-1,-1,-1,-3,14
1010,-2,-3,-5,-2,0,0,2,0
1022,3,2,-4,-1,0,-1,-2,-7
1022,-7,-8,3,-2,0,-3,-3,3
1031,3,1,1,-4,-3,-4,-3,7
1031,13,3,-5,-1,-1,0,1,12
1045,-10,-2,-5,-5,-1,-2,-3,-13
1045,-17,-13,-11,0,-1,-1,4,-7
1052,10,3,0,0,-1,-1,1,5
1052,4,-1,-15,-2,0,1,-6,-12
1069,-12,-8,-1,-1,-3,-5,-8,-19
1069,-2,-2,-13,-4,-4,-5,-1,22
1070,1,-1,15,2,-2,-1,3,9
1070,0,-2,-3,-1,-2,0,-1,-5
1082,-3,-3,-1,-1,1,2,2,5
1082,-3,-1,-2,-1,0,-2,-2,-32
1091,-1,-1,-2,1,-1,-3,0,2
1091,2,2,0,0,0,0,0,3
1105,-2,-2,-1,1,-1,-1,-3,-8
1105,2,-1,2,-2,1,1,-7,-8
1112,2,3,4,-3,-4,-3,2,10
1112,-11,-4,7,0,-2,-4,-1,-6
1128,0,-1,-1,-2,-3,-2,-10,-33
1128,-1,3,-20,1,3,6,4,7
1131,0,-1,8,-1,1,-1,-6,-7
1131,10,-2,-3,0,-1,2,13,32
1151,-14,-3,1,-1,-4,-2,-8,-71
1151,16,8,-4,-1,-1,0,16,112
1152,-1,1,-3,-1,1,2,0,-3
1152,-5,-1,-4,-3,0,-4,-5,-29
1174,-6,-2,1,1,2,1,-7,-12
1174,-6,1,-1,-6,-4,-6,-17,-128
1175,9,4,9,1,1,3,24,59
1175,-7,-2,-3,0,0,-4,-8,-4
1187,19,11,0,2,-1,1,8,26
1187,-15,-6,3,-2,-3,-4,-13,-19
1197,8,-2,-10,1,-2,-3,-4,-15
1197,-1,-2,2,0,0,-1,-1,-8
1211,-8,-6,-21,-3,-1,-1,-1,16
1211,9,8,26,4,1,1,-2,10
1213,12,7,-32,-1,-1,0,15,45
1213,-7,-31,0,-1,-1,-1,-3,-34
1241,-7,-3,1,0,-2,-5,-7,6
1241,0,-5,-5,-3,-2,-2,8,24
1249,-11,-3,5,-2,-1,0,-12,-37
1249,-1,8,1,0,0,-1,-6,6
1250,-4,0,-2,-2,-1,2,11,14
1250,-3,-4,-3,-1,0,2,-4,-7
1256,-14,-1,3,-3,-5,-8,-10,-2
1256,26,12,-1,0,1,4,23,90
1272,1,-3,11,1,2,1,-2,-36
1272,-8,2,-5,10,7,2,5,-8
1273,12,0,0,-6,-11,-2,-5,-21
1273,-4,0,-1,-4,-4,-4,-12,21
1294,-5,-3,-3,2,10,-1,6,25
1294,9,12,23,56,40,9,0,4
1295,-21,-9,18,-38,-42,-7,-4,-30
1295,12,-1,-4,-23,-22,-6,-2,-16
1307,5,4,0,-10,-9,-2,-4,3
1307,-18,-2,-8,-8,-1,-6,-6,-25
1316,13,-1,0,31,29,5,-1,66
1316,-6,4,6,1,3,6,5,-9
1330,-3,-2,2,-1,-2,0,-9,-6
1330,11,0,2,-9,-1,4,-4,-19
1338,-13,-1,0,8,3,0,3,-21
1338,4,-1,-1,-3,-2,-2,-2,12
1354,27,3,-8,3,0,-5,5,17
1354,-5,-10,-15,-13,-14,-2,-3,-10
1356,-8,16,62,68,26,17,-13,-62
1356,-2,3,-66,-23,19,-1,0,-12
1367,16,-17,5,-23,-55,-29,12,33
1367,-22,-11,-34,-34,-33,-31,-26,2
1384,49,11,-1,1,-5,2,-3,12
1384,-1,12,18,23,27,27,17,-75
1392,0,2,6,14,28,22,-1,-9
1392,2,-2,2,-8,-2,7,13,21
1405,-17,-5,-24,-18,-4,-16,-9,-55
1405,-27,-10,11,4,-5,-14,-23,-1
1415,-17,-6,-20,-16,-2,-3,-4,-67
1415,22,-1,21,5,-1,3,-1,74
1417,11,4,-11,-5,24,28,44,93
1417,-11,-1,-2,24,8,6,-9,-71
1428,-8,13,14,30,36,8,12,15
1428,-23,3,-1,4,-6,11,-14,-57
1436,8,-18,-42,-55,-57,-59,-7,0
1436,1,-4,-8,-21,-43,-9,-6,-10
1450,-35,-11,-8,-3,-3,-9,-29,-75
1450,53,8,5,19,29,23,44,74
1459,-8,18,-9,-17,29,19,-14,-75
1459,10,-2,14,5,0,4,15,-19
1474,-31,-26,-5,-1,1,-3,-20,-92
1474,-3,-3,0,-5,-3,-6,26,75
1475,6,2,11,14,-2,10,-13,-43
1475,2,-3,13,8,9,10,-3,77
1487,-2,-13,-6,3,16,43,15,37
1487,-16,-36,6,8,-6,-68,-20,-29
1496,-1,58,-56,-38,6,-20,-22,-17
1496,-78,0,47,15,-80,-35,-15,-2
1511,72,23,35,47,23,28,13,-55
1511,45,65,14,53,95,26,13,-127
1518,11,-57,-52,-86,-86,26,11,-82
1518,6,-15,4,25,-10,-23,-12,-8
1542,-29,-31,-41,-64,-57,-57,-27,98
1542,3,3,89,106,18,27,8,40
1543,1,72,31,77,127,44,-5,-17
1543,-42,2,58,64,74,41,1,24
1547,-12,26,3,-93,-65,9,5,-43
1547,40,-83,-84,-21,-16,-40,3,-18
1564,-15,29,20,-13,-124,-101,-21,31
1564,-40,-24,2,-124,10,-24,-54,-105
1571,28,38,79,94,83,40,1,-23
1571,-101,-15,31,64,53,4,-22,-45
1577,48,-67,-22,80,67,90,82,-28
1577,-8,38,-94,-33,-89,-5,-13,-61
1594,25,18,7,-58,-8,-33,-13,54
1594,-12,14,-55,-128,-81,-33,-29,11
1595,-88,-69,-58,-29,-34,-53,-23,-59
1595,107,10,58,113,76,79,84,127
1618,-84,-71,-98,-50,61,21,7,-39
1618,89,41,23,-46,-68,2,40,71
1619,-16,32,-32,26,-34,-31,-77,6
1619,-5,12,20,-10,12,-9,8,24
1639,7,19,-51,-13,26,17,24,-17
1639,-40,-27,11,40,24,35,14,-49
1640,-57,-93,33,35,-20,-48,-31,26
1640,-18,20,-53,-51,-38,-41,-9,-63
1661,35,-19,6,31,-11,6,16,52
1661,1,30,-3,57,75,25,16,22
1663,17,89,97,1,-20,23,26,-16
1663,-73,-70,-45,-48,-38,-23,-19,-57
1675,13,-34,-35,27,-48,-63,-41,-28
1675,-50,-12,-23,21,-21,60,-24,-124
1677,122,52,27,36,99,47,56,119
1677,22,4,63,21,-4,-4,13,-19
1706,-60,86,-3,-7,-53,-42,-9,-61
1706,-7,2,-21,-17,-29,-13,-11,84
1707,-49,-8,21,-7,11,-12,-10,16
1707,39,31,-3,-3,-17,-24,-17,-49
1714,0,31,58,48,-2,11,12,-8
1714,-12,-37,-31,-36,12,5,1,-4
1715,-67,-114,-44,-1,50,33,-1,59
1715,-9,72,45,12,38,20,-10,-13
1736,46,72,24,-14,-55,-18,-28,-1
1736,8,-38,-30,-35,-25,-38,1,10
1738,36,21,-38,-34,-29,11,25,33
1738,-21,-47,-24,78,107,23,-20,-69
1758,-53,-46,-2,-26,-69,9,-12,35
1758,66,77,32,-4,-15,-18,2,73
1759,10,8,32,50,36,7,19,-45
1759,35,-16,-10,7,-31,-24,10,50
1773,-64,-19,53,59,4,-23,-48,-76
1773,17,6,-41,-27,-30,-24,15,34
1773,-22,-25,64,98,7,-36,-1,-92
1773,10,80,80,37,-38,-4,-1,19
1795,109,-43,-115,-112,92,108,76,63
1795,-66,-47,55,-78,-76,5,-21,-87
1796,56,23,-88,-104,-39,-78,-49,-10
1796,-4,-71,-35,-36,-68,-73,-50,-83
1850,-17,9,22,44,31,-1,-23,-74
1850,10,-38,47,2,67,53,36,60
1852,13,102,33,-18,72,123,49,60
1852,16,-86,-36,47,62,-31,20,-30
1858,-13,93,25,37,-38,-35,-25,-11
1858,-10,-59,-35,-44,-81,-89,-56,-103
1859,-37,13,29,75,-23,24,-11,14
1859,-13,10,43,95,39,35,2,-16
1860,23,-2,38,74,127,51,21,45
1860,-14,58,-39,-29,-16,-35,-14,-122
1871,6,-65,-24,-83,-128,-86,-59,-18
1871,34,51,-68,-38,-24,35,84,127
1886,-45,-35,11,52,91,21,-7,-76
1886,-1,45,-17,-35,-64,-87,-28,-31
1887,-11,-63,-103,-103,-36,66,-24,-106
1887,58,23,44,68,97,111,75,89
1893,-38,-89,-16,23,-89,-60,-22,67
1893,-50,4,99,127,20,-45,-47,-77
1894,36,55,-9,-48,-77,11,61,53
1894,-3,-49,-75,-90,-62,-79,-13,27
1915,19,23,-46,25,98,127,84,15
1915,-30,-89,-34,-77,19,-62,-35,-23
1916,-41,64,127,127,65,-10,3,-128
1916,43,8,-91,-119,-105,-92,-102,78
1939,-1,-64,65,111,-17,31,-4,-48
1939,7,-78,-38,62,52,127,39,-42
1939,-9,23,46,-42,127,114,29,12
1939,-9,6,38,79,61,26,49,-86
1953,21,99,110,-23,-60,-116,-24,11
1953,29,64,-82,48,17,99,4,32
1953,-4,-115,-71,3,-2,-63,41,7
1953,-33,3,42,38,-75,14,-80,-81
1975,-21,-59,-24,-5,-66,-128,-87,-52
1975,46,46,70,42,16,92,64,71
1975,-37,-30,42,-12,-22,-9,-42,-15
1975,-27,-52,-55,17,95,94,46,-5
1998,38,38,-7,4,12,124,37,-15
1998,-2,47,35,21,90,-13,-21,-19
1999,5,-19,73,99,-23,41,32,-50
1999,-17,54,8,-42,-110,-96,-60,-71
2013,-8,11,-60,-122,-21,51,-26,10
2013,-78,-52,31,103,64,-45,-72,-66
2013,29,-16,12,102,115,100,33,40
2013,24,57,70,70,29,-55,104,-4
2036,7,-61,92,80,-97,-126,-57,0
2036,-13,17,-109,-95,-96,-104,-62,-45
2036,8,36,-1,-44,-51,27,30,81
2036,-4,-41,-12,-18,111,127,41,-12
2059,37,55,-61,-5,84,112,127,45
2059,42,5,34,-57,15,-66,5,24
2059,-6,0,34,22,-57,-66,-44,-2
2059,4,9,-13,0,15,61,-36,-21
2073,7,-53,1,-30,70,-7,89,59
2073,37,23,8,-38,79,127,55,47
2073,-24,-27,-62,-113,-78,-128,-15,-12
2073,-47,-99,-79,-117,-128,-128,-101,-50
2096,-15,-8,12,81,4,12,-33,-30
2096,32,-47,-32,-57,15,104,43,127
2096,64,-10,32,72,117,85,33,59
2096,9,50,14,-4,10,16,18,-28
2126,23,67,72,35,-19,-48,4,-70
2126,-41,3,-68,-46,-84,-50,-19,-128
2127,-3,18,13,54,27,5,38,68
2127,-20,-61,0,19,13,44,-31,-27
2133,53,118,-9,0,43,103,11,41
2133,-6,56,64,38,-43,-114,11,-44
2134,-67,-33,-68,-100,-51,16,-70,-128
2134,-1,-71,-11,-61,4,14,33,7
2155,7,19,14,65,72,-15,-10,20
2155,-11,-26,10,-49,-34,85,28,17
2156,-48,-73,-109,-80,-60,-95,-22,-30
2156,50,60,103,126,41,-8,7,36
2179,37,0,15,1,27,-49,-27,9
2179,-2,20,67,123,40,48,-5,28
2180,21,19,12,15,74,-1,4,-14
2180,-20,2,-76,-128,-97,-48,33,67
2193,-36,-56,-36,1,-61,-48,-34,-2
2193,-2,-7,7,74,42,-26,-22,-73
2194,-10,-38,-46,13,-34,-6,-27,-43
2194,-41,-19,8,63,47,108,1,-2
2216,-21,-31,-29,-94,-52,-12,19,-2
2216,16,17,40,64,14,-53,8,-51
2216,-2,0,-11,-29,42,6,0,28
2216,1,21,-32,-12,-59,-3,-10,72
2231,-4,-39,-36,-35,2,68,-13,-54
2231,-26,-22,12,-12,-62,-73,-12,-42
2238,-13,-54,15,-12,-23,-30,-21,-67
2238,22,36,16,-2,67,-7,13,65
2261,-9,-16,0,-50,-46,23,13,-51
2261,21,-32,-52,28,81,90,42,98
2262,-16,16,7,-24,-68,-73,-47,-119
2262,-14,-6,-9,1,28,29,11,11
2275,16,-10,1,13,0,-20,26,61
2275,14,-14,-27,1,-29,-28,-2,92
2276,8,64,84,29,-8,-24,-32,-29
2276,-32,-8,62,73,30,46,-5,-128
2298,-5,6,-64,-63,33,12,8,73
2298,-2,2,14,35,33,6,2,-42
2300,20,24,-20,29,0,13,-5,18
2300,-15,-16,12,5,37,-39,-13,-7
2321,-28,-24,89,111,-32,-50,-17,-62
2321,23,35,-112,-128,-12,20,7,43
2323,-8,-6,16,107,57,37,23,31
2323,14,-15,15,25,33,-2,-10,-50
2335,-7,-21,-33,-10,11,6,5,26
2335,47,5,23,0,-45,-24,-13,-15
2342,-6,17,15,-5,-23,-13,1,37
2342,14,21,-33,-45,14,22,8,7
2359,12,15,11,11,35,43,13,8
2359,-34,-16,9,-8,-37,-61,17,18
2360,29,0,-22,-39,-23,-1,-4,11
2360,-1,3,18,63,-9,-49,-17,-12
2381,-23,-13,-13,-13,14,5,-20,-19
2381,-10,1,22,-16,-31,53,12,-12
2382,13,4,-2,16,31,51,24,47
2382,-6,-4,-16,-46,-20,-5,-2,-15
2404,-5,-17,-25,-30,-51,-106,-28,-4
2404,-12,-13,12,33,27,-13,-18,-6
2405,3,-3,-2,-6,12,34,3,3
2405,8,14,-1,-1,-16,-22,5,2
2417,-19,-14,-24,-19,-14,20,6,-9
2417,21,-6,11,10,18,16,7,13
2425,-3,10,-25,-32,17,18,10,7
2425,6,-8,16,33,-1,1,-11,-7
2432,-11,-12,-18,-13,-16,-28,-13,-7
2432,-5,12,7,12,-13,-19,-4,-10
2434,-2,1,-46,-43,4,9,4,6
2434,-2,-8,18,15,13,-1,7,-1
2456,-4,-13,5,22,10,33,-6,-2
2456,9,5,18,33,-4,0,4,22
2456,2,0,-9,-37,-13,-14,1,-2
2456,5,4,-24,-33,-13,-27,-14,-2
2478,3,-3,-6,13,-10,3,23,4
2478,-12,1,17,26,11,12,-16,-12
2480,3,-2,-25,-18,3,-36,-4,10
2480,4,-3,7,-1,1,27,10,4
2493,-2,0,9,30,24,2,-6,-5
2493,-9,-11,-5,-7,10,29,6,-3
2494,6,4,15,22,-13,-41,-3,9
2494,3,-4,10,31,15,11,1,-1
2515,-9,-16,-45,-86,-29,6,-11,-4
2515,-34,7,-13,-27,-6,-25,-4,-23
2523,42,0,20,34,-19,1,2,20
2523,27,-10,1,8,13,-38,-25,-12
2539,14,22,13,3,3,30,10,7
2539,-9,-3,-5,2,28,33,6,-3
2539,-13,-6,6,8,13,22,16,-4
2539,1,3,-15,-31,-54,-50,-5,7
2553,-9,-11,-5,-5,-29,-28,-19,-7
2553,9,-10,7,-25,-5,-9,-8,-4
2554,-15,1,-5,20,26,24,1,-7
2554,-2,8,17,21,31,22,13,4
2575,2,-1,-8,1,-11,36,13,2
2575,-2,2,3,16,16,-7,-1,-1
2576,-2,-6,6,5,-9,-13,-8,3
2576,-4,-6,-25,-27,-10,3,0,11
2599,-1,3,10,-2,7,7,-3,-12
2599,1,-2,10,8,-3,-26,-8,-12
2599,1,3,-4,-3,-16,-24,-9,-5
2599,-4,1,-12,-7,-12,0,2,-8
2620,-5,-3,11,20,19,12,1,11
2620,6,0,-16,-4,7,16,3,-1
2637,-1,5,8,-14,-10,16,2,-7
2637,-15,-11,-10,-24,1,-8,-6,-1
2638,2,-9,-15,-4,-9,-27,-9,-3
2638,7,3,23,33,3,15,5,7
2643,-3,-4,-38,22,17,-4,-6,0
2643,-5,5,17,12,19,64,10,-8
2659,5,10,-11,-17,12,-21,15,8
2659,3,5,-1,-20,-44,-29,2,5
2659,-12,-15,4,-2,-24,-51,-32,9
2659,-4,0,-9,-36,-25,29,0,-29
2681,-3,3,3,18,27,-38,-4,13
2681,2,9,0,-25,2,29,8,-4
2682,0,1,8,6,7,20,12,12
2682,-1,-2,-5,15,11,-10,-5,8
2695,6,-1,17,19,23,27,-2,0
2695,-5,-5,-8,-1,-3,14,9,-3
2696,1,4,20,-2,-32,-28,-12,-13
2696,-5,-5,-11,-42,-29,-29,1,-1
2718,2,-2,-12,-14,-14,-24,-9,-4
2718,-6,-5,21,-2,14,22,-9,3
2720,-5,-2,1,24,37,32,15,-9
2720,-4,-4,-27,2,-18,3,7,3
2741,-7,9,24,12,-1,1,2,-21
2741,4,-6,-15,-27,-25,-36,-15,26
2742,1,10,15,18,19,2,-3,-23
2742,5,2,-4,1,5,31,10,12
2755,4,0,2,5,7,-8,-4,-5
2755,-8,-8,-9,7,13,-21,-8,-19
2756,2,0,4,1,-22,-5,10,14
2756,-6,-3,1,5,14,-3,-18,-15
2778,1,1,-5,17,-18,6,22,-3
2778,9,-4,-9,-11,-9,-11,-20,-2
2779,-5,-6,-1,7,28,24,2,6
2779,11,12,9,41,40,-7,2,6
2793,-8,-12,-6,-62,-51,-20,-12,2
2793,-9,2,-5,4,-15,-7,1,-5
2793,12,6,-2,-20,-15,1,4,8
2793,-2,-3,1,12,6,-9,-3,-3
2816,2,-5,-10,-2,-6,-25,-9,8
2816,7,4,-1,11,20,39,15,10
2817,-15,-6,0,-9,31,51,-6,-24
2817,8,4,11,6,1,-19,13,17
2838,4,-3,-15,-25,-19,10,-12,8
2838,-9,-3,15,-8,-30,-43,-13,-11
2839,-2,-2,-3,18,7,-1,13,0
2839,-9,-6,-3,4,-3,-5,-19,-3
2853,-4,-6,-5,-15,-41,-53,-17,-11
2853,3,3,-9,1,17,41,5,0
2853,4,5,14,29,56,12,8,8
2853,-1,0,-11,-59,-53,0,14,1
2876,-9,-5,1,2,-14,-20,-13,-5
2876,-1,-5,-8,15,2,-3,-10,6
2876,-2,-5,-3,-11,-14,-20,1,-1
2876,14,3,8,9,-2,-12,-4,1
2899,-7,-3,-6,16,26,32,0,-9
2899,5,0,-1,2,9,7,15,2
2899,1,0,1,-2,7,22,6,-3
2899,-3,4,9,7,36,-5,-2,-8
2921,-3,-6,-23,-22,-76,-31,-17,1
2921,4,-1,-3,8,-2,-51,-4,4
2921,-5,-2,-6,-20,-20,12,10,3
2921,-7,-2,0,4,15,6,-14,-4
2935,2,3,6,24,47,67,20,4
2935,-2,2,3,-11,-9,-1,-3,-8
2936,1,3,-3,15,15,3,2,-2
2936,2,16,44,11,-6,-2,10,4
2958,-7,-13,3,13,-25,-39,-22,-6
2958,-8,-5,-4,-14,14,18,-1,-13
2959,-1,-5,-13,-34,-61,-30,-15,-3
2959,5,-3,-21,-6,18,-26,2,16
2981,6,6,8,2,30,35,21,-2
2981,-3,-3,-1,-3,-16,-11,-4,-3
2982,-4,5,0,-9,14,15,-8,-4
2982,-1,-3,-9,21,12,16,10,1
3004,3,-4,-3,-4,33,23,17,5
3004,-2,-3,-4,-8,-60,-38,-19,-4
3004,-6,0,15,-3,-1,4,-4,-14
3004,11,-2,-14,-7,3,81,7,17
3018,1,1,4,-3,21,-49,11,-3
3018,3,5,0,11,-5,-15,-8,-2
3019,-14,-11,6,34,-21,-65,-32,-12
3019,-18,-13,-1,-10,-27,-19,-11,-13
3049,4,5,2,-1,34,55,20,11
3049,9,6,3,12,39,60,22,5
3050,7,-1,-22,-27,-30,3,-8,3
3050,-3,-3,-3,-3,-20,-44,-3,-9
3064,-8,8,6,-20,-29,-22,-20,-9
3064,-8,-5,3,-11,-8,-14,-2,-6
3064,6,0,-1,10,54,118,11,6
3064,-6,-6,-7,0,15,-69,2,-5
3079,2,3,2,5,-33,-22,-8,3
3079,-5,-4,-1,-8,-5,-21,-15,-4
3079,3,3,3,2,-8,-23,9,6
3079,-9,-3,0,-3,3,47,-5,-6
3092,8,6,6,13,33,-11,4,10
3092,6,0,4,9,-10,31,21,5
3100,-7,-11,-7,20,47,28,7,-2
3100,6,3,-3,-59,-25,11,-3,0
3116,6,3,16,-15,-33,-12,-3,5
3116,0,-5,-29,7,5,-12,-11,-2
3116,1,1,0,-18,-40,-72,-10,-2
3116,-13,-9,-5,10,-23,-14,-12,-12
3139,-11,-6,-4,-15,16,44,-4,3
3139,-3,1,9,24,22,21,21,2
3153,4,-1,4,32,-3,66,8,6
3153,-5,-8,-9,26,26,-78,-3,-2
3154,2,-2,-8,-12,-39,7,9,-1
3154,-8,-1,-5,-15,-21,-22,-26,-10
3168,2,1,-6,-20,13,-25,5,1
3168,-6,2,6,12,-7,5,-1,-2
3176,2,-1,-7,2,15,17,11,0
3176,1,0,2,-12,15,-5,2,2
3176,-3,0,2,-12,-6,-5,-13,-1
3176,2,-1,-2,0,1,29,-1,3
3199,-2,11,1,39,0,-53,7,-9
3199,5,-16,-1,-30,-37,-8,-6,5
3199,-3,-3,-23,-9,-9,-28,-16,-5
3199,2,1,19,25,43,50,12,6
3211,-3,1,-3,9,34,65,-5,-6
3211,-1,6,-6,1,-10,-31,3,-2
3220,0,-7,-15,-15,-37,-51,-14,-3
3220,3,-4,-6,-1,10,24,-5,2
3236,-1,1,1,-3,13,-28,-1,-7
3236,-9,-2,-6,-28,-14,-8,-9,-9
3236,0,-1,1,-11,-4,17,7,6
3236,2,6,-1,6,-3,-8,4,-3
3259,8,0,7,21,34,29,3,3
3259,3,4,-2,5,16,27,13,6
3260,-7,1,3,-31,-47,-42,-9,-6
3260,2,3,3,10,-3,73,1,0
3281,-3,-3,1,16,22,-25,2,2
3281,-2,-8,6,9,2,-25,1,-4
3281,-4,-2,3,-1,-26,-28,-10,-8
3281,-2,-5,-8,-18,-31,-63,-30,-8
3304,-8,-7,-7,-8,15,47,6,-3
3304,5,9,8,21,51,8,27,6
3304,5,4,13,-15,-13,14,15,5
3304,-3,-9,-9,-15,-26,-37,-17,-7
3319,-4,-8,-25,-11,-22,1,-7,-2
3319,0,9,33,13,56,10,4,3
3320,2,0,1,36,34,95,24,4
3320,3,2,-13,-22,-46,-92,-1,1
3348,-7,-9,1,-4,-24,-15,-4,-5
3348,-7,-4,-20,-22,-29,-35,-38,-7
3349,4,5,5,3,20,24,11,-1
3349,-5,-1,7,12,23,21,11,-7
3371,11,3,5,-6,-17,-30,-13,10
3371,2,2,-1,13,-7,58,9,4
3372,2,3,11,-10,23,-49,-13,-4
3372,-1,2,-1,16,2,31,1,3
3378,0,-1,0,6,12,-10,-7,-5
3378,-4,-5,-8,-19,-42,-5,-1,-3
3378,-2,-5,-4,-14,-27,-49,-23,-7
3378,-4,-1,-5,0,10,32,15,6
3393,3,3,6,13,36,-22,-5,4
3393,-5,-4,-3,-12,-20,-3,-3,-4
3400,6,-1,3,38,6,11,7,-1
3400,-1,5,-8,-40,-25,-14,-5,-5
3416,1,-6,3,-3,-27,-28,-1,1
3416,-4,-1,0,9,29,39,8,-2
3417,4,3,2,31,18,-37,21,10
3417,-4,0,3,7,-8,23,-15,-3
3438,-10,-7,-9,-23,-23,-19,-18,-6
3438,0,-1,-4,18,17,-20,-5,-5
3439,-3,1,-2,-10,17,25,-3,2
3439,6,-2,-20,24,22,24,10,3
3453,0,7,11,-51,-46,81,8,-3
3453,-4,-4,-9,-19,3,-48,1,-2
3460,0,-7,-2,2,-34,-48,-12,-2
3460,-1,-1,-4,-19,-8,3,-7,-1
3475,-9,-4,-7,22,36,46,4,-12
3475,6,7,-2,-1,-24,-37,2,3
3475,-4,1,25,-19,-10,-26,-15,-7
3475,-1,-3,6,7,8,-4,1,2
3497,0,2,1,11,52,51,15,-4
3497,2,-3,1,2,-6,15,-2,2
3506,-1,9,-12,-32,-30,-13,4,0
3506,-4,-4,5,1,-17,-15,-9,-4
3512,-5,-6,-2,-4,2,-9,-1,3
3512,1,1,-1,23,30,18,9,5
3521,1,-14,3,5,33,39,11,2
3521,1,-1,0,1,-12,-6,-4,2
3535,3,5,1,15,-22,-70,-15,-2
3535,0,-2,-2,0,5,32,-3,4
3536,-5,1,-6,-1,-1,-9,-11,-2
3536,2,4,9,4,10,1,14,6
3558,-1,-3,-9,-35,-40,-20,-13,-3
3558,-8,-3,-14,-16,-9,-29,-5,-8
3559,-4,-2,4,12,5,19,-7,-1
3559,-2,-3,4,21,45,26,14,0
3573,-1,1,6,11,12,-18,3,-4
3573,3,0,1,-10,-27,-4,-12,-3
3580,1,3,-10,-4,19,82,4,6
3580,-5,1,2,4,4,-57,16,-5
3603,10,1,2,12,-13,-7,0,11
3603,-10,-6,-2,-18,19,29,-18,-11
3605,-1,1,-1,-11,-27,-36,5,-4
3605,9,4,-5,-16,-28,20,-5,8
3627,-14,-12,-11,-4,-3,-23,-10,-7
3627,4,13,6,13,10,34,4,3
3628,-7,-14,-2,6,18,-19,1,-6
3628,-7,2,-1,1,-5,9,-14,-9
3649,7,0,-5,-12,-14,-44,13,8
3649,7,0,6,26,11,52,6,12
3650,3,-3,-19,-5,10,-18,-2,1
3650,1,0,-3,-16,2,-6,9,-4
3663,-4,0,2,-7,-9,51,-2,1
3663,-8,-4,2,7,-2,-32,-6,-10
3664,18,8,4,11,2,-18,3,10
3664,-7,-7,-9,-41,-35,-26,-11,-4
3686,-6,-2,-5,-6,-13,15,4,-1
3686,-1,-3,-4,-5,2,-35,3,1
3687,-3,1,-2,-7,-10,-16,-7,-8
3687,3,1,1,10,1,11,-6,0
3708,1,2,0,10,44,-11,-2,-1
3708,-3,-2,-3,-24,-40,17,10,1
3710,-11,-5,-2,11,11,36,4,-3
3710,3,-2,1,-4,-3,-47,-28,4
3715,1,2,5,5,3,16,-16,-6
3715,-2,-7,-3,2,11,72,13,-1
3716,4,4,1,-2,-3,-64,0,8
3716,1,-4,-3,6,-3,10,3,-1
3739,0,-4,-4,-3,-15,-3,9,-2
3739,-5,2,7,0,15,-14,-11,-11
3739,1,-7,-5,-6,-3,19,0,2
3739,-2,-2,-2,1,0,45,9,3
3769,-5,0,1,9,-6,-79,6,-5
3769,3,4,-1,-7,-10,-6,-4,-2
3769,-6,-4,-4,-8,-20,-15,-18,-8
3769,-1,6,-2,1,11,-17,-1,2
3775,-1,-10,9,16,42,104,11,5
3775,-3,-2,3,23,14,-40,3,-6
3776,5,5,1,-11,-19,19,19,9
3776,-3,-4,-8,-9,-20,-36,-18,-6
3799,-3,-7,-4,9,0,53,-1,-7
3799,3,3,-1,-22,-9,-40,11,1
3800,-3,-3,-3,10,-1,26,-15,-1
3800,-11,-9,1,17,22,14,9,-10
3821,-2,1,-7,-9,-17,-29,-3,4
3821,4,-2,-2,5,16,8,-3,8
3822,-2,1,-2,-3,-14,1,8,-1
3822,0,2,-1,-16,-13,-12,-4,-1
3836,-3,0,-2,4,22,8,0,-1
3836,8,3,1,-3,-26,-18,-7,4
3837,-9,-4,-4,0,9,13,-14,-10
3837,-4,-4,1,1,10,-8,0,-3
3859,10,6,9,-15,-13,-41,-5,8
3859,0,-2,-5,-13,-19,18,-11,3
3859,4,-2,2,27,48,32,13,-6
3859,8,0,3,-6,-18,2,-1,4
3881,-9,5,4,-1,-12,-36,-5,-7
3881,-8,-20,-5,15,-2,12,-6,-3
3882,5,3,12,-26,-28,-30,-1,5
3882,-5,-1,0,10,49,80,11,-5
3895,7,1,-1,-1,-4,-9,23,10
3895,1,2,2,-5,-34,-81,-2,-1
3896,-7,-9,-12,-12,-18,-30,-48,-12
3896,-3,-4,1,-4,7,24,9,0
3926,5,3,3,14,30,42,12,1
3926,-1,3,-1,18,6,5,-6,0
3927,0,0,-5,-15,5,40,17,2
3927,-2,2,-4,-5,-24,-76,-13,-9
3941,-2,-6,-3,-1,-49,-20,-24,-6
3941,-2,-2,-3,-5,25,23,5,-3
3942,2,5,8,21,40,22,16,8
3942,-7,1,-5,-3,-12,11,3,-2
3956,-7,0,-4,-7,5,11,4,-4
3956,-3,2,-3,-20,-26,-31,-6,-2
3956,-9,-1,0,6,-1,-4,-8,-8
3956,12,6,6,28,49,46,29,14
3986,-1,1,-9,-42,-24,12,-7,-2
3986,-6,-1,-2,4,8,-32,1,-9
3987,2,-1,-7,-15,-61,-29,1,6
3987,-5,-8,-8,-21,-42,-82,-47,-10
4000,-1,-1,3,-12,-7,20,-3,-1
4000,1,-3,1,1,55,109,14,4
4007,-1,0,-3,6,8,-30,12,-6
4007,5,2,2,4,-49,-41,-25,-3
4015,-5,-7,-8,13,17,-18,-15,-1
4015,3,2,1,13,10,52,19,0
4023,3,2,1,7,9,-32,10,1
4023,-1,1,1,3,8,8,6,2
4046,-8,-6,-5,4,8,-16,-17,-14
4046,2,0,-7,-27,-40,-12,-1,5
4047,3,2,3,-5,-18,30,2,4
4047,2,-3,-1,-6,26,-17,9,8
4068,5,2,5,7,-1,-13,-1,-1
4068,-2,-3,-4,12,-3,-36,-14,-5
4069,-7,-5,-5,-29,-7,10,2,-4
4069,-7,-5,5,-9,-13,11,-8,-6
4075,8,3,1,17,46,81,22,15
4075,-1,-3,-7,-17,-36,-15,1,1
4076,-1,0,11,7,16,-40,0,-4
4076,-1,-2,-4,8,-1,5,5,-1
4099,-6,-3,-7,-23,-46,-50,-25,-13
4099,1,1,4,11,29,42,8,5
4100,3,1,-7,-8,7,21,9,5
4100,-1,2,3,0,15,2,3,0
4121,-5,1,3,12,16,43,9,-8
4121,1,-2,-8,-21,-16,-72,-13,6
4122,-2,-2,-3,-8,-15,11,-23,-4
4122,-1,0,-3,-9,0,37,16,-2
4143,-3,-4,1,-5,-28,-48,-14,2
4143,-1,-4,-1,4,15,-16,-13,-4
4145,-1,-2,-1,32,24,22,8,1
4145,-3,-2,-3,-7,-19,31,6,-4
4158,1,0,-4,-1,12,-39,2,1
4158,-1,4,3,-15,6,9,-2,-6
4159,0,-2,0,-2,-33,-13,-12,-1
4159,2,0,1,12,13,-28,0,1
4182,-3,3,-2,16,52,53,16,-6
4182,-2,-13,5,3,-57,-47,0,-5
4182,-6,-6,-7,-14,-11,-40,-23,-5
4182,3,-1,1,-4,20,37,10,7
4203,-1,-3,2,3,1,3,14,-2
4203,0,2,-1,-6,-14,-26,-17,-3
4205,-7,-3,-5,-20,-17,-18,-7,-10
4205,-2,-2,-2,-6,-18,7,2,1
4218,6,2,5,19,38,23,15,15
4218,-8,3,4,19,34,58,15,-7
4219,9,3,1,1,-2,19,5,12
4219,-2,-3,-4,-1,8,-43,-15,-3
4240,2,-2,-6,-20,-76,-57,-8,-1
4240,-7,-4,-8,-7,-12,14,-23,-7
4248,-6,-3,-3,12,51,21,9,-2
4248,7,4,6,9,0,-5,9,8
4264,-1,1,-5,3,2,5,-14,-6
4264,2,0,0,-14,4,36,-6,1
4264,-4,0,3,9,13,-48,-4,-3
4264,-1,-2,2,27,3,60,-1,-2
4286,5,-1,-3,-47,-43,-29,-4,5
4286,3,3,1,15,3,10,14,4
4286,-4,-3,-2,0,-2,-17,-10,-8
4286,-8,-5,-4,-6,1,-19,-11,-10
4308,-10,-4,0,6,-20,6,-4,-4
4308,3,1,2,7,33,3,17,11
4310,4,4,2,12,19,22,23,1
4310,0,-1,-2,-6,-27,-14,-13,-3
4315,-4,-2,-2,-4,10,-22,-4,-5
4315,5,-1,-4,-10,-10,1,11,2
4323,0,-4,-5,-12,-9,-19,-10,-3
4323,-4,1,-1,-8,1,17,1,-5
4338,4,2,2,18,59,54,11,8
4338,0,1,-1,2,-21,-13,0,0
4340,-5,-2,-2,-7,-32,-5,-1,-4
4340,-6,-4,-5,-8,4,-40,-14,-4
4362,-7,-5,-4,1,-8,-13,-7,-7
4362,-1,0,3,20,45,67,14,-1
4362,5,1,6,6,19,-21,3,3
4362,6,-2,-1,-9,-43,-22,-4,3
4375,-6,-6,-3,-3,-20,9,-18,-3
4375,-3,-3,-6,-6,-15,-45,-14,-3
4384,-3,3,2,14,19,43,1,-1
4384,1,4,8,4,36,25,13,1
4398,3,0,1,-12,-4,6,-6,5
4398,-2,0,5,14,15,-23,-3,-2
4398,1,-2,-2,-14,-49,-26,-1,0
4398,-4,-2,-4,-1,0,-27,-20,-4
4437,4,-1,-5,-7,1,60,18,1
4437,2,1,3,6,10,-20,-3,-1
4438,-8,-4,-3,4,-5,-8,-4,-7
4438,-1,2,0,7,31,-3,-2,-1
4439,0,-1,-2,-6,-35,-6,2,-1
4439,-3,-4,-4,-7,-8,18,4,-3
4443,0,-1,0,-16,-9,19,10,3
4443,-1,-2,-4,-14,-7,8,-2,0
4458,2,2,5,20,34,40,8,4
4458,5,3,0,-8,1,-41,6,-2
4459,5,-1,-4,2,-38,-38,-21,-4
4459,-5,-4,-8,-4,1,3,-10,-6
4481,-9,-1,-1,2,11,-26,1,-10
4481,7,1,1,13,13,34,12,14
4482,-5,-2,-1,-31,19,45,9,0
4482,-2,-2,-1,17,-12,-1,-6,-2
4495,2,-4,-3,0,-12,-67,-12,1
4495,-3,0,1,7,1,21,-4,-1
4503,2,0,-2,-4,22,57,9,1
4503,3,-1,-2,-12,-33,-55,1,7
4518,-6,-4,-6,-4,-43,-55,-22,-15
4518,-3,-4,-5,-1,17,4,-19,-6
4519,-1,-1,1,19,32,18,7,2
4519,-5,0,1,-1,6,19,5,-2
4542,0,0,1,13,1,-6,-4,2
4542,2,0,0,-4,6,-10,7,4
4542,-1,1,1,-14,-23,8,-2,-6
4542,2,2,3,11,19,8,9,2
4563,-5,-4,-7,-35,-47,-21,-8,0
4563,-7,-4,-4,8,11,10,-5,-3
4565,-1,-1,-3,-9,-18,-29,-1,0
4565,13,2,-2,11,10,7,10,13
4577,2,3,7,14,16,21,6,-1
4577,-6,-3,-2,-13,11,30,-4,-9
4586,7,3,-2,-2,-17,-11,5,13
4586,-5,-1,0,6,-1,-41,-10,-9
4601,0,1,1,19,23,8,3,-1
4601,-6,-2,-3,-24,-34,-26,-17,-2
4602,-5,-5,-6,-19,-32,1,-7,-5
4602,-4,-1,-5,-30,-29,21,7,-1
4623,6,4,1,10,37,-18,4,11
4623,-5,-2,-2,-2,-26,-13,0,-10
4626,0,0,3,21,41,60,1,-2
4626,4,1,1,13,17,-6,8,6
4637,-5,-1,-6,-11,5,-10,3,-5
4637,-1,-1,0,11,-27,-36,-8,-6
4646,-10,-5,-3,22,21,-5,-23,-7
4646,-1,-4,-3,-45,-41,-11,-8,-3
4661,5,1,4,8,21,15,11,6
4661,-9,-4,3,24,27,25,10,-4
4663,17,4,5,-10,-12,-33,-4,16
4663,-6,-5,-1,12,23,43,3,-8
4691,3,-1,-1,-8,-12,-14,-3,3
4691,5,1,-1,2,7,-3,-5,3
4693,-6,4,1,-8,2,5,11,-11
4693,-1,2,15,25,7,18,-4,3
4714,0,-3,-21,-39,-16,-24,-8,4
4714,-6,-3,-1,-4,-33,-21,-7,-5
4715,-3,-5,-5,8,10,6,-4,-3
4715,0,0,0,1,27,21,4,-1
4729,-3,0,5,15,4,13,7,-11
4729,2,-4,0,-6,-27,-26,-7,-2
4735,-2,-3,-4,-24,-35,-29,-11,-8
4735,3,2,-2,8,11,11,11,9
4759,-7,-1,3,28,42,56,6,-3
4759,3,4,10,-12,9,0,5,7
4761,-9,-1,-18,-16,-20,-11,-4,-5
4761,-4,-3,7,10,9,-16,-2,-7
4762,1,-1,-8,6,6,-12,-13,2
4762,1,-2,1,-11,-3,28,12,6
4774,-2,-7,-3,18,10,-42,2,-2
4774,-2,-1,-7,-34,-60,-32,-31,-6
4781,-7,-4,1,-7,12,15,2,-2
4781,7,7,2,9,24,33,3,10
4782,1,0,1,7,-5,-25,-8,3
4782,-1,0,-4,-2,-12,-16,-3,-10
4804,4,0,4,0,-21,-15,-7,3
4804,5,1,-3,16,55,69,12,2
4805,0,-2,-7,-15,1,-2,16,8
4805,3,1,3,1,17,42,10,1
4818,-2,-1,-6,-9,-42,-70,-28,-6
4818,-9,-4,-5,-10,-16,-10,-5,-12
4826,1,-4,2,0,3,-23,-21,-4
4826,-4,-3,-7,-1,8,22,4,-4
4841,4,4,7,17,34,68,25,11
4841,5,1,8,18,-1,-1,19,6
4842,0,3,-3,3,7,-25,-10,-5
4842,-5,-9,-17,-60,-83,-47,-6,-3
4863,-1,-3,2,-7,0,31,2,-3
4863,-7,-3,-5,-12,-18,-66,-24,-6
4865,-13,-3,5,14,17,58,13,-9
4865,-1,-1,4,25,14,-46,-7,4
4878,0,2,-2,-19,-16,-15,9,3
4878,-3,-6,-9,-1,11,63,0,-5
4886,5,-2,1,-10,13,-31,-9,3
4886,-6,-3,-4,1,-30,-11,-15,-9
4901,-3,-2,0,-10,-14,36,15,-2
4901,1,2,1,1,9,-60,-13,-3
4903,-2,0,3,35,18,32,14,1
4903,-1,-2,-4,-19,4,7,-2,1
4924,-2,0,0,-8,2,-10,-6,-6
4924,6,6,-1,-9,-12,60,15,8
4925,6,-1,5,22,21,-45,-15,8
4925,-4,-2,-6,-12,-6,47,3,-4
4937,-8,-1,0,-5,-10,-61,-4,-9
4937,4,0,0,10,-6,-27,-13,6
4946,-8,-2,2,-8,-21,47,-4,-7
4946,11,4,12,10,11,-45,5,10
4961,-3,-5,-13,-12,-5,13,-16,-11
4961,0,-1,0,16,0,23,23,-3
4968,18,3,2,-8,1,-19,4,19
4968,-4,-5,-5,0,6,30,-1,-4
4991,2,1,5,15,17,-11,3,-1
4991,0,2,7,0,-37,-40,-15,-1
4993,-5,-3,-13,-12,1,56,6,-7
4993,-4,4,1,12,35,24,22,1
4998,13,0,-2,-25,-18,-28,-19,9
4998,-10,-4,-3,-3,5,-42,-16,-7
5005,0,5,18,32,-24,-6,7,1
5005,-1,-7,-14,5,4,7,2,1
5021,-8,-3,-3,-3,5,20,-1,-9
5021,1,0,5,18,20,33,5,3
5023,-4,1,2,2,20,-10,5,-6
5023,5,2,2,1,-21,-3,-4,10
5043,-5,-5,-1,8,-4,-21,-4,-4
5043,5,-8,-5,-16,12,70,8,4
5045,1,-1,3,4,8,-54,6,-1
5045,-10,-3,-12,-7,-25,-10,-24,-13
5058,-2,-1,-1,7,-6,-20,6,-3
5058,2,2,-2,-32,-20,-25,0,2
5066,0,-2,6,1,13,47,-3,2
5066,-4,0,-7,-16,18,-11,2,-2
5096,4,4,10,26,20,26,1,0
5096,4,0,-7,-1,6,-6,12,9
5097,-7,-3,-5,-36,-48,-13,-13,-15
5097,-7,-4,2,4,-6,-27,-19,-10
5110,-3,-3,-2,4,-26,-59,-11,-4
5110,-7,-4,-34,-3,3,19,-9,-10
5119,9,6,13,-3,1,-14,6,14
5119,5,6,15,37,35,47,17,1
5120,-4,-6,-5,-23,-17,0,-9,0
5120,-2,-4,-2,20,24,34,-3,-3
5126,0,1,-4,15,20,-22,2,4
5126,10,6,2,30,-13,31,20,14
5141,-5,-3,-2,-20,-3,0,-6,-2
5141,1,-2,10,14,-20,-65,-18,-6
5143,-15,-5,-14,-33,-33,20,-14,-20
5143,7,1,14,6,45,-28,20,15
5164,-3,-7,-5,4,-11,10,-7,-3
5164,-5,-4,1,-14,0,1,-12,-8
5165,-6,-5,1,19,24,13,8,-9
5165,0,0,3,-15,0,12,-14,0
5177,1,3,-10,8,1,-15,2,6
5177,4,0,-3,-25,-9,31,9,2
5203,7,5,6,28,13,-8,14,1
5203,-11,-8,-12,-52,-47,12,-23,-17
5203,-12,-8,-3,9,-3,-69,-16,-12
5203,6,6,11,0,3,17,15,14
5215,-10,-2,-5,14,17,-16,-14,-12
5215,10,-3,-6,17,4,-23,-1,11
5224,3,-2,5,9,-7,53,15,4
5224,-10,-3,-5,1,-1,-41,-6,-4
5225,4,7,6,1,8,58,18,6
5225,-15,-5,2,-6,-8,-3,-2,-15
5246,-2,-4,4,5,-3,-43,-16,-2
5246,4,-1,-10,-26,-14,-8,8,6
5247,6,-5,-8,3,-13,32,-7,35
5247,-3,5,9,12,29,-48,7,-21
5260,16,12,9,2,-8,88,24,22
5260,-4,-9,-7,20,2,-50,-9,-3
5268,-4,-5,-7,-18,-29,-21,-6,-16
5268,9,1,0,9,5,12,0,9
5283,-2,-5,-10,-11,-4,-35,-4,-8
5283,-11,-2,5,-6,2,-14,-14,-24
5285,9,1,-4,-19,-4,25,3,14
5285,2,1,-2,24,12,-6,8,9
5297,-11,1,1,-21,-10,24,-8,-16
5297,-8,-1,6,11,12,28,12,1
5314,4,-3,-5,-17,-20,-56,-18,-2
5314,-10,-5,-4,-13,-37,-2,-11,-18
5321,-2,0,-1,20,38,42,27,-11
5321,-11,-7,-4,-14,-5,-43,-28,41
5323,6,1,-1,-21,6,54,15,1
5323,-2,1,3,28,27,7,-6,-18
5344,-5,-2,-2,-12,-27,-62,-14,6
5344,3,5,13,12,-26,-3,11,-17
5345,-11,-9,-6,-10,-11,-18,-12,-13
5345,7,-6,-15,-29,12,36,3,19
5357,2,3,2,10,19,36,7,-9
5357,-7,3,6,11,25,-14,-4,-19
5367,-1,2,8,38,15,3,1,0
5367,-2,-3,-4,-16,-30,7,-3,2
5381,-13,-1,3,11,44,1,-4,-24
5381,23,4,-7,-50,-57,51,19,17
5383,-5,-5,-12,16,-13,-87,-32,1
5383,1,0,2,3,15,-10,5,2
5404,4,0,0,4,-18,26,-18,-15
5404,-5,1,0,5,12,5,-12,-18
5406,17,7,-3,-19,15,51,44,70
5406,-11,-7,-2,0,1,-24,-12,10
5417,24,7,8,18,30,33,29,14
5417,-15,-16,-14,-27,-29,-21,6,-28
5426,-4,-2,2,-4,-14,-42,-38,-26
5426,-12,-3,-5,-6,2,4,4,0
5440,3,-3,-10,-39,-30,8,8,19
5440,-1,4,7,14,0,-45,-11,-9
5447,1,-1,-7,-15,-8,12,9,30
5447,3,3,9,24,43,61,5,-11
5463,11,0,-6,2,7,-21,0,2
5463,8,-5,-3,-47,-78,-33,-10,30
5465,-19,-4,2,34,14,-51,-39,-79
5465,9,8,-2,-33,-10,43,12,4
5478,4,-1,2,12,44,74,21,38
5478,4,5,5,16,38,-18,38,3
5486,-5,-2,-1,-9,-40,-62,-39,-59
5486,-17,-10,-7,1,-34,-92,-38,-20
5501,-3,0,-3,2,-28,8,0,13
5501,2,3,-1,2,26,55,13,13
5507,-2,-3,7,26,60,75,39,-13
5507,9,4,6,25,0,17,18,45
5524,-10,-1,0,9,-5,-37,-20,-23
5524,-18,-10,-12,-30,-43,15,-35,-34
5525,-3,5,5,-18,-14,-48,-8,-22
5525,3,-1,-2,-3,23,9,10,-12
5546,-1,-9,-7,-15,0,-35,-15,18
5546,-5,-3,-3,15,16,26,-1,27
5548,18,6,2,-4,54,52,32,-41
5548,23,4,3,0,-58,-14,28,96
5560,-8,4,1,-26,-30,-40,-3,-55
5560,9,1,4,30,14,11,-26,-54
5569,-2,-3,-6,-23,-10,-10,-1,43
5569,-5,4,6,11,31,6,-10,-26
5591,3,-4,-7,-29,-35,-4,6,-5
5591,-2,6,15,21,22,27,-14,-33
5593,15,8,8,30,58,95,48,99
5593,-1,-2,-3,-21,-41,-41,31,-63
5606,-21,-12,-12,-14,-40,-47,-59,-19
5606,-12,-11,-12,-1,2,-60,-26,38
5608,-10,-6,-1,-12,-18,5,-3,-21
5608,1,1,2,15,52,91,27,22
5628,8,8,7,4,2,-40,23,14
5628,-8,0,-1,21,13,12,-1,-56
5630,6,-3,-16,-44,-61,-49,-9,24
5630,-15,-17,-12,-5,-22,-2,-10,-2
5644,9,10,18,17,34,60,6,-28
5644,3,1,-5,-10,14,-6,19,12
5646,-4,-2,-2,-25,-27,-2,-7,-18
5646,-11,-2,0,4,-11,26,-33,-78
5666,3,-4,-2,6,-5,-80,7,33
5666,26,1,-3,-7,-18,-25,11,38
5667,-6,2,4,13,-5,7,-12,32
5667,1,4,10,24,71,64,10,-24
5680,-13,8,8,10,16,10,-2,-3
5680,8,-2,-8,-24,-10,-11,19,-1
5695,8,-3,-9,5,-43,-48,-21,-22
5695,-2,-8,-10,-21,-1,17,-17,55
5704,12,5,6,31,61,33,46,105
5704,-15,-1,1,-22,-44,-21,-26,-22
5705,-20,4,-7,-3,-19,-23,-16,-62
5705,12,-2,0,20,32,-38,-11,13
5727,15,-11,-15,-28,-23,54,15,20
5727,-11,-10,-2,21,46,46,-2,16
5728,14,18,18,16,21,-6,51,-9
5728,-5,4,0,-22,-75,-84,-42,37
5740,-10,-1,1,36,-29,-49,-36,-24
5740,7,0,-6,-8,25,43,7,-1
5756,10,-4,-7,3,34,69,28,21
5756,-3,-4,14,20,15,4,28,-29
5764,12,10,9,8,-1,-41,-17,62
5764,-14,8,-3,51,20,0,-9,32
5766,-26,-24,-16,-61,-56,-23,-19,-17
5766,14,-1,-15,-2,13,33,33,-18
5787,20,16,19,-22,9,6,5,-5
5787,-62,-20,-11,-19,-36,-31,-30,-113
5788,67,12,5,22,53,53,40,102
5788,-10,6,-5,-29,-21,-30,-13,-116
5800,-24,-21,-15,10,-31,-24,-30,-85
5800,20,6,4,6,-21,-55,-16,-4
5808,-32,-10,12,45,54,65,-5,-55
5808,-58,-27,-16,-62,-36,-26,-29,-91
5824,69,14,-1,8,21,43,103,80
5824,34,13,1,-25,-33,-27,-21,-128
5825,-54,-18,-32,-13,-20,-36,-58,-97
5825,61,22,-4,-35,-20,-16,5,49
5846,-32,-5,45,64,51,34,-5,-57
5846,-91,-41,-16,-21,-19,6,-39,-80
5848,80,36,11,38,31,21,77,103
5848,-11,7,-9,58,71,-11,-15,-107
5868,-37,-20,-53,-128,-124,-7,-32,-128
5868,27,8,37,70,77,32,24,8
5870,-44,-10,-9,-41,-40,-21,-34,-55
5870,-8,-6,-15,-1,-2,27,8,52
5884,11,2,7,33,11,-62,-8,46
5884,-10,0,-28,2,7,4,-2,27
5885,-4,-10,-4,-60,-5,-20,-15,-13
5885,19,0,3,-52,-11,0,20,57
5906,-26,-21,33,60,-10,37,-8,-16
5906,20,8,24,59,35,13,18,51
5907,-7,7,21,8,-23,-5,-13,-13
5907,0,4,15,27,6,-11,-13,9
5929,-10,-8,-31,-38,-10,13,-11,-24
5929,10,2,-10,-54,4,-7,25,39
5930,16,-7,-12,-7,-41,-9,1,6
5930,-18,-7,3,21,14,-15,-16,-11
5952,-13,4,1,-8,21,11,-12,-26
5952,19,5,-8,11,21,9,16,31
5953,0,2,9,-19,-21,8,1,-8
5953,-5,-4,-11,-30,-46,-22,9,8
5966,-6,-2,-22,-22,0,-6,-26,-25
5966,4,2,-2,-14,-27,-35,-4,2
5967,-18,-8,1,28,29,2,-11,-18
5967,7,15,18,41,24,13,5,6
5980,0,0,35,2,-22,13,7,-1
5980,2,-3,-48,-49,-1,14,-1,-49
5988,4,12,43,15,1,-9,0,19
5988,2,-2,12,20,24,-2,1,-1
6004,-4,7,4,26,50,10,-1,26
6004,3,13,70,29,-41,0,5,6
6005,-6,-19,-36,-39,-16,-10,-5,-21
6005,-7,-9,-23,-32,-24,-11,-11,-11
6034,8,14,-5,-18,-3,3,1,6
6034,-15,-2,10,8,16,-2,-16,-58
6035,26,14,0,36,32,16,29,57
6035,8,0,9,5,-16,-8,2,-6
6040,-16,-7,-15,-5,8,3,-6,-50
6040,25,-4,-8,-9,-10,-8,7,22
6056,-51,-14,-9,6,2,-8,-23,-32
6056,-10,-4,-6,-9,-14,-10,-19,-9
6063,-32,-2,-6,-4,2,-1,-12,-124
6063,61,16,-3,-8,-1,20,51,7
6077,-6,-1,4,2,-2,-1,-6,-25
6077,5,-2,5,6,3,-7,2,-1
6086,-23,-10,-15,-5,0,0,-13,-38
6086,-25,-7,-3,-11,-11,-6,-10,31
6087,-12,-8,-6,5,3,-7,-8,-30
6087,-16,-1,1,6,3,5,-1,-62
6100,47,6,-5,-4,4,6,29,101
6100,-13,-2,-5,-9,-8,3,7,-2
6109,12,2,3,7,5,-6,-3,0
6109,-7,-4,-6,-3,-8,-5,-16,-20
6125,-5,-3,-15,-8,-8,1,-5,-5
6125,3,1,22,1,2,3,0,37
6131,-17,-8,-4,2,0,-6,-14,-42
6131,1,3,4,2,-4,2,1,12
6147,11,5,3,-4,1,-3,3,18
6147,-1,-6,-33,6,-4,-1,-4,-1
6149,-9,-3,-1,3,4,-4,-2,-20
6149,9,1,0,-3,-4,0,2,16
6160,-2,-2,-2,-3,2,4,2,5
6160,11,1,0,-2,-5,-4,-5,-7
6168,8,-1,-2,0,1,2,1,-10
6168,-2,-1,-2,0,1,-3,1,9
6183,-9,-2,-5,4,-3,-2,-4,6
6183,-10,0,-5,11,5,2,-8,-40
6185,8,-2,12,0,3,-2,2,4
6185,-2,2,-2,-15,-28,-5,4,7
6206,-8,-4,-3,-3,-3,-3,-17,-68
6206,-3,-3,-7,-5,0,0,11,61
6207,6,2,-9,4,5,1,6,28
6207,0,1,9,-1,1,-2,-3,-5
6220,1,-1,0,-4,-2,1,6,-10
6220,-5,-1,0,-7,-1,-3,-6,-52
6229,-1,1,-3,3,1,2,1,17
6229,-11,-10,-5,-1,3,-2,-6,8
6244,5,0,-2,0,-2,-1,1,24
6244,-11,-4,1,-3,-1,-1,-5,-31
6249,-12,-2,-6,-3,-5,-1,-2,-41
6249,7,2,-4,5,5,2,8,66
6266,3,0,1,-1,0,1,-5,-16
6266,-4,-2,-2,-7,-4,1,3,30
6267,-5,-2,0,-1,-3,-2,-3,-33
6267,-6,-1,1,3,1,-2,-2,-36
6289,4,-2,-1,-1,-1,-3,5,40
6289,1,-1,1,-7,-6,-1,4,13
6290,5,3,-3,2,-2,-1,-3,13
6290,-4,0,0,3,5,0,-1,-14
6303,-4,-3,-4,-4,-4,-7,-3,-2
6303,-4,-3,-1,-3,-4,-1,-6,-5
6310,-2,-3,-1,4,3,-4,-1,1
6310,5,-2,0,-11,-4,3,4,2
6326,-4,-3,-1,-1,-2,0,1,-3
6326,4,0,-1,-1,-1,2,4,14
6328,2,-1,-2,0,-2,0,-1,3
6328,-2,0,1,2,0,-4,-3,-10
6340,6,-1,-1,-1,0,0,3,6
6340,-7,-1,1,-1,-1,-2,0,3
6350,3,0,0,-1,-2,-1,-1,5
6350,-3,-2,-3,1,1,-1,-4,-10
6363,-2,-2,-2,-2,-5,-4,-9,-27
6363,0,-1,-3,-2,-2,-2,2,-9
6369,-1,1,1,-2,-1,2,4,3
6369,-2,2,1,1,3,3,6,-36
6386,-2,2,1,1,3,2,10,62
6386,-5,2,3,0,0,1,-4,-21
6388,-1,2,1,-3,-1,-1,1,0
6388,4,1,-2,-1,-2,0,2,15
6400,-4,-2,-1,-1,-1,3,-5,-25
6400,4,1,-1,-2,-2,-1,-1,8
6409,-1,-2,-2,-2,-2,0,-1,15
6409,-4,-2,-3,0,1,-1,-1,1
6423,-4,-1,-4,-3,1,-1,-2,-57
6423,11,1,1,0,1,0,4,41
6429,2,-1,-1,-1,0,0,3,31
6429,-2,-1,-3,0,0,-2,-6,-1
6446,1,1,0,0,-1,0,-1,-9
6446,-1,-1,-1,0,-1,0,-4,-35
6447,-5,-2,-1,-1,-2,-3,-5,-16
6447,10,2,1,0,0,-1,0,7
6469,1,1,-1,-1,-1,2,0,13
6469,-4,-5,-4,0,0,0,-2,-4
6470,1,-2,-1,-1,-1,-3,0,-10
6470,-3,-3,-2,-2,-2,-3,-3,10
6483,0,-3,0,0,0,1,-1,-6
6483,-5,-1,-3,-2,-2,-3,-3,-7
6491,-3,-1,0,0,-3,-1,-4,-19
6491,2,0,0,0,1,2,5,38
6506,2,1,0,0,0,-2,0,4
6506,-6,-2,-1,-2,-2,0,-2,-2
6508,1,1,0,-1,-2,0,-4,-15
6508,-3,-1,0,0,0,-1,-2,-19
6528,3,1,1,-1,-2,-1,1,11
6528,3,1,-1,1,2,-1,2,13
6529,1,-1,-1,0,1,-2,-2,0
6529,-3,-1,0,-2,0,-3,-3,-10
6543,-1,0,-1,-1,-1,0,3,7
6543,0,-2,-1,-1,-2,-1,-1,-6
6550,0,-1,-3,-2,-2,0,0,1
6550,4,-1,-1,-1,-2,-1,-2,-10
6566,-1,1,1,-1,-2,-3,-5,-25
6566,2,0,1,0,-1,-3,3,27
6567,-3,-1,0,-1,1,0,-1,3
6567,-2,-1,0,-3,0,-1,1,-6
6588,1,-1,-3,0,-3,-1,-2,6
6588,-2,-3,-1,-2,-3,-2,-5,-20
6589,-1,-1,-2,0,-1,-3,1,-3
6589,-6,-2,1,-1,0,0,-2,-6
6612,-3,0,-1,-2,0,0,1,-11
6612,3,2,-2,0,-1,0,1,-3
6613,4,0,-1,-1,1,0,0,13
6613,0,-2,-2,0,1,0,-1,-8
6625,-3,-3,-2,-2,-1,-2,-4,11
6625,-10,-2,0,0,-2,1,-4,1
6627,13,2,1,-1,-1,-2,-2,-5
6627,-1,0,-2,0,-3,1,0,-4
6657,-1,-2,-1,-2,-1,-1,1,11
6657,-4,-1,-1,-1,-1,-2,0,-37
6658,-1,0,0,-1,0,1,3,30
6658,0,0,-1,2,-4,-3,-2,1
6662,1,-2,-1,-1,2,-1,1,1
6662,1,-1,-1,-2,1,-1,-3,-10
6672,-5,-2,0,-2,-3,1,-2,-11
6672,5,2,-1,0,0,-1,-2,0
6686,-4,-1,-2,-2,-1,-3,1,6
6686,-8,-3,-3,-2,-1,-1,1,12
6688,-5,0,-1,0,-2,-2,1,-10
6688,0,0,0,-1,1,0,2,6
6709,-2,-2,-1,0,-3,-1,-1,-13
6709,1,-2,-2,-1,0,0,-1,14
6715,-5,-2,-2,-1,-1,1,-3,-3
6715,1,-1,-2,-1,-1,-1,-1,18
6722,4,1,-1,0,0,-1,-2,0
6722,2,0,-1,-3,0,0,2,8
6731,-1,0,-1,0,-2,-1,-3,-14
6731,-1,-4,0,-3,0,-2,-3,-9
6746,-6,-1,0,-1,-1,-1,0,5
6746,2,0,-1,-1,-1,0,-3,3
6747,-2,-1,-1,-1,-1,-1,-2,-3
6747,-2,0,-2,0,-2,0,0,-15
6768,0,-1,-1,-1,-1,0,2,14
6768,6,-1,1,-1,-3,-1,0,-4
6771,-4,-1,1,0,0,-3,-2,1
6771,-3,0,-1,-1,-2,-2,-3,3
6782,0,0,-2,-3,0,-1,-3,-5
6782,-1,1,-2,-1,-1,0,2,6
6790,-3,-2,-2,-1,-1,-2,-1,-1
6790,-2,-2,-1,0,0,1,0,-2
6807,0,0,-1,1,-1,-1,0,-14
6807,-2,0,-1,-1,-1,-2,2,14
6808,1,-1,-2,-4,-1,-1,2,-2
6808,1,1,-2,-2,-3,-3,-2,-4
6829,1,0,-2,1,0,-3,0,1
6829,-3,-1,-1,-2,-1,-4,-3,-5
6830,-5,-4,-1,0,-1,-1,-2,-16
6830,0,-2,0,-1,-1,0,-1,22
6852,3,-1,1,-2,-2,-1,-4,-10
6852,-1,0,0,0,-1,0,-2,2
6853,-1,-1,-2,-1,-1,-2,-1,-1
6853,-1,-1,0,-2,-1,-1,-1,-8
6882,-7,-3,-2,-2,-2,1,-1,7
6882,2,0,-2,-2,-2,-1,-3,-7
6889,-1,0,-1,-3,0,0,-3,0
6889,-2,0,-2,-1,-1,0,0,0
6890,-1,1,-1,-3,-2,-2,-2,-6
6890,-3,-2,-2,0,-2,-3,-2,-4
6892,1,-3,-1,0,0,-1,1,0
6892,-3,-1,-1,-3,-4,-2,3,-4
6902,-2,-2,1,-1,1,0,2,4
6902,-3,-1,-1,-1,1,1,0,1
6911,2,1,2,-2,-2,-3,-1,-5
6911,-11,-4,-2,0,-1,-2,-1,-5
6926,-3,-2,-2,1,-1,-1,-1,0
6926,1,0,-2,-1,-1,-1,0,0
6928,3,1,-1,-1,-2,0,-1,-1
6928,0,-1,-3,-1,-1,-1,-3,-5
6948,1,1,-1,-1,-2,0,-1,-4
6948,0,-1,0,-1,-2,0,1,6
6955,-5,-1,-2,-2,-2,-1,0,-3
6955,1,-1,0,-1,0,-2,-1,-1
6962,1,-2,1,-2,0,-1,-1,3
6962,-2,-3,0,0,1,-2,0,-4
6978,-1,-1,-2,-2,0,-1,-1,3
6978,2,-1,-2,-2,-2,-1,0,0
6986,-3,-1,-2,0,-1,-1,-1,-1
6986,-4,-2,-2,-2,-1,0,-3,-4
6988,0,-2,-1,1,-1,0,-3,-1
6988,-2,0,-1,-1,-2,-3,-2,-5
7009,-1,-1,-2,0,-1,-2,1,3
7009,-4,-1,-1,1,-1,-1,-1,-5
7010,-4,-1,-3,1,-1,-2,-4,-12
7010,13,4,0,0,1,3,9,41
7031,3,0,-1,-2,-3,-2,0,0
7031,-1,2,0,-2,-2,-1,-2,-1
7033,-3,0,-1,-1,-1,-3,-2,-6
7033,-6,-2,0,-1,-1,-2,-4,-14
7046,-3,-2,0,-2,-1,-2,0,4
7046,0,-3,1,0,-2,-2,1,-2
7048,1,-2,-1,-2,-1,-3,0,3
7048,0,-1,-1,-1,1,-1,-1,-5
7068,2,-2,-2,-1,-1,0,0,1
7068,0,-1,-2,-2,-3,-1,-3,-6
7070,-2,-2,0,1,-1,-1,2,2
7070,-3,-1,-2,-1,-2,-2,-1,-5
7083,3,0,0,-2,0,-1,-1,-6
7083,-1,-1,-2,1,0,-3,-1,2
7092,-1,0,0,-1,-1,2,-1,5
7092,-2,0,-1,1,1,0,-2,-5
7106,-4,0,-2,-1,-2,-2,-4,0
7106,0,-1,-2,-1,0,2,1,2
7108,2,-1,0,-1,-1,0,1,0
7108,-1,0,2,-2,-2,-1,-2,-8
7129,-1,0,0,-1,0,0,-2,-1
7129,-1,1,0,0,0,-1,-1,-1
7130,-3,-2,-1,-3,1,1,-2,-3
7130,-2,-1,-3,-1,0,0,1,1
7142,-1,-1,-1,1,1,-2,0,2
7142,-4,-2,-1,0,-1,-1,-1,3
7152,12,2,0,0,-2,0,-2,4
7152,-2,-1,0,-2,0,-2,0,-6
7166,-2,-2,-2,-2,0,-2,-2,1
7166,5,0,0,-2,0,-2,-2,0
7171,-4,-2,-1,-1,-3,-1,-2,-1
7171,-1,-3,-2,1,-3,-1,-1,-2
7189,1,0,-1,0,0,0,0,-1
7189,0,-2,-1,0,0,-2,-2,-2
7190,-3,-3,-2,-1,0,-2,-2,0
7190,1,1,1,-1,-1,0,-1,-3
7202,-4,1,0,-1,0,-1,-2,-2
7202,0,2,-2,-2,-2,-2,-1,0
7211,-3,-1,-1,1,0,-1,0,1
7211,-2,-2,-1,-1,-1,-2,-2,-2
7225,0,-1,-1,0,0,1,2,0
7225,-1,-3,-1,-1,-1,0,-2,0
7232,-9,-3,-1,-2,-2,-2,-2,-1
7232,7,2,-2,-1,0,0,-2,0
7248,2,-1,-1,-1,-3,-1,-1,1
7248,1,-1,-1,0,-3,-1,0,-1
7257,-9,-3,-1,-2,-2,-2,0,-2
7257,-1,-1,0,-1,0,-3,-2,-2
7262,-1,-2,0,-2,-2,-1,-3,-2
7262,2,0,-2,0,0,0,1,-1
7272,2,2,0,0,-1,0,-1,1
7272,-1,-1,1,0,0,-1,1,0
7286,3,-1,0,1,-1,-1,1,-2
7286,-5,-3,-1,-1,-2,2,-1,-1
7288,-1,-1,-2,-2,0,0,-1,0
7288,-3,-2,-2,0,-2,-1,-1,-2
7309,-6,-2,0,0,-1,-1,-1,0
7309,-2,-1,0,-2,1,-1,-2,-2
7310,-5,-2,-1,0,0,-2,-1,-2
7310,5,1,0,-2,-1,-1,-2,-2
7322,-3,-2,-2,-2,-2,1,0,-2
7322,-3,-2,0,-1,-1,-1,-4,-4
7331,2,0,-1,1,0,1,0,5
7331,-6,-2,-1,1,-1,-2,-1,-1
7345,1,-2,0,0,0,0,1,-1
7345,9,2,0,-2,-1,-1,1,2
7352,16,4,1,-1,1,1,2,0
7352,-1,-2,-1,-3,-2,-1,-3,-2
7368,2,0,-3,-1,-2,-2,-1,1
7368,-4,-2,-2,1,-2,-2,-2,-5
7369,-2,-3,-2,0,-3,-2,-2,0
7369,0,0,-2,1,0,1,1,8
7391,0,0,0,-2,-1,-1,-1,0
7391,-1,-1,0,-2,0,-2,-2,3
7392,-3,0,-1,-1,-1,-2,-2,-7
7392,-7,-2,-2,-1,-1,0,0,-3
7406,7,2,0,-1,-2,-2,0,3
7406,-2,1,0,0,-1,-2,1,-3
7407,-3,-2,-2,-2,0,-2,0,1
7407,1,-1,-1,-1,-2,0,-2,-1
7429,-3,1,-1,-1,0,0,0,-2
7429,0,-2,-1,-2,0,-1,0,0
7430,-5,-4,-2,-1,0,-2,0,-2
7430,3,-2,0,-2,0,-3,-2,1
7451,-2,-1,0,-1,-1,1,-3,-3
7451,-1,1,-2,-1,-3,2,-3,-1
7453,-4,-2,-1,-1,-3,0,-3,-1
7453,-3,-3,-3,0,-1,-1,-2,-2
7467,-2,-1,-2,-1,-1,-1,-1,-1
7467,0,-1,0,1,0,-1,1,0
7468,-2,-1,-1,-1,0,-1,-1,-3
7468,-3,-1,0,-2,-2,-2,-1,-5
7488,3,0,-1,0,-1,-1,1,7
7488,0,-1,-1,0,-1,0,-1,3
7491,1,0,-3,-2,-2,-1,-2,-2
7491,-2,0,-1,0,1,-1,-2,-3
7511,-12,-4,-2,-2,-2,-1,-1,-4
7511,5,0,1,-2,-1,-2,1,-2
7512,-1,0,-1,0,-1,1,1,1
7512,1,0,-1,0,-2,0,0,0
7533,-2,0,-1,-1,-2,-2,-4,-4
7533,1,0,0,-1,-1,0,-1,-1
7535,1,0,0,0,-1,-1,0,-1
7535,-3,-1,0,-2,0,-1,-1,-1
7549,-1,-1,-1,-1,3,-1,-1,0
7549,-3,-2,-4,0,-1,-1,0,0
7550,-2,-1,-2,-2,-1,-2,-2,0
7550,13,2,0,-1,-1,-1,0,2
7570,3,-1,0,0,-1,-1,0,-1
7570,-4,-1,-1,-3,0,-1,0,-1
7573,-3,-2,-2,-2,-1,-1,0,-8
7573,-6,-2,-1,-1,-1,-1,0,1
7585,-2,-2,-2,-2,-2,-1,-4,-9
7585,1,0,-1,1,-1,-1,0,14
7593,-2,-2,-2,0,-2,0,-3,-2
7593,-4,-1,-1,-1,-1,0,-3,-3
7609,2,-1,0,-2,-1,-1,2,-1
7609,-7,-3,-1,-2,0,-4,-2,-10
7610,0,0,0,-1,-1,-2,-1,2
7610,2,-1,-1,1,-1,-2,1,1
7631,-6,-1,-1,0,-1,0,-1,0
7631,-2,-1,-1,-2,-2,0,-2,-4
7633,0,0,0,-1,0,1,1,3
7633,-5,0,-2,-2,0,1,-1,-4
7653,-2,-1,-2,1,0,0,-2,-1
7653,3,0,-1,0,-1,-1,-1,-2
7656,-1,-1,0,-2,-1,0,-1,-1
7656,-5,-2,-2,-1,-1,1,0,-2
7669,-2,-1,-2,1,0,-2,0,0
7669,1,0,-1,0,1,0,-2,-1
7670,-1,0,-1,1,-1,-2,0,0
7670,-3,-2,-1,-3,0,-2,0,-2
7699,5,-1,-1,-2,-1,0,-1,2
7699,-3,-2,-2,-2,-3,0,-2,-3
7701,2,-2,-1,-1,-1,-4,-3,0
7701,-1,-2,0,-1,-2,-1,-1,0
7706,1,-1,-2,0,-1,-1,-1,-3
7706,-1,-2,0,-2,-2,-1,1,-2
7713,2,0,1,-1,1,-1,0,-2
7713,-3,-2,0,-1,-2,-2,-1,-1
7729,-3,0,-1,-2,-1,-3,-2,0
7729,-6,-1,-3,0,-1,-3,-3,-4
7730,3,0,0,-2,-1,0,-2,0
7730,-1,0,-3,0,-1,-1,1,0
7751,-1,1,0,-1,-2,-2,-1,-5
7751,0,-2,-1,-1,0,-1,-1,1
7753,-5,-1,-2,-1,1,-1,-3,-1
7753,-1,-1,1,0,-1,0,-2,-3
7766,-2,-4,0,1,-1,-1,0,2
7766,-5,-3,-2,-1,-3,-3,-3,-1
7772,5,-1,1,-1,-2,-2,0,2
7772,-3,-2,-2,-2,-2,-1,0,-3
7789,2,-1,-1,-1,-1,2,-1,1
7789,-10,-2,-1,-1,-1,-1,0,-1
7790,-4,0,-2,-2,-2,1,1,-2
7790,1,-1,-1,0,-1,1,1,0
7811,-1,-2,0,-1,-1,1,-1,-2
7811,-1,-3,-1,0,2,1,-3,-1
7813,-2,-2,0,-1,0,-1,-1,-1
7813,-16,-3,-3,-2,-3,0,0,-1
7825,3,1,0,-1,-2,-2,1,1
7825,1,1,-1,-1,0,0,0,-2
7833,-2,-1,0,0,-1,-1,-2,0
7833,1,-1,0,0,0,0,-4,-2
7849,-4,-2,-1,-2,0,-2,0,-4
7849,3,2,-1,-1,-1,-1,0,-1
7850,2,-1,-3,0,-2,-1,0,12
7850,2,1,-2,-2,0,-2,-3,-2
7871,-3,-2,-2,-2,-1,-1,1,-3
7871,6,0,0,-1,-2,1,1,0
7873,-7,1,-2,0,-2,-1,-1,-8
7873,1,1,0,0,-1,-3,0,0
7885,-1,0,-1,0,1,0,-1,1
7885,-7,-3,-2,-2,-1,-1,-1,1
7894,0,-2,-1,-3,0,1,-1,-3
7894,3,-1,-1,-1,-1,0,-1,0
7909,-3,-2,-1,-3,-1,-1,-2,-1
7909,0,-2,-2,1,0,-1,-1,-2
7911,1,-2,0,1,0,0,-1,-3
7911,1,-1,0,-1,1,-1,-1,0
7931,-14,-5,-2,0,-2,-3,-6,-4
7931,20,6,2,1,0,-2,0,1
7933,-3,0,-2,-2,-2,-1,-3,-3
7933,-4,-1,-2,0,-1,-3,-1,-7
7944,-4,-1,-1,0,0,0,-1,14
7944,-4,-1,-1,-2,0,1,0,-2
7954,-2,-3,0,-1,-1,-2,-3,-3
7954,2,0,0,0,-1,1,-1,0
7969,1,1,0,0,-1,0,-1,-4
7969,-8,-3,-3,-2,-1,-2,-2,-1
7971,6,2,-2,-1,-3,0,0,0
7971,2,-2,0,-2,-2,0,1,-3
7991,3,1,-1,2,0,-1,-1,-3
7991,-4,-2,0,-1,-2,-1,-4,0
7997,-4,-2,-1,-1,-1,-2,-4,-3
7997,-1,-1,-2,0,0,1,1,0
8005,1,-1,-1,-2,-1,0,0,-4
8005,-2,-2,-1,-1,-2,0,-1,-2
8014,-1,-2,-1,-1,0,-1,-1,-1
8014,0,0,0,-2,0,0,-2,2
8029,0,2,-2,-1,-1,0,-1,-1
8029,-6,-2,-2,-1,-2,-1,0,-2
8030,3,2,-1,-1,0,-2,2,1
8030,1,1,-2,0,0,-1,0,0
8051,-2,-3,0,0,-2,-2,-2,-8
8051,-3,-2,0,-2,-1,0,0,-9
8053,-1,-2,-1,-1,-1,2,5,13
8053,-2,-2,-3,0,0,-1,-4,0
8065,-1,0,-2,0,-2,-1,-1,-2
8065,-2,-2,0,1,-1,-1,-3,-7
8073,-9,-1,-2,0,-1,-2,-2,-7
8073,10,4,2,1,-1,-1,1,-1
8088,3,-1,-1,0,0,-1,1,-1
8088,-2,-2,-2,0,-1,0,-2,4
8091,-2,-1,-1,-2,-1,-2,-3,-2
8091,-5,-4,-1,-2,-2,-1,-2,-1
8112,0,-1,-2,0,-1,-1,-1,1
8112,2,0,-1,-1,-1,-4,0,4
8113,-2,-2,-1,-1,-2,0,-1,1
8113,-2,-1,0,0,-1,-2,0,-1
8133,-3,-1,-1,-2,0,0,0,2
8133,-1,0,-1,-2,-2,-1,-1,0
8136,-1,-1,-2,-1,-1,-1,0,-6
8136,-1,-2,-1,-1,0,0,-2,0
8148,-3,-2,-1,-3,-1,-1,-3,-3
8148,1,-1,-1,-2,-1,0,0,13
8150,0,-1,1,-2,-1,-2,0,-14
8150,-2,-2,-2,-1,-1,-1,-5,-17
8171,2,0,-1,-1,1,0,6,33
8171,2,1,-2,0,0,0,-1,-8
8173,-1,-1,-2,0,-1,-1,-2,1
8173,-3,-1,-2,-1,0,0,2,-6
8185,5,-2,0,-1,-2,-1,-3,-11
8185,-2,-2,1,-1,-1,-3,-2,1
8194,-5,-2,-1,0,0,-1,-2,0
8194,-1,0,-1,-1,-3,-3,0,5
8209,-3,0,-2,-1,0,-2,-4,-10
8209,-3,0,1,1,0,0,-3,-19
8210,-1,-1,0,0,-1,-2,-1,-12
8210,0,0,-2,-2,-2,0,2,39
8231,1,-1,-1,0,-2,-2,0,10
8231,-1,-2,-1,-1,-1,0,1,-3
8233,7,0,-2,1,-2,-2,-5,-13
8233,-4,-2,0,-2,0,-1,-2,-6
8244,4,-2,-3,0,1,0,0,-2
8244,-3,-2,-2,-2,0,-2,-3,-3
8254,-2,-1,-1,-1,-2,-1,-1,13
8254,-3,-2,0,-2,0,-2,-1,-19
8269,-2,1,0,0,-1,-1,-7,-21
8269,3,-3,-2,-1,-1,0,5,39
8271,0,-1,-1,-1,-1,-1,-1,-5
8271,-4,-1,-2,1,0,1,0,-2
8291,-4,-2,-1,-1,-1,-2,-1,-10
8291,-4,-1,-3,0,-4,0,-3,-15
8292,-2,-2,0,-4,-2,-1,1,6
8292,5,-1,-3,-1,-1,-2,-1,1
8305,-3,-1,0,-1,-2,-2,0,-9
8305,3,0,0,0,0,1,2,6
8313,1,-1,-1,0,-1,-1,1,8
8313,-4,0,-1,0,-2,-1,-3,-11
8329,-1,0,-1,-1,-1,-1,-1,9
8329,-4,-1,-1,0,-1,-4,-1,-2
8335,-1,-1,0,0,0,0,-1,-6
8335,-3,-2,-2,-1,0,0,-1,10
8351,-1,-4,-3,-2,0,0,-1,6
8351,1,0,0,-1,-1,0,-3,-3
8365,-1,-1,-2,1,-1,-1,-2,-6
8365,0,-2,-1,-2,-2,-3,-5,-7
8374,-1,0,-1,-1,0,3,5,4
8374,-1,-1,-1,-2,-3,-1,0,3
8375,0,0,-1,-2,-1,0,-1,4
8375,3,-1,0,-2,-2,-1,-1,-11
8389,-2,-1,1,-1,-2,-3,-6,-2
8389,6,2,0,0,1,0,-1,-3
8390,-1,0,-1,0,-1,0,-1,1
8390,-1,-1,0,1,-2,0,-2,-17
8411,-5,-1,-2,1,-2,0,2,36
8411,1,0,-1,0,-2,0,0,-1
8413,-1,-2,0,-1,-2,-1,-1,2
8413,-1,-1,0,-1,0,-2,-3,-9
8434,-1,0,-2,0,-3,-2,-4,-24
8434,4,2,-2,1,1,-1,3,32
8435,-6,-1,-1,-1,-1,1,0,-9
8435,-1,0,-1,-1,-1,-1,4,10
8448,1,0,0,0,-1,-3,0,-8
8448,-4,-3,-2,-3,-2,-3,-3,-10
8449,-1,-1,-1,-2,-2,-2,-3,-13
8449,0,-2,-2,0,-1,0,2,29
8471,0,-1,-1,-3,-2,-1,-1,-29
8471,-3,-2,-1,-2,0,-3,-5,-5
8472,-2,0,-1,0,-1,2,0,3
8472,0,0,-1,0,-2,-2,1,-6
8493,-2,-4,-1,-3,0,-2,0,11
8493,-4,-3,-1,-2,-2,-2,0,-13
8496,-1,-1,-1,-1,0,-1,-1,3
8496,1,0,0,-1,-2,2,1,11
8508,-2,-1,-2,0,-2,0,-5,-14
8508,-5,-3,-2,0,-2,0,-1,-11
8514,-4,-2,-1,0,-1,-2,1,42
8514,1,1,0,0,-1,-3,0,-7
8531,0,-1,-1,1,-2,0,-2,7
8531,-4,-2,-1,0,-2,-2,-8,-31
8532,3,-1,-2,0,-1,0,2,13
8532,-1,-2,-1,-1,-2,-2,1,1
8553,7,-1,-2,-2,0,-1,-2,-10
8553,-2,-1,-2,-1,1,0,1,16
8560,1,2,-1,-2,0,-1,-1,-13
8560,-3,-2,-2,-2,-2,0,-2,13
8568,-3,0,-1,-1,-1,0,0,-10
8568,-1,-2,-1,-1,-1,-1,-1,4
8575,3,-3,0,-2,1,-2,-2,-2
8575,-1,-1,-2,-1,-1,-3,-4,1
8591,-1,-1,-2,0,-2,-1,-8,-5
8591,8,3,0,0,-1,0,7,-8
8593,-3,-1,-2,-1,-1,-2,-3,-17
8593,8,1,0,-1,-1,0,6,26
8613,4,0,1,0,0,0,0,9
8613,-3,0,-2,0,-1,-1,-5,-17
8615,-1,-1,-2,-1,-2,-2,-3,-12
8615,-5,0,-1,-2,0,-2,-1,-23
8628,-2,-2,-1,0,-2,0,1,22
8628,1,1,1,-2,1,0,-5,5
8642,-2,0,1,0,0,-2,1,-14
8642,-5,-1,-1,-1,-2,-2,2,10
8650,-5,-3,0,-2,-1,-1,-1,-5
8650,7,1,0,0,0,-1,-1,-1
8658,-2,-3,-2,-2,-2,0,-2,-1
8658,-5,-2,-1,-1,-2,-1,-5,-8
8674,4,0,0,0,-1,1,5,4
8674,-1,0,-1,-1,-2,-1,0,0
8675,-1,0,-1,-1,0,-1,-1,-2
8675,-3,-2,-1,-3,2,-1,-1,-11
8687,-4,-1,-3,0,-1,-3,-2,-11
8687,-3,-2,-1,-1,-1,0,2,45
8696,0,-1,0,1,-1,-1,-2,3
8696,-3,0,0,0,-3,-1,-6,-15
8711,4,3,-1,0,1,1,6,29
8711,-2,-2,-2,-1,-2,-2,-1,-14
8713,1,1,-2,0,-2,-1,-4,2
8713,-6,-2,2,0,-1,-1,2,-11
8734,-1,-2,6,-2,0,0,0,-6
8734,-2,-2,0,-2,-2,0,-2,4
8735,11,3,0,-2,0,1,5,7
8735,-5,-3,-2,0,-1,0,-5,-8
8747,-9,-3,-2,-2,-1,-3,-3,-4
8747,8,2,1,1,-1,1,1,4
8757,-3,-1,-2,-3,0,-2,-3,-6
8757,1,-3,-2,1,-2,-2,-1,5
8779,-2,-3,-5,-2,-1,-3,-5,-24
8779,-9,-3,-4,-2,-1,-1,-3,36
8785,-2,0,2,-1,-2,-3,-3,4
8785,0,0,-25,-2,1,0,-1,2
8793,-2,-3,12,-1,-1,-2,-1,-4
8793,-6,-6,-1,-4,-1,-2,-3,-22
8795,0,-1,2,-1,-4,0,2,3
8795,11,3,3,-1,-1,0,1,10
8808,0,1,-12,-2,-1,-3,-4,-3
8808,2,-1,-2,-2,1,0,-1,-23
8817,-6,-2,-2,-1,3,-1,2,19
8817,-1,-2,0,-2,-3,-2,-10,-26
8831,-2,3,-3,-1,-3,0,0,1
8831,1,0,3,0,-1,-2,5,3
8833,0,0,-3,-1,0,-2,-5,-10
8833,-1,-2,1,1,-1,0,5,46
8853,9,2,3,1,1,-1,-4,0
8853,-6,-3,-3,-1,-1,0,-4,-3
8855,-2,-1,-3,-1,-2,0,2,-14
8855,-4,0,-7,-1,1,-1,-1,-6
8868,2,5,26,2,-1,-2,-1,-5
8868,-3,-9,-23,-3,-4,-3,-2,-8
8877,3,-1,7,-2,1,1,-2,3
8877,-2,5,12,-5,-3,0,0,-15
8890,4,-6,-11,-3,-1,-1,0,6
8890,-11,-1,-3,-1,-2,-2,-5,-10
8898,3,-1,5,2,-1,-1,2,4
8898,-1,0,1,-2,0,1,1,-19
8921,-7,-1,-8,1,-2,-1,2,5
8921,-1,0,6,4,1,-1,-1,5
8923,-6,-2,-1,-5,-6,-5,-6,-11
8923,0,-1,6,1,1,1,0,8
8927,2,-1,-8,-4,-2,0,3,6
8927,0,-3,-18,-2,1,0,-3,-16
8936,4,2,7,2,1,-1,0,-12
8936,-3,-5,-9,-2,-1,-2,-2,11
8951,-6,-5,0,-3,-2,-1,-4,-6
8951,-3,-1,1,-2,-4,-1,-2,4
8953,-12,-5,-10,-2,0,-2,-3,-5
8953,5,-3,4,0,0,-2,-1,-26
8974,2,-1,-16,-1,3,1,0,0
8974,1,-1,14,1,1,2,4,4
8975,-6,-3,-2,-1,-2,0,-3,-1
8975,-2,-2,3,-1,0,-1,-1,0
8987,-7,0,10,0,2,-1,1,2
8987,-7,-3,0,1,-8,-4,0,-8
9004,9,5,24,7,5,-3,-1,6
9004,2,20,18,14,0,0,2,6
9012,-7,-26,-10,-10,-13,-4,-7,-8
9012,1,3,-3,-7,0,2,-2,-10
9013,-7,-9,-7,-5,-3,0,-3,-20
9013,7,9,-2,2,2,-2,5,62
9034,0,8,11,7,7,-1,-1,7
9034,3,-4,-5,-3,-2,-2,0,5
9035,-9,-4,-13,-3,-3,-2,-5,-13
9035,5,-7,-5,-4,0,1,1,-9
9047,-4,0,-8,-4,-4,-1,-2,-18
9047,0,0,4,0,2,-1,1,17
9056,-4,0,-22,0,-2,-2,-1,-3
9056,-5,-9,4,-3,-1,-3,-4,-20
9072,2,4,-4,-2,-1,-1,-2,4
9072,13,5,-2,1,0,-1,-4,-16
9073,4,1,10,1,1,1,10,17
9073,-10,-7,-7,-5,-6,-4,-3,-6
9094,-1,-6,-12,2,0,-2,-3,-4
9094,1,14,18,1,-1,-1,-7,-19
9096,6,2,0,-2,1,1,2,21
9096,-8,-12,-17,-2,-3,-1,-1,-6
9107,-4,6,6,2,-2,0,0,-5
9107,0,-15,-16,11,13,0,0,12
9116,3,1,16,-12,-25,-3,-1,0
9116,-9,-2,7,-2,1,-1,-5,-10
9131,11,-2,0,-5,-1,0,0,7
9131,-5,5,-11,0,1,2,4,3
9137,-2,0,-4,8,7,-2,-3,-4
9137,-1,-5,-8,-2,-4,-3,-3,-16
9154,-7,0,-6,-3,-2,-2,1,-53
9154,20,4,2,-4,-1,3,7,45
9155,-3,-4,-7,0,3,-1,0,-12
9155,-4,1,-3,-4,-4,-2,-2,-5
9176,-8,0,0,1,2,-4,-10,-8
9176,-17,-5,-8,-6,-6,-2,-1,-26
9177,-2,0,11,1,0,-1,-1,7
9177,0,0,2,1,1,-1,-1,5
9191,1,1,4,1,0,0,0,-7
9191,5,0,-10,-7,-7,-7,-9,-6
9197,-7,3,-13,-5,3,0,-3,11
9197,0,-2,-6,-3,-3,-1,-1,6
9214,-2,2,2,0,0,1,1,10
9214,3,0,6,-3,-3,3,6,5
9215,-2,-2,-6,0,1,-2,-6,-21
9215,2,1,2,1,1,-1,-5,-40
9227,4,2,-2,-5,2,3,9,77
9227,-10,-5,2,-2,-8,-3,-4,-11
9237,7,2,3,2,-2,-6,-3,-8
9237,1,-6,-7,-4,1,3,3,0
9250,-2,-2,-47,-5,-3,-6,-3,-12
9250,-12,-5,24,2,3,-2,-5,-20
9257,14,-10,-1,-3,-3,3,6,20
9257,-5,-2,1,0,-2,-3,-8,-37
9274,-10,-3,-4,0,-1,1,7,44
9274,9,7,2,2,1,0,4,41
9275,-1,2,-6,-2,5,0,0,16
9275,2,-1,-4,-2,-5,2,3,8
9296,-10,-3,9,1,-3,-3,-2,-20
9296,-8,-2,-1,-3,1,1,-3,-54
9298,1,6,4,1,1,0,1,14
9298,5,-2,-2,-9,-1,-3,4,10
9311,-1,-1,10,21,6,2,-1,-24
9311,-8,7,33,3,0,-2,-3,-9
9319,10,-16,-6,-17,-17,-5,-4,4
9319,12,3,-4,2,2,-1,0,19
9341,-2,0,11,27,-12,-4,-5,-17
9341,23,1,-41,-14,7,-2,-2,6
9342,7,7,27,8,2,2,11,-9
9342,-18,18,8,-6,2,0,-9,-45
9363,16,-9,8,3,4,5,12,98
9363,-26,-4,-10,-1,-9,-2,-5,-11
9365,-23,-13,-44,-17,-1,-5,-14,-53
9365,4,-1,23,13,-2,-3,-3,3
9378,19,15,7,-9,3,0,1,17
9378,-11,-4,2,0,-6,-3,-1,-4
9380,-17,-9,-3,0,-4,-2,-4,-29
9380,-6,5,-8,-7,6,3,13,51
9394,-44,-3,-9,-15,-4,-5,-10,-42
9394,57,16,24,8,7,11,21,116
9395,5,-2,-5,22,-5,-6,-4,-35
9395,20,-10,-53,-27,-3,1,5,-4
9416,-25,-4,54,-12,-7,-6,-5,-61
9416,6,-14,-24,-12,-3,-4,-5,-29
9418,-5,9,-1,6,7,5,-8,-27
9418,-6,-3,7,8,1,2,10,78
9430,21,2,14,32,-3,-7,-9,-64
9430,-5,-12,-39,-65,40,8,42,72
9439,5,38,44,-6,-41,2,-4,-76
9439,-32,4,-16,-13,-26,-5,-15,-44
9453,30,-34,5,57,9,0,-21,-46
9453,-82,-2,51,-36,-16,-10,-13,-21
9456,-2,-9,-11,-2,19,-20,-10,17
9456,69,29,21,10,5,20,39,35
9476,-75,-23,-53,-29,17,-7,-21,-70
9476,-6,15,8,113,25,22,6,-38
9477,-8,-21,-4,-100,-19,12,7,74
9477,-1,7,89,51,-50,-40,-28,-86
9490,-25,-19,-23,-100,-18,-11,-3,21
9490,47,-17,-52,100,15,0,1,-39
9499,40,65,36,42,4,11,18,38
9499,9,-38,37,16,13,31,8,48
9513,13,15,-39,-108,-29,-10,12,30
9513,-23,52,51,35,-62,-24,-27,-71
9515,-2,-22,-61,54,14,-3,-8,15
9515,-22,-89,-99,-16,43,20,2,6
9535,-19,75,25,12,-14,-32,-12,-84
9535,25,-111,-39,-35,-7,3,29,89
9544,14,93,-11,62,33,9,-3,30
9544,-58,24,2,-86,-2,-9,-32,-23
9549,68,-9,-29,2,9,29,28,59
9549,-18,9,-11,-15,-6,2,-3,-37
9559,-18,-108,-38,-44,6,-4,10,-10
9559,-3,67,23,45,10,12,-7,-15
9573,7,40,98,124,-18,-19,-1,20
9573,11,22,19,-48,20,-16,-14,-37
9576,-16,-22,-65,-65,-41,-22,-10,1
9576,-1,3,-8,-16,-22,-21,-8,61
9596,-21,-56,-36,5,20,23,-5,-44
9596,43,14,20,22,14,23,19,14
9598,-14,-14,-11,28,27,20,-11,-25
9598,-8,-35,-31,38,6,2,14,-41
9609,16,-21,13,-64,36,66,10,15
9609,-21,1,-29,2,-4,-76,-26,-51
9619,-37,14,47,33,-82,-65,-32,-58
9619,3,-6,6,-7,-44,-8,-5,0
9641,20,-13,-40,-19,3,-16,26,58
9641,-42,10,36,52,6,13,-48,-126
9642,41,-1,-30,18,89,30,56,112
9642,13,10,45,42,-9,8,29,43
9657,7,-3,-38,-27,-36,7,-24,-70
9657,0,4,27,9,7,16,2,-40
9658,3,12,18,-12,-13,-2,8,-78
9658,-29,-17,-11,9,38,-6,-23,-69
9669,16,24,21,29,49,1,17,67
9669,32,7,-12,-32,-35,-9,-4,69
9684,-19,-29,10,-30,-22,19,-3,3
9684,-2,7,-19,-25,13,8,9,-38
9693,23,26,11,1,-23,-23,-22,35
9693,13,11,18,65,39,-1,17,24
9695,-10,-12,-34,-88,14,20,10,-35
9695,-2,-27,-9,-16,-46,-30,12,69
9716,9,29,-8,26,-28,-39,-44,-52
9716,-18,-4,3,-13,-5,16,-19,7
9718,0,-25,15,4,25,21,26,95
9718,15,42,10,-18,23,5,18,-20
9730,9,-4,6,12,13,10,11,0
9730,-15,-7,-55,-5,-2,-3,0,3
9754,2,9,80,107,-7,2,-8,-16
9754,18,-38,-47,-10,7,23,-5,-9
9755,1,24,6,33,25,8,-7,-16
9755,2,1,2,-3,10,2,-4,26
9756,-45,-3,32,78,3,-38,-19,-33
9756,23,-12,19,34,-93,-45,7,26
9776,-14,-13,-40,-47,28,-14,-26,-16
9776,-44,-16,-19,-87,-39,-3,-48,-92
9778,12,-9,-6,32,31,3,6,26
9778,23,30,39,26,36,12,-2,39
9790,1,-7,-8,-4,-18,16,20,20
9790,-3,7,42,34,30,26,64,27
9799,-11,-2,8,-31,33,6,1,-69
9799,-6,0,-82,-95,-81,-18,-20,-47
9814,-7,-16,8,29,12,12,-5,66
9814,14,-13,-28,-105,9,-13,-4,20
9816,13,8,17,-29,-61,-9,-10,11
9816,-18,4,-19,-24,33,-4,-10,-18
9836,-8,1,52,55,22,23,15,-12
9836,4,2,-23,-16,-5,42,32,44
9838,22,-10,12,21,-23,-17,-13,-24
9838,-9,10,12,-29,-7,-83,-40,25
9850,-21,-2,17,62,-48,-49,-19,-85
9850,44,-5,-35,-55,18,33,38,55
9859,9,0,-39,-3,47,84,-2,39
9859,-2,-4,36,127,63,13,44,91
9874,-48,8,81,53,12,6,-9,-104
9874,-13,1,-31,27,-75,-19,-29,11
9875,32,13,8,50,26,-43,29,81
9875,-34,-13,30,58,-67,8,-77,-112
9896,4,-6,-18,-4,43,1,10,95
9896,-19,-13,-20,33,-76,-76,-19,-92
9898,18,14,74,112,47,66,14,19
9898,0,-13,-82,-76,-35,-10,52,-24
9918,38,6,-3,62,-6,100,17,42
9918,-10,-3,104,123,27,-56,-53,17
9920,8,-4,-65,-74,-30,-100,-71,38
9920,-17,-8,6,-35,-22,-54,-28,-74
9934,12,2,3,-27,62,58,70,38
9934,15,-7,-51,-128,-48,35,84,42
9948,5,27,54,1,-23,-18,-22,-54
9948,-2,4,-17,-19,46,19,-37,-7
9964,-36,-26,-19,42,23,-51,-39,27
9964,29,14,25,-8,-14,7,-28,-91
9966,15,1,-36,-43,81,74,120,91
9966,7,-10,9,-57,-109,13,-35,-76
9970,-13,-15,10,37,17,-27,-19,-103
9970,-12,35,-15,47,32,16,39,3
9979,-21,-6,41,68,0,-25,-79,-69
9979,-7,0,-74,-79,-40,-49,19,-57
9993,-11,-2,4,44,39,62,13,-34
9993,-13,-28,12,51,-29,-75,-128,-45
0,-14,15,-25,-34,-35,29,107,55
0,32,30,51,79,126,110,57,0
16,14,-8,-39,-119,-13,-128,-6,70
16,-17,-20,61,82,-31,23,5,-13
30,-16,-13,-80,-104,-88,-17,-65,61
30,43,2,14,-27,22,-49,22,78
31,0,13,-24,-82,-37,76,39,-32
31,42,1,-41,-69,125,61,58,49
46,14,-9,16,11,-91,-110,-11,-74
46,-32,3,3,-27,-40,-61,-85,7
53,-8,-15,-7,18,42,53,-32,27
53,-5,15,64,80,63,32,51,36
55,-18,-5,-34,-29,-15,18,15,-76
55,10,5,-8,-34,47,90,41,25
76,19,7,-5,-13,-31,-14,9,4
76,-20,-26,-6,12,-25,-12,-13,-31
77,-2,11,0,-9,46,-17,-49,-17
77,8,-2,4,39,4,-63,-12,3
90,1,5,-14,-27,-38,-1,13,-16
90,4,1,-48,-128,-64,-4,33,30
98,17,1,9,43,2,22,7,-47
98,-18,-8,23,84,67,-28,-49,-57
113,3,-19,5,51,19,20,25,67
113,-19,11,-12,-44,74,26,-14,-67
120,5,-12,-45,-76,-71,-3,24,19
120,-26,-1,2,40,27,58,14,-73
136,9,3,-23,-56,-128,-56,-12,-20
136,-8,-7,7,11,64,-26,-59,1
138,-15,-1,49,53,81,67,-12,-5
138,3,-6,-38,-19,-42,-9,49,36
150,-32,-11,-41,-102,-13,-128,-50,-26
150,6,8,9,35,-53,13,-12,14
159,5,11,29,66,62,127,81,29
159,7,1,15,37,68,27,87,-26
172,-31,-11,-4,-29,-91,-60,-92,-78
172,-5,-3,24,89,-43,-78,-39,-26
182,-26,-17,-61,-91,11,-5,-45,-14
182,19,-3,25,43,34,127,80,90
197,21,17,13,15,50,83,87,-44
197,-7,-4,-10,23,0,-30,3,56
201,22,1,11,34,-27,-78,-49,37
201,-3,2,26,85,87,-25,-51,-8
220,20,7,-11,-78,-43,1,15,25
220,-2,-2,-23,-63,-66,-12,-41,-56
221,-22,-5,-1,1,-20,-43,8,-27
221,-41,-6,2,-8,-19,-15,-62,-69
233,14,9,32,83,94,106,90,70
233,9,-4,-28,-47,-54,-28,-66,-22
239,-14,-16,-7,14,58,-89,-39,-2
239,-14,-5,5,-76,-112,17,-43,-46
256,25,-7,10,118,96,81,33,60
256,17,14,-26,-72,-12,37,121,127
258,-20,-7,9,54,-34,-60,-77,-109
258,-3,2,3,34,-5,-30,-39,18
286,0,-8,5,-2,2,-46,-20,2
286,-4,0,-2,7,21,93,32,-23
288,5,5,12,12,26,-29,9,-3
288,-14,-6,-9,7,-24,47,42,14
293,-14,-1,-9,-54,-48,-91,-50,-8
293,11,-3,10,32,58,-41,-31,48
308,-2,0,-6,-101,-109,13,-15,-9
308,31,14,11,24,82,85,85,78
316,-14,0,5,29,45,68,45,-65
316,11,-4,-13,-29,-46,-88,-89,-27
318,2,-19,-5,-8,-27,-23,-13,26
318,-5,2,-5,-16,-24,-57,-26,-39
338,-7,2,14,20,60,102,16,4
338,-6,5,-12,-47,37,37,63,3
340,13,9,13,21,-20,19,33,-24
340,3,-6,-11,-23,-58,-99,-43,18
352,-4,-2,8,29,-22,-60,-40,0
352,-16,-10,-27,10,45,46,-5,-25
362,-2,8,-6,-26,26,41,33,0
362,-10,-3,20,15,4,12,9,-2
376,12,-6,-7,-33,-10,-25,-28,31
376,10,-6,12,47,19,61,36,16
378,-6,3,-2,26,-18,-60,-11,-19
378,-18,-7,-18,-46,-55,-63,-53,-42
399,9,-3,-6,-14,-35,17,-12,8
399,9,4,22,33,23,1,7,-36
400,1,24,0,1,45,53,67,5
400,-8,-27,2,29,29,1,-8,-16
412,-4,13,-4,-12,-44,-44,12,-51
412,-3,4,11,36,45,28,-1,17
422,-2,0,13,40,7,13,-19,6
422,13,16,-12,-27,22,60,39,43
435,-3,-6,-10,-22,-47,-3,-25,-24
435,-8,1,-6,-28,-76,-110,-45,-19
436,-4,-2,9,60,75,67,14,37
436,-2,-1,2,-45,31,102,14,25
474,6,-1,-14,-26,-42,-80,31,11
474,-16,-10,6,4,-60,-31,-34,-36
475,-30,-11,-8,-18,-20,-54,-41,-24
475,10,7,4,26,69,95,33,56
481,-2,8,-3,18,41,1,-3,-26
481,4,0,8,10,-16,-12,38,8
482,12,-13,-10,-21,0,-8,-32,-39
482,5,39,6,-11,-28,-82,7,26
496,12,-2,-3,19,3,7,0,88
496,-12,-4,2,4,22,44,6,-22
496,17,13,5,18,27,47,24,-28
496,22,6,10,7,-6,13,0,25
518,-9,-3,4,10,3,-27,-28,9
518,-20,2,8,15,26,59,62,-37
518,-4,-6,-5,21,-28,-82,-52,51
518,-12,-27,-17,-47,-105,-104,-59,-30
541,-15,-10,2,31,12,58,3,-17
541,11,-5,1,7,50,28,6,-4
541,2,-1,19,10,4,41,28,14
541,-27,-6,-38,4,24,-1,-76,-73
564,26,-6,-2,-11,-13,17,90,96
564,-17,-9,-5,9,-8,-47,-53,-83
564,5,10,-3,-16,-8,-9,9,-30
564,14,-12,4,11,-2,-17,15,30
578,-6,3,6,20,52,32,-22,-95
578,1,5,-4,-27,-31,-18,9,12
579,2,-4,-7,-46,-8,8,2,4
579,-6,-1,3,18,-23,39,26,-18
599,-16,-2,-10,-13,-36,-14,-41,-38
599,2,5,-3,-17,19,-36,3,25
601,-9,-9,6,-22,-31,-26,-7,-28
601,-1,-21,-26,-55,-9,6,-2,10
616,6,1,4,-4,12,-43,-16,20
616,-4,12,3,13,-15,29,10,-23
616,-1,10,-5,-6,-1,26,-9,0
616,8,4,13,43,49,-14,26,-12
638,-6,-2,-1,-6,-26,3,-19,-16
638,-5,-2,-7,-16,-8,-7,-5,5
638,-17,-5,-4,23,42,50,12,-36
638,22,16,12,9,-13,-39,5,39
661,-11,-3,-3,-41,-20,2,-25,-30
661,9,6,2,29,2,-3,-15,-9
661,11,-8,-16,-30,14,1,33,90
661,-2,-17,-6,-10,-50,6,-10,-8
676,-4,-4,-3,0,-10,-53,-9,11
676,0,1,7,26,36,18,-11,-65
676,3,-3,-6,2,-13,44,17,74
676,1,9,9,8,33,40,33,-39
698,-2,-8,-6,-8,-31,-94,-47,0
698,-8,-11,-8,-15,-23,-3,-16,12
699,-9,2,0,-1,-1,-4,19,-19
699,14,3,4,18,39,32,19,63
721,-3,8,5,29,18,72,25,5
721,6,2,9,16,26,-84,-29,5
722,-1,-3,-2,-36,-63,15,10,-24
722,-12,-4,-4,10,-16,-49,-23,-22
743,-9,-6,-2,-5,38,47,-8,49
743,-2,-3,-14,-41,-45,-16,4,3
744,2,-7,-9,-12,2,-5,3,6
744,-4,-8,2,20,13,0,0,-5
758,5,24,16,37,43,50,8,-46
758,0,2,0,-30,-22,15,25,33
759,13,10,4,18,-5,7,-11,-20
759,-4,-14,-9,-4,15,-45,-43,2
781,3,4,4,12,-21,-33,41,18
781,-7,2,1,9,-10,-17,-22,-15
781,-5,-9,-3,-8,-4,-24,-4,0
781,3,12,8,21,33,52,-5,-36
795,6,3,3,17,35,14,11,-14
795,11,1,2,-7,-23,22,25,50
796,-23,-13,-8,-10,-3,-10,-20,-87
796,11,8,5,22,28,28,29,82
817,-10,-6,-6,-28,-24,-54,-20,-31
817,-1,-9,-2,-13,-20,16,-3,-10
819,2,-9,6,20,4,-37,-31,-15
819,-9,-2,0,-7,10,52,11,-28
840,19,3,-7,-15,-6,0,24,39
840,-2,-5,-11,13,-1,-51,-20,58
841,-8,-4,0,-10,-13,-13,-24,-11
841,0,3,10,20,13,46,18,-5
863,-8,-10,-3,8,13,-8,-19,2
863,5,4,1,10,7,65,25,11
864,4,-8,-10,-9,-22,-105,-26,7
864,3,21,5,-17,-14,5,1,-13
879,-10,-3,-5,-9,-3,45,0,-33
879,5,-5,-5,-13,10,-12,22,51
879,1,5,4,19,0,17,-16,-24
879,-9,-14,-7,-23,-5,-38,-13,-26
901,-18,-11,-12,-32,-34,-29,-4,-28
901,1,15,3,13,25,21,0,-8
901,10,6,-3,-29,1,45,9,65
901,-7,-10,-1,18,0,-39,-13,2
924,4,0,2,-8,-39,-13,-10,-25
924,-3,-8,-6,-9,0,12,-4,-16
924,-7,4,4,9,5,-21,20,-1
924,-3,-1,-11,-14,-5,-23,-24,-12
946,-7,-5,-2,-5,1,57,-3,21
946,9,4,6,29,31,10,43,-12
948,14,8,6,34,24,28,28,8
948,-10,-8,-12,-64,-66,-72,-19,18
960,0,-5,-1,5,-8,-9,-26,-33
960,-5,-3,4,50,65,35,3,11
961,3,7,9,-16,-23,15,12,-36
961,6,-5,0,8,-18,-30,-7,-1
984,-10,6,-1,20,6,-1,7,-7
984,1,-6,2,-3,35,63,5,47
984,-2,-3,-6,-14,-14,-16,14,-3
984,-14,2,-3,2,-10,-23,-21,-21
1006,5,-12,-2,-15,-19,-22,-13,-42
1006,-5,-5,6,38,4,-24,-14,10
1007,14,10,-5,-8,16,49,19,-5
1007,10,4,4,7,23,33,21,-6
1020,8,5,7,21,26,4,7,21
1020,-8,-7,-11,-45,-95,-86,-23,17
1028,-17,-10,-8,0,-14,-45,-45,-29
1028,-4,-5,0,10,20,18,10,-35
1035,2,3,1,4,41,33,15,41
1035,2,4,7,14,6,26,12,-40
1037,1,17,-2,3,15,29,15,14
1037,1,6,0,-30,10,33,11,-36
1058,-1,-9,-6,9,-48,-65,-15,55
1058,1,1,-2,-5,-14,-7,-29,-6
1059,1,-10,-7,-10,-6,-14,-8,-8
1059,1,1,8,21,39,46,4,12
1081,3,17,1,-3,4,-81,5,-25
1081,-8,-10,-11,-40,-72,3,-13,-22
1081,-17,-3,-3,1,9,-5,-11,-25
1081,-1,0,5,16,2,-15,12,-10
1103,-1,-11,-2,1,17,49,-5,-5
1103,-16,-10,-7,-3,23,-11,3,-22
1104,26,25,9,13,28,26,30,42
1104,-7,3,3,12,3,28,-10,-46
1118,5,1,0,19,-9,-10,13,37
1118,-9,-7,-7,3,-6,-64,-25,-57
1118,-6,-11,-7,-34,-32,50,-6,5
1118,-1,1,-1,-12,21,-21,14,22
1141,1,4,-4,-14,-62,19,2,1
1141,-6,-7,-3,-16,-15,-50,-25,-38
1141,-6,-10,-4,18,39,21,9,14
1141,-1,4,2,14,21,20,3,7
1156,-1,-3,1,-8,3,-15,-14,11
1156,0,0,-1,-7,-3,-22,18,-2
1158,-11,-4,4,15,18,-7,-40,-31
1158,18,-5,-7,-33,-27,20,38,38
1178,13,-5,-7,-15,-9,41,10,-13
1178,6,-1,5,0,-6,-9,-4,4
1179,-12,19,-3,27,34,28,5,-12
1179,2,0,-2,-10,-29,-62,-25,-15
1201,-11,-7,-5,-35,-56,-56,2,-33
1201,3,0,-2,-7,10,42,-11,10
1201,8,6,4,11,31,4,7,-1
1201,-8,1,-3,7,12,34,2,-4
1215,2,3,2,2,-5,10,4,1
1215,0,0,-4,-2,32,30,2,21
1216,-11,-11,0,5,-12,-32,-7,-25
1216,-4,1,2,21,-28,-50,-15,12
1238,2,-1,-1,-13,1,37,3,23
1238,-5,4,-1,-2,17,5,6,-18
1239,6,-12,-1,-12,8,48,0,-4
1239,6,14,-1,2,-30,-86,-6,87
1262,-8,-1,0,18,17,4,-11,4
1262,5,0,-3,-7,-13,31,3,24
1262,-9,-10,-5,-7,-7,-72,-19,-7
1262,-7,-4,-4,-5,4,38,15,-32
1284,7,6,8,25,21,-9,-11,-9
1284,6,2,-6,-24,-4,11,10,10
1284,8,-4,-1,-5,-22,5,13,16
1284,-14,-6,0,15,33,33,-15,-39
1306,3,7,10,15,18,32,9,-2
1306,-5,0,3,2,-17,-62,-17,-9
1306,0,-7,-8,-40,-35,-6,2,-4
1306,-10,-10,-7,-13,-34,-53,-25,-15
1320,3,3,4,14,49,67,17,-9
1320,5,3,4,18,35,66,18,-4
1328,-3,-1,6,27,14,0,10,23
1328,0,-5,-1,-17,-54,37,1,-12
1335,-11,6,-9,-18,-9,-115,-27,-17
1335,1,2,0,-7,-39,-24,-19,-4
1337,-6,-11,-6,-15,-7,-32,-8,-10
1337,12,9,11,20,54,90,29,52
1357,-1,0,1,1,21,35,-1,-18
1357,8,0,5,47,16,7,31,10
1358,-5,-3,-11,-26,-47,-27,-35,12
1358,-13,-12,-11,-42,-36,-85,-21,-54
1381,-8,-4,-2,10,1,9,-6,-9
1381,17,9,12,21,53,68,25,17
1382,-1,-3,0,5,37,31,31,12
1382,2,1,-4,-23,-56,-8,0,-21
1396,-20,-15,-10,-10,24,-56,-44,-24
1396,-8,-4,-3,-37,-42,-19,-3,-63
1397,5,-3,-3,-6,-38,-29,-6,-10
1397,-1,-1,-2,5,30,46,-3,18
1418,0,-3,0,3,5,-20,-2,10
1418,-21,-2,1,3,21,28,-14,-82
1420,13,6,3,2,-1,0,18,36
1420,2,-2,2,16,14,-22,7,2
1441,4,-1,3,12,-19,10,-13,1
1441,-5,-3,-9,-25,-15,17,-7,19
1442,5,5,8,29,41,-6,4,-57
1442,-2,-1,1,1,-12,-33,-6,6
1456,6,5,-2,-33,-42,-9,1,10
1456,-6,-4,-10,-23,-5,-43,-11,5
1456,-4,-8,1,12,1,43,18,-1
1456,-1,-12,-10,-14,-5,-23,-22,-2
1480,7,6,-2,8,17,21,12,28
1480,4,1,5,12,-9,18,22,24
1481,-3,5,-1,-4,7,-17,-1,8
1481,-1,-2,4,18,30,2,-6,-30
1501,3,-1,0,-10,-18,12,23,22
1501,7,5,4,13,1,-5,-13,-28
1502,-9,-3,-4,-18,-13,-2,-9,-16
1502,-13,-3,-2,7,34,-24,-15,-6
1516,4,-2,-5,-47,-55,5,5,20
1516,-9,-7,2,12,32,27,-11,14
1516,-2,-3,-7,-20,-33,-16,-2,3
1516,5,5,1,-7,-49,-39,-13,7
1538,-12,-10,-4,9,17,-2,-7,-67
1538,-4,-5,-2,20,27,20,15,-3
1538,14,11,3,-3,-24,51,-11,94
1538,6,6,3,23,38,-55,16,4
1561,-3,-2,-2,-18,-11,8,3,-2
1561,-6,-4,-4,-10,-21,15,-16,-10
1561,-7,-9,2,15,40,-27,-6,-28
1561,9,2,2,-1,-10,40,24,19
1575,-4,-5,-3,6,-22,-33,-10,-11
1575,-10,2,-2,4,32,-33,8,17
1575,9,-1,0,1,-5,19,16,2
1575,-3,-4,-7,-23,-51,-44,-34,4
1598,-10,-4,-4,8,14,30,-5,-51
1598,12,6,3,13,26,9,21,-21
1598,-9,1,-1,-8,-6,-41,3,1
1598,1,-2,-1,8,-6,32,-10,0
1629,5,-1,0,-9,3,-22,7,2
1629,-6,-5,-5,-8,-2,47,-17,-3
1629,2,7,5,12,-1,-33,9,-34
1629,1,6,9,29,35,22,17,6
1644,-9,-2,0,13,5,11,-8,-65
1644,12,-3,-9,-32,-70,-69,-15,91
1644,2,-3,1,12,43,48,14,-10
1644,-11,-3,-3,-8,-17,36,17,-5
1667,12,-4,2,6,29,46,-1,21
1667,0,10,0,-3,-5,-98,-24,-4
1673,-2,1,-3,-8,-50,-1,-25,-15
1673,-4,-5,-6,2,36,34,1,5
1689,1,5,3,2,16,24,2,-3
1689,9,-1,1,10,-14,-11,29,22
1697,-7,-9,-13,-43,-43,11,-5,-16
1697,0,0,-2,0,11,-28,0,37
1699,-8,-5,-3,-6,5,-5,-23,7
1699,-1,1,6,27,38,42,12,21
1702,8,9,5,24,32,3,13,0
1702,-5,-3,-5,-41,-79,-13,-14,-28
1718,-10,-7,-10,-14,-23,-60,-6,19
1718,6,2,-3,6,32,46,13,41
1719,-7,-1,0,8,22,-19,-1,-4
1719,-2,-3,-4,-33,-32,38,-6,-36
1741,1,0,0,12,17,-12,-2,0
1741,-7,1,3,2,4,-20,2,-41
1742,1,-1,0,-7,-19,-16,-28,2
1742,-5,-1,0,9,26,5,13,8
1755,8,10,5,-14,-4,18,14,-10
1755,-6,-12,-10,-2,-38,5,7,-24
1756,4,-4,-2,5,28,43,-12,53
1756,-1,-1,1,14,17,-55,-13,-9
1778,9,-1,4,-1,-2,27,13,5
1778,-2,17,0,-4,-18,-23,-8,-76
1778,-5,-6,-4,-10,-21,-19,2,3
1778,0,-6,-3,10,7,-17,-9,3
1801,-7,-1,5,18,42,40,7,5
1801,1,1,2,-15,-21,45,8,22
1816,8,6,6,29,4,-78,-15,-35
1816,6,2,-2,-5,10,36,12,41
1817,-8,-8,-10,-24,-27,-42,-21,-4
1817,-2,-6,0,-3,5,-37,-17,4
1822,-7,-2,3,25,21,76,18,0
1822,17,6,4,-1,8,-1,1,12
1846,-5,-5,-7,-12,-18,-15,-10,-3
1846,-14,-6,-2,18,39,23,0,-5
1847,6,4,1,-8,-24,-5,30,14
1847,-4,-6,-8,-11,-69,-116,-79,-49
1861,4,1,-1,22,7,3,26,47
1861,7,2,3,25,45,50,9,16
1861,-7,-2,-4,-17,-29,-24,14,-1
1861,-1,7,8,31,50,103,38,-1
1874,7,4,2,9,-9,20,-23,-19
1874,-3,-8,-10,-25,-60,-94,-34,-12
1891,-10,-9,-6,1,12,-23,-11,-10
1891,10,14,3,-12,-7,44,13,16
1898,-8,-3,0,6,13,28,2,2
1898,9,2,2,1,2,-49,13,-36
1899,-7,0,-4,-12,-3,41,-26,-37
1899,-4,-8,-6,12,25,3,17,-12
1921,1,1,1,-17,-23,-15,4,-8
1921,-8,-7,-5,-21,-5,34,-18,3
1922,3,-4,-5,-11,-5,33,5,22
1922,-1,-2,4,26,7,-35,-4,14
1936,5,9,4,1,-29,-23,23,-43
1936,-11,-12,-12,-29,-55,-45,-28,2
1951,0,1,0,7,20,-15,-11,16
1951,1,-1,0,-8,41,78,13,13
1973,2,4,-1,6,-2,-27,0,11
1973,6,4,10,35,44,28,10,38
1974,-3,-3,-6,-46,-13,6,4,-26
1974,-11,-3,-7,-22,-57,-67,-3,-28
1989,-4,-4,1,-1,3,27,-14,24
1989,-8,-2,-6,-8,11,-16,-2,-24
1990,-1,-2,-3,2,-5,-22,-2,0
1990,-2,1,1,9,18,-21,-14,-11
1995,2,1,-1,-13,3,21,25,36
1995,-3,-3,-1,1,-19,17,10,-20
2003,-1,-2,-1,6,5,-11,-19,-7
2003,-10,-3,-4,-13,6,-16,-1,-5
2018,1,-2,0,40,30,19,3,-10
2018,-10,-6,-3,-27,-41,-21,-5,-32
2019,4,-1,-4,-12,-28,-10,-12,50
2019,7,-3,-2,3,3,-2,4,2
2049,-3,10,4,11,47,12,-3,-51
2049,11,1,-1,-21,-11,13,26,79
2050,-1,-5,-3,-6,-36,-44,-25,-23
2050,-13,-8,-2,14,7,-6,-18,-14
2055,5,2,2,-6,-11,10,17,8
2055,-16,-4,-2,6,11,-8,-24,-15
2063,3,6,8,9,31,28,26,-7
2063,7,-3,-5,-15,-30,18,17,-3
2079,-9,-7,-3,8,-21,-72,-34,8
2079,7,5,6,22,41,21,11,2
2079,-4,1,2,-1,24,18,15,-14
2079,-3,-1,-2,-14,-14,86,3,-18
2101,-1,-9,-6,-14,-37,-99,-23,-13
2101,4,2,4,12,34,43,10,-23
2108,0,1,2,24,17,-3,-20,-9
2108,2,1,-6,-39,-56,-28,7,2
2124,-4,-6,-7,-8,-3,26,5,-6
2124,-1,-4,-3,2,35,38,-30,9
2125,0,-7,6,-7,-5,-10,42,-1
2125,-7,-2,-5,-8,-34,-16,-4,-9
2138,-10,-8,-7,4,4,-35,-40,-12
2138,7,4,4,9,-3,-25,6,-11
2138,8,-2,-1,-6,-6,44,8,67
2138,1,-1,5,21,27,6,26,48
2160,1,-3,-4,-12,13,4,3,3
2160,-5,1,-3,-3,-42,-7,-19,-4
2162,-1,0,-3,10,6,-11,-30,-11
2162,0,1,1,3,4,-42,7,-2
2183,10,5,2,18,63,109,29,25
2183,-6,-3,-1,-8,-36,-49,24,-7
2184,0,3,-3,-16,-47,-26,-10,-8
2184,-8,-9,-5,7,14,-33,-52,-48
2198,-10,-6,1,2,26,42,10,38
2198,10,2,-7,-21,-36,-17,24,8
2199,-8,-4,-3,11,-1,-13,4,-26
2199,3,1,1,-10,-8,5,-3,-8
2221,1,-4,-1,3,1,-6,0,-18
2221,-2,-4,1,9,31,70,-13,9
2222,-8,3,1,24,45,-40,5,-7
2222,12,5,-2,-23,-46,-23,2,13
2251,-6,-4,-5,-13,-44,-21,-14,19
2251,5,2,1,-7,12,35,6,8
2252,-8,-4,-5,10,2,5,4,-34
2252,-11,-3,-1,20,43,-25,-30,-34
2267,11,0,1,-13,-32,23,31,56
2267,14,14,3,-21,-30,-5,15,-3
2267,0,-9,-3,-2,0,44,-27,-12
2267,9,4,8,11,45,-60,19,14
2288,-3,-1,2,22,13,18,-3,-27
2288,-7,-13,-14,-30,-19,-4,-15,-6
2289,10,8,3,-9,-8,-30,9,21
2289,1,2,1,1,-19,119,11,-2
2320,-11,-4,-3,-5,0,-117,-25,-56
2320,0,3,3,17,33,23,-2,-33
2320,-5,2,-3,-14,9,7,6,25
2320,-5,-2,1,13,-13,26,1,-4
2322,-8,3,-1,11,-1,-25,-15,-27
2322,-1,-6,-7,-40,-44,-26,-15,0
2325,-3,-1,1,8,25,23,-16,-21
2325,16,6,5,11,38,14,53,43
2349,-5,0,0,-2,-21,-23,-18,-13
2349,-7,-5,-5,-6,-35,-32,-9,11
2349,0,-5,2,27,49,88,11,14
2349,15,8,5,-10,12,-49,3,13
2364,3,1,-3,-28,-41,23,19,-6
2364,-3,-6,-5,23,21,-7,-30,-12
2364,-5,-4,-5,-40,-49,-28,-4,-2
2364,-7,-2,0,8,14,-1,3,-25
2380,3,0,0,-2,30,49,3,13
2380,-2,-7,-6,-23,-30,-35,6,-3
2380,-4,17,3,3,2,7,-6,-26
2380,-21,-8,-10,-8,-21,-59,-41,-13
2401,2,-2,-5,-10,-3,-8,-10,22
2401,3,3,5,15,19,25,21,28
2402,7,-1,1,8,8,77,20,9
2402,-1,-1,4,33,39,-53,0,3
2424,3,4,3,-36,-43,24,13,3
2424,-8,-2,-1,6,-19,-40,-15,-10
2424,-12,-12,-10,-17,-31,-49,-42,3
2424,2,3,3,-3,24,11,12,0
2437,1,-3,-1,10,-2,12,3,-5
2437,-2,1,8,15,25,23,7,2
2438,5,-2,-1,-4,-5,-3,24,20
2438,3,-2,1,20,24,51,-11,2
2461,7,4,-2,-4,-1,-41,22,0
2461,-8,-2,-2,-1,-22,28,-10,-18
2462,-2,-2,-2,3,-7,-34,-17,61
2462,-11,-3,3,27,31,33,19,-10
2484,14,1,-5,-33,-44,-32,-13,12
2484,7,-2,-7,-18,-13,-5,3,6
2485,-10,-2,2,11,29,-8,16,-39
2485,12,0,-4,-21,-87,-6,-28,57
2498,-13,-7,-3,16,18,-41,-11,-15
2498,-3,-2,-1,8,38,24,0,2
2498,8,1,0,-2,13,10,12,-6
2498,-6,-2,2,-9,25,87,20,-15
2520,0,5,1,19,-10,-33,4,-11
2520,18,9,7,-5,7,-2,5,3
2536,-9,-8,-4,8,-11,-10,-2,-4
2536,-12,-8,-7,-30,-55,-89,-38,-16
2545,-9,-6,-4,-7,12,43,-6,-13
2545,-3,1,0,18,35,13,9,-42
2546,-3,0,-4,-21,-43,-74,-17,15
2546,2,-1,-1,22,33,52,7,-16
2557,4,3,1,-23,30,43,10,12
2557,-5,0,2,7,-10,-42,17,14
2566,-6,-2,1,11,-12,27,-27,-33
2566,4,-1,-5,-15,11,-24,9,15
2588,3,-1,-4,-15,-36,6,3,-9
2588,1,-3,-3,8,4,-11,-25,12
2590,1,2,2,-5,1,15,-6,0
2590,-3,0,-1,-4,20,31,-9,-24
2604,-1,1,1,9,-2,-48,17,-18
2604,-2,-1,-1,-5,-27,3,-4,8
2605,-9,-7,-4,1,16,-16,-5,-16
2605,2,4,3,9,-6,11,4,-1
2626,-5,-3,-4,0,-1,22,-9,-23
2626,-10,-5,-3,-15,-10,-45,-6,9
2627,18,4,2,2,-10,-6,4,6
2627,-9,-10,-3,-4,3,17,-9,-22
2649,4,-2,0,-3,13,12,13,6
2649,-2,4,0,8,8,10,-18,-4
2650,-1,-1,1,24,11,-29,17,-11
2650,1,-1,-4,-42,-43,-23,10,8
2671,-3,-4,2,20,20,15,-17,0
2671,-5,-4,-1,-4,6,-2,6,0
2672,10,7,1,-2,6,31,3,-14
2672,-9,-5,-4,1,-8,-35,-5,-21
2678,-2,-4,-1,18,-14,-6,-8,17
2678,3,-1,-1,6,23,48,13,17
2693,-3,-1,-1,-18,3,-19,-7,-8
2693,5,2,-1,-11,-39,-18,-3,8
2701,-1,5,4,11,30,43,-2,-6
2701,-2,-1,-2,-8,-5,-3,7,69
2702,1,-3,-2,14,-14,-41,7,-3
2702,-2,-1,-4,-14,-9,-5,-19,-3
2723,-7,-1,-1,-1,20,24,6,-15
2723,9,3,3,6,5,19,8,-18
2724,1,1,3,-5,26,6,15,0
2724,-5,-1,-2,10,-9,16,6,1
2737,-4,-4,-5,-12,-50,-69,-31,9
2737,2,0,-2,0,3,-2,6,1
2745,-7,-4,-3,-26,-18,51,7,3
2745,7,7,5,18,28,-8,7,2
2762,-15,-14,-10,-12,-3,2,-1,-3
2762,5,22,13,27,12,-8,4,-11
2762,-1,-4,-1,-2,-1,-1,-22,-48
2762,-3,-4,-5,-3,-13,-11,6,5
2783,-6,3,2,5,17,-23,-12,-25
2783,9,-1,5,17,3,-1,9,29
2785,-9,-2,-3,5,26,39,-2,-13
2785,-9,-6,-1,16,-21,-48,-12,-9
2807,6,1,-2,-24,-21,41,5,11
2807,-7,-7,-3,-8,15,-21,-9,-31
2807,14,3,3,-2,-23,8,14,35
2807,7,-5,-1,-1,23,-7,-1,14
2820,-2,3,5,9,-7,-36,-4,0
2820,-14,-9,-6,-2,-13,10,-1,-49
2822,2,3,3,22,19,5,3,13
2822,7,4,-3,-9,-5,49,15,81
2843,2,0,1,5,1,-11,0,-2
2843,-13,-6,-5,-11,-18,-5,-24,-28
2844,-5,-5,1,24,16,-45,-3,-5
2844,-7,-3,-2,2,15,61,9,-10
2858,18,9,0,-34,-32,-27,0,26
2858,3,-2,-2,-11,1,-2,14,13
2865,-12,-7,-12,-35,-59,-57,-30,-24
2865,13,7,4,9,44,53,21,-3
2880,0,0,3,15,14,15,1,7
2880,-1,-4,-2,23,11,-24,-4,-2
2880,-1,-3,-8,-41,-39,14,-20,-4
2880,-12,-2,-2,-10,-14,-74,-16,-31
2911,-6,-3,3,32,41,72,20,-2
2911,17,6,3,14,3,-1,12,17
2911,-2,0,-2,-12,10,26,16,-36
2911,0,-2,0,-6,-32,-13,-13,35
2917,-5,-4,-3,-16,-18,-66,-35,-13
2917,-5,-6,-6,-16,-8,-25,-5,11
2925,1,1,3,16,20,9,0,-8
2925,6,1,2,2,4,49,26,0
2941,5,4,8,12,30,-6,11,0
2941,-5,-2,-5,-2,-18,-30,-25,0
2941,10,4,6,6,9,32,4,20
2941,1,3,1,10,29,25,15,-11
2964,-4,-2,4,8,-10,-6,1,2
2964,-6,-9,-8,-27,-45,-18,-15,-24
2965,-4,-3,-1,0,-14,-56,-24,6
2965,-15,-9,-6,23,40,9,-15,-32
2979,13,5,0,-14,-9,40,18,8
2979,0,0,-1,-2,-9,-17,1,-7
2993,3,1,-3,-8,-5,18,7,12
2993,4,6,7,26,4,-30,-6,-23
3001,-1,-3,-4,-6,3,8,6,25
3001,0,0,-1,-17,-21,5,13,3
3001,-4,-3,-1,6,15,1,-14,4
3001,-5,-3,-4,-8,-36,-45,-20,-18
3024,0,-1,-1,24,34,34,10,2
3024,5,-1,1,-6,4,12,-3,14
3025,-1,-2,1,16,27,27,22,24
3025,2,6,2,-24,21,23,-13,-33
3037,-6,-3,-4,-17,-43,-42,3,-18
3037,-1,-5,-5,4,-25,-29,-21,10
3046,-10,-6,-8,-14,-7,-17,-11,-31
3046,-9,-6,-7,-4,-13,-19,-5,-6
3061,4,2,1,10,9,40,3,1
3061,0,5,7,-4,30,31,16,-4
3061,3,1,2,3,-5,-10,3,10
3061,-1,-2,-3,10,-8,1,3,-2
3084,-1,-2,-1,-9,0,-14,-13,-3
3084,-15,-5,2,22,45,28,-2,-66
3085,18,8,7,-9,-19,62,20,24
3085,-4,-6,-9,-38,-40,-85,11,10
3106,-12,-9,-11,0,-22,-60,-37,-44
3106,3,-4,-2,4,14,5,-14,41
3108,-7,-4,-7,-22,-3,6,3,4
3108,9,3,5,6,8,35,18,19
3120,-9,-3,-4,1,-1,-17,-7,-19
3120,-6,0,-2,1,2,29,7,-1
3122,10,4,4,8,8,-34,-9,3
3122,1,-3,-1,-1,-18,-28,-14,11
3143,-11,-4,-7,-13,-25,-32,-16,-2
3143,3,-1,-9,-63,-36,13,5,12
3144,2,3,6,37,32,29,11,-21
3144,8,4,6,8,33,52,24,7
3166,-2,-2,-2,16,2,7,7,-10
3166,12,5,3,23,15,-26,12,44
3167,-14,-3,-3,-6,-18,-22,-15,-37
3167,0,-4,-12,-38,-23,60,6,0
3181,-2,-3,-2,-12,2,-59,-5,15
3181,3,0,3,0,9,-21,-29,-19
3188,-7,-8,-17,-38,-77,-55,-12,-19
3188,-6,-3,-1,4,-6,10,-10,6
3204,-1,-3,0,11,31,59,21,9
3204,15,7,0,-10,11,25,37,-37
3205,-5,-8,-2,12,5,-10,8,18
3205,-2,-3,-2,-4,-30,-62,-60,-15
3226,-2,0,1,4,32,61,-2,-31
3226,-8,-2,-2,-15,-18,-59,20,39
3228,5,1,2,8,25,52,11,-5
3228,8,3,1,8,-6,54,18,14
3240,13,6,1,8,0,-48,-1,5
3240,-21,-10,-11,15,-32,0,-18,-31
3241,-3,-5,-10,-13,6,-39,-29,22
3241,-6,0,3,-10,3,-23,15,-3
3264,1,5,6,-11,8,42,-20,-14
3264,15,4,8,14,8,39,40,85
3265,5,3,5,15,-9,-49,-7,-14
3265,-4,-5,-4,5,-15,-12,-13,-21
3287,-9,-2,-1,15,48,39,-20,4
3287,-3,-1,4,-10,-3,-18,15,-28
3288,10,7,7,-9,-14,24,9,14
3288,-12,-10,-8,6,-17,-51,-25,12
3300,5,-2,3,8,-10,-6,20,13
3300,4,13,4,-2,73,53,-9,-5
3308,1,3,0,-10,-8,26,21,15
3308,-10,1,1,2,-16,-22,-6,-39
3324,7,-2,-3,-7,-17,-59,-26,43
3324,-16,-10,-6,5,-10,40,-8,-25
3326,-10,-7,-3,17,2,-69,-14,-51
3326,12,4,2,-13,6,17,-8,31
3346,8,1,-4,-18,-42,-14,12,-9
3346,-10,-4,0,21,14,15,6,-6
3347,-5,2,1,-2,2,29,-3,-22
3347,-5,-6,-1,-1,32,0,10,11
3360,-9,-3,1,21,-30,-7,-10,-17
3360,21,9,5,-1,-3,-25,-10,12
3368,-8,-3,-1,-12,14,32,17,0
3368,10,3,4,22,37,18,7,39
3384,-5,-4,-4,-3,-6,32,25,4
3384,-1,-2,-5,-25,-47,-44,-34,-9
3385,-9,-5,-3,14,23,-4,7,19
3385,-2,3,-1,-21,-13,-36,-10,-52
3406,-8,-8,-6,5,15,-15,-8,10
3406,6,-2,-2,-2,-43,8,-2,0
3413,9,6,3,2,40,48,21,2
3413,-2,3,1,1,-1,6,10,-11
3420,-12,-3,-3,-5,17,21,0,-19
3420,10,3,2,-8,-13,-49,-36,38
3428,5,1,5,39,-21,-40,12,18
3428,-3,-15,-4,-4,-7,37,17,5
3443,6,30,1,-30,23,63,10,7
3443,-8,-9,-3,24,22,-69,-17,-5
3446,-10,-2,5,0,-53,61,2,-2
3446,-3,-4,-5,-9,-14,-57,-1,-28
3466,15,-3,2,-10,6,-32,-13,65
3466,-5,-1,5,42,49,39,8,-31
3467,11,1,-15,-75,-75,-46,-9,12
3467,4,3,5,6,4,21,13,-15
3480,-14,-9,-2,5,5,48,6,-31
3480,-8,2,4,30,47,1,15,-16
3489,6,-7,-3,13,22,12,-14,37
3489,-7,-5,-4,0,-41,-44,-17,60
3503,-7,-3,1,1,-16,3,-13,-12
3503,1,-6,-4,-14,4,12,18,-10
3511,2,18,4,18,13,4,-4,-11
3511,-4,-3,-8,-10,27,-20,-37,-16
3526,4,2,12,36,-15,-30,23,-24
3526,-19,-12,-19,-60,-79,-7,-29,-19
3528,-6,-5,0,-8,21,-1,23,5
3528,12,7,0,24,26,22,1,20
3548,-11,-6,-5,-33,-19,-19,-10,-35
3548,-5,-1,0,9,1,19,7,18
3550,2,-3,-3,8,26,4,1,-3
3550,3,1,7,37,1,-4,-15,-5
3572,-7,-3,-12,-22,-12,30,21,-18
3572,0,0,-1,-7,-16,-14,-16,41
3573,-10,-11,-5,18,26,-85,-13,23
3573,13,11,2,-21,-21,35,-2,-6
3585,-2,-1,0,3,-4,26,-2,-8
3585,-9,0,0,20,21,-3,19,-8
3609,-15,-7,-8,-25,-12,0,10,-21
3609,16,0,1,-7,-10,4,-2,48
3610,12,5,4,4,33,-34,-26,8
3610,-10,-4,-4,-34,-10,37,23,-21
3616,-3,-4,0,19,-22,-53,-37,-10
3616,3,1,-1,-8,5,12,21,-6
3624,-6,-9,-6,-7,-17,6,-3,-1
3624,5,3,0,2,16,7,12,0
3625,1,2,5,1,18,29,33,-12
3625,-14,-4,-7,-17,-37,-17,-22,-19
3646,18,0,6,33,60,-16,6,8
3646,-2,-5,-8,-23,-41,11,-5,-17
3653,11,4,4,-17,-16,9,-3,5
3653,-16,-6,-4,-8,6,68,11,-50
3659,6,4,6,13,11,-26,20,67
3659,7,4,1,14,-13,-82,-21,-22
3685,-19,-13,-6,3,9,21,-14,-13
3685,-9,2,-3,-38,-10,-54,-17,-57
3685,-2,-1,0,8,-25,5,-2,42
3685,-4,-5,0,-8,7,68,9,-4
3687,4,4,2,12,60,47,43,12
3687,3,6,10,43,3,-26,-24,-16
3706,-16,-10,-8,-26,-43,-31,-27,-35
3706,2,3,-1,12,-16,-27,6,14
3708,2,-3,-2,5,9,-11,-20,20
3708,-7,-3,1,15,31,34,-3,-17
3720,16,5,0,-4,-27,-11,30,23
3720,4,1,11,36,43,3,11,-17
3729,-2,1,-1,-38,-24,18,-34,-30
3729,6,3,-3,6,-20,-19,16,18
3744,-10,-20,-9,-5,-3,46,-2,-25
3744,-8,-8,-2,3,-1,-72,-23,-18
3746,13,2,-1,14,-10,4,-29,-14
3746,-26,-8,-5,-13,4,-18,-18,7
3767,-3,4,2,-4,16,30,7,-8
3767,4,4,3,29,35,66,53,8
3768,-3,-4,-3,-25,-15,-7,5,17
3768,6,-4,-6,-7,9,-24,-43,11
3780,-5,2,-9,-19,-44,-36,3,-23
3780,4,-1,-2,-20,2,-7,2,17
3789,-20,0,0,3,-15,-42,-28,-12
3789,14,1,-1,-6,-3,69,48,18
3804,-11,-5,-2,11,43,-45,-11,-25
3804,17,6,4,-3,-27,34,-5,81
3806,-5,-4,-1,-4,4,-22,4,-14
3806,-6,-2,-12,-37,-26,-13,-8,-7
3826,3,1,5,13,22,49,6,-3
3826,-7,-6,-4,-4,-10,-38,-28,-49
3827,10,3,2,11,3,12,2,41
3827,7,7,5,2,-6,-32,24,42
3840,-8,-6,-5,5,22,49,10,7
3840,13,5,0,-11,-6,-35,19,19
3849,4,0,-3,-10,-3,19,15,-26
3849,0,-3,5,49,34,-3,-3,-19
3863,-18,-11,-18,-88,-100,-52,-15,-12
3863,-11,1,1,3,31,20,-29,-37
3865,9,0,1,3,-6,82,12,23
3865,5,1,7,9,36,-48,19,21
3886,0,4,6,18,4,-25,3,-2
3886,-13,-5,-7,-11,-41,-31,-53,-16
3888,-3,-4,-3,-13,-1,14,17,-20
3888,-12,-4,1,39,38,14,6,-26
3900,27,11,5,3,-28,0,12,22
3900,10,-2,2,-9,-5,12,-18,-8
3915,0,0,7,60,70,0,34,-40
3915,5,-4,-17,-90,-100,-17,15,39
3923,0,1,2,20,30,-36,-38,-25
3923,-2,-11,-5,6,44,116,14,13
3926,-8,-5,-1,22,-11,-74,-26,-20
3926,-12,8,0,-14,-15,14,28,-14
3946,-9,-2,-4,-5,-17,-33,-67,-25
3946,17,6,3,-15,-20,-20,27,42
3948,-1,1,3,35,27,37,4,-7
3948,-3,-10,-5,-6,6,19,24,8
3960,-2,3,6,14,2,-9,-21,-27
3960,-15,-4,-6,-4,-6,-44,-7,-23
3969,-1,-7,-13,-40,-53,-17,0,57
3969,1,-6,-4,19,10,-10,-52,-36
3983,15,5,3,-1,68,51,69,25
3983,-2,0,0,0,-14,60,6,-29
3985,9,12,6,-33,-7,-71,7,8
3985,0,-4,3,32,5,18,-46,-8
4006,-5,-4,-6,-8,9,21,14,13
4006,-2,2,3,3,23,-19,9,5
4019,-13,-6,-6,-25,-13,44,-12,-19
4019,3,1,6,22,16,-33,-12,-34
4028,0,3,6,26,-13,-23,-5,3
4028,10,2,0,-15,-54,-82,5,37
4029,-5,-12,-15,-17,-22,7,-5,22
4029,-13,-5,-2,-5,22,21,-21,-10
4044,-3,3,4,20,44,28,11,-24
4044,-8,-2,-3,-4,-12,18,-18,-14
4045,-1,5,4,12,7,-18,-3,-4
4045,12,5,6,26,15,39,47,73
4066,14,1,-4,-43,-18,20,-2,34
4066,-13,-14,-4,15,20,24,1,-23
4068,12,26,5,-28,-17,-47,1,-2
4068,-10,-13,-8,-28,-50,-56,-40,-12
4088,-18,-11,-3,16,25,1,14,-104
4088,9,1,1,5,53,33,-13,81
4090,10,-1,2,-12,-46,43,8,3
4090,4,2,1,18,32,-25,-1,7
4104,-10,-3,-7,-36,-32,15,18,3
4104,-18,-10,-9,18,-58,-112,-44,-78
4106,-16,-16,-15,-18,-51,-43,-37,-2
4106,-9,4,6,3,39,37,-10,-12
4127,21,6,7,16,31,53,20,46
4127,11,-2,8,-11,19,59,59,-15
4128,-1,5,-3,4,20,14,13,24
4128,-4,-2,-2,-14,-32,-15,-22,-39
4149,0,0,-3,9,6,-53,-32,63
4149,16,11,13,26,7,35,33,58
4150,13,-6,-5,-14,44,41,58,37
4150,-9,-8,-9,-14,-24,-40,1,-25
4165,-6,-5,-2,0,-87,-40,-61,-51
4165,-15,-4,-6,-8,41,-66,-15,-1
4167,-7,3,12,27,19,31,9,-44
4167,9,3,-7,-22,-26,63,76,35
4194,-1,-10,-10,-10,-4,-6,-5,28
4194,-2,4,-1,6,46,-18,-44,-36
4196,5,-1,-2,-7,-25,5,15,15
4196,4,3,5,-3,-27,-55,-41,-21
4209,-9,0,1,2,2,10,4,-9
4209,10,0,-2,-5,11,66,39,46
4211,-30,-2,10,52,70,23,-18,-32
4211,32,13,9,17,24,73,31,16
4231,1,0,-2,-2,1,-74,49,24
4231,17,4,-9,-39,-65,-24,-35,1
4232,-18,-13,-4,9,-37,-82,-60,-37
4232,-14,-2,-6,-45,-17,42,19,14
4253,41,20,16,33,101,100,11,28
4253,-13,-28,-10,10,0,52,96,22
4255,-9,-7,-9,-24,-60,-90,-60,-45
4255,-12,-11,-9,8,-45,-9,-58,-22
4276,-7,4,7,4,22,-48,11,21
4276,0,12,11,16,36,69,19,-23
4277,21,5,12,72,10,20,15,40
4277,-8,-6,-11,-42,-26,-28,25,-8
4282,-20,-9,-6,-11,-19,28,-31,-42
4282,-18,1,-7,-5,1,-41,-20,-14
4291,11,3,3,4,62,65,-10,-19
4291,-2,2,-1,-1,-4,-93,-11,7
4306,-5,-7,-9,6,-65,-11,-6,5
4306,-19,-3,-7,-35,-23,-20,-24,-37
4314,12,-1,-7,-8,31,53,33,20
4314,-3,2,8,27,55,66,10,30
4329,4,-7,-8,-8,-29,-41,23,30
4329,-18,-12,-7,5,-2,-45,-31,-96
4330,23,8,14,14,-14,-10,12,103
4330,-7,0,-5,-24,-21,-4,-14,-17
4343,-19,-5,-6,9,-2,-30,-20,-26
4343,6,-1,1,1,-26,48,9,19
4350,9,3,-3,-13,38,65,4,-10
4350,7,5,6,26,38,-39,21,-8
4367,-6,-6,-1,-3,-28,-19,-10,-62
4367,23,10,4,20,-7,-56,-51,49
4368,-21,-15,-20,-57,-62,-29,-6,-25
4368,-12,-10,-2,20,35,46,5,-18
4389,-1,17,9,6,55,42,21,-119
4389,-26,0,10,24,1,56,-18,-67
4390,60,13,-7,-27,-47,23,42,36
4390,-12,-13,-12,-10,-24,-87,-34,-7
4403,1,-11,0,23,-37,-47,-23,60
4403,3,6,-2,-17,28,10,-41,13
4409,-24,5,12,11,-3,34,-2,-4
4409,10,3,-8,-36,18,-5,26,26
4426,10,-7,-5,-46,-30,20,5,29
4426,-28,-9,-11,-11,-1,-28,-10,-81
4428,15,-7,2,14,25,-18,17,62
4428,19,23,21,28,11,88,12,-53
4450,-4,9,6,3,40,24,9,-30
4450,1,-6,-5,-10,-38,-25,36,13
4451,-59,-17,-16,-16,-42,-108,-90,-125
4451,38,-5,-13,20,19,-19,-6,-49
4471,34,16,15,26,29,62,33,98
4471,1,7,10,9,47,38,21,-82
4472,-6,-9,-3,9,5,-20,20,-39
4472,26,10,0,1,-13,12,35,56
4486,-18,9,-1,-47,-104,-42,-54,-20
4486,-8,-4,1,0,24,10,3,0
4487,8,11,4,11,33,1,-9,-18
4487,-24,-4,5,-8,27,57,-2,-11
4508,14,-4,-12,34,68,1,18,-5
4508,-8,2,-10,14,-45,-2,16,22
4510,-54,-38,-30,-52,-53,-94,-45,-40
4510,53,21,3,12,-5,4,-15,-84
4531,-7,4,10,15,38,12,-1,106
4531,-3,4,-10,-34,-13,28,7,30
4532,-2,5,5,46,55,0,23,-11
4532,-18,9,0,17,-22,42,6,32
4546,-14,-39,-6,0,-10,-20,7,-45
4546,2,10,28,-16,-8,-23,-22,-21
4548,4,-9,-12,-13,-12,5,-9,13
4548,-20,-2,41,26,37,-3,-5,70
4570,21,14,-24,51,-23,-3,-5,-72
4570,24,-6,31,26,0,21,9,51
4575,-41,-6,-12,-15,-20,-19,-12,-71
4575,45,7,3,34,5,-39,-11,80
4582,-11,-1,-7,-1,68,92,8,-15
4582,-4,-14,-16,19,28,-103,-13,-29
4591,33,24,16,-14,-62,62,30,27
4591,-46,-23,-28,-78,-45,-56,-13,-45
4606,-44,-26,2,-55,-36,4,-22,-106
4606,68,31,11,42,26,-25,-8,89
4608,-22,-12,-15,-40,18,21,8,-63
4608,1,2,-15,13,14,23,8,-24
4628,-7,3,40,10,-6,-13,1,-12
4628,-14,-13,3,-25,-4,27,3,-25
4630,8,10,-25,-29,-39,-20,-9,-15
4630,-16,-20,-2,-9,-8,11,12,75
4642,-17,0,-15,-6,33,21,2,52
4642,39,14,4,40,-7,-32,11,-2
4651,23,16,52,36,44,43,6,36
4651,-33,-11,-15,-19,-63,-64,-25,-59
4666,5,0,-3,1,6,-18,-6,2
4666,-17,-8,-17,-41,-28,23,4,13
4668,27,3,8,9,11,0,0,20
4668,5,3,21,98,78,35,20,-9
4689,8,-6,-2,-52,-70,-35,-4,6
4689,-6,-4,-22,-53,-46,6,-8,-23
4690,-1,0,-9,-1,12,-2,-5,-3
4690,-12,2,1,-12,10,0,-8,-29
4702,10,6,1,12,-2,-18,-3,2
4702,1,3,-5,19,41,11,4,-6
4712,6,-2,-6,-36,-31,11,17,5
4712,-9,-3,17,53,-10,0,2,-2
4726,-16,-10,-35,-4,10,-21,-17,-9
4726,-15,-6,11,11,-23,3,-5,-1
4728,1,0,11,42,69,-1,-6,6
4728,18,3,-29,-55,-27,12,5,-10
4749,10,-7,3,-7,-11,6,8,1
4749,2,15,-2,4,7,-6,-7,-9
4750,3,-3,4,7,-1,-5,-4,3
4750,-17,-9,-7,-32,-10,-4,-2,-16
4762,4,3,-3,16,39,0,-4,-3
4762,-2,-1,11,9,-32,0,-3,-11
4771,-13,-2,8,-26,-7,-5,-3,0
4771,-5,-4,1,-7,2,5,-6,0
4786,7,2,-1,1,-7,-8,6,23
4786,-10,-6,-1,5,7,3,-4,-27
4794,-6,0,-10,3,0,-6,-9,-35
4794,3,-5,-2,-10,2,0,-5,19
4810,5,5,8,-5,-11,-5,5,-1
4810,-14,-9,-15,-21,-8,2,-5,-65
4813,13,-3,-1,11,7,-4,16,47
4813,-1,0,-2,-15,-3,-8,-13,-33
4831,-13,4,4,6,-1,5,-7,-88
4831,-8,-8,-13,-15,-6,-4,3,-19
4832,-10,-8,-1,10,3,-1,-9,-12
4832,3,0,6,1,1,-2,3,13
4846,5,0,-8,-12,-12,-5,2,36
4846,-1,-6,-2,-4,0,3,7,67
4852,3,0,2,8,2,-2,1,-14
4852,-2,-2,-5,-8,-4,1,7,9
4868,-7,-4,1,-4,-5,-6,-17,-91
4868,0,-4,-3,-10,-1,1,16,87
4871,-11,-2,-2,4,-3,-7,-12,-26
4871,8,2,-3,-6,3,6,12,-21
4891,3,0,0,0,0,-1,-9,-29
4891,-2,-1,0,1,2,5,5,13
4892,-3,0,-4,-4,-12,-16,-14,-26
4892,-8,-2,-1,-3,3,0,-4,-21
4914,5,-1,-1,-3,-6,-1,6,24
4914,-9,-4,-6,-12,4,-7,-6,-41
4916,-1,-3,-1,19,23,0,-6,5
4916,5,3,7,-21,-24,1,3,-15
4929,0,-1,5,11,-6,4,3,16
4929,0,-2,-8,-22,-18,-4,-4,0
4935,-2,-2,-6,7,6,2,3,4
4935,-8,-2,3,5,9,-7,-5,-22
4942,20,7,29,2,-3,6,13,83
4942,-7,-1,-1,4,0,-3,-5,-42
4952,1,1,-3,-7,-1,2,2,3
4952,-4,-2,-5,6,6,2,-1,-2
4965,-10,-4,-13,-5,-2,-4,-1,-15
4965,-2,-5,-3,1,0,-2,-5,-8
4972,2,5,5,-4,-5,-1,-1,0
4972,1,-1,-8,-2,-3,-5,10,30
4988,-5,0,-5,-2,-1,-2,-2,-18
4988,2,3,1,1,1,-4,-1,-7
4990,0,-2,-4,1,-2,5,5,6
4990,-4,-1,-1,-3,4,24,-4,-16
5011,-5,0,-6,-9,-5,-44,-2,10
5011,1,-1,-1,4,0,10,-5,-6
5012,-1,-4,-1,-1,-9,-8,-5,-11
5012,-1,-2,-1,3,0,1,-8,6
5025,1,-4,-5,-8,1,12,1,2
5025,2,1,-2,3,7,6,5,28
5033,14,4,4,2,1,2,14,101
5033,-2,0,-1,2,0,-6,-2,-6
5049,-1,1,-4,1,2,3,2,0
5049,-5,-2,-1,-5,-1,-7,3,-36
5050,-2,-1,0,2,-1,5,0,-23
5050,-2,-2,-1,-3,0,-5,0,10
5071,2,1,-1,4,-1,3,-3,-6
5071,1,3,0,1,0,3,-5,-6
5073,-2,-2,-1,-5,-1,0,0,-6
5073,-3,-3,-2,-1,-1,-8,-3,-6
5085,-5,-3,-2,-3,-1,2,4,8
5085,0,-2,0,0,0,1,-1,-61
5093,3,2,2,0,1,2,0,27
5093,-8,-4,0,-1,-2,-4,-4,-8
5109,0,-1,-3,-2,0,5,0,-5
5109,-1,0,1,1,-3,-3,-5,-3
5110,-5,-4,-3,-4,-3,-4,-3,-24
5110,2,-2,-2,-3,1,0,-1,-5
5131,-4,-2,-2,4,2,0,2,7
5131,-1,-3,-1,-2,-2,-2,0,16
5132,-4,-1,0,-6,-8,-2,0,-20
5132,5,0,-1,0,-1,1,4,11
5144,-3,0,-2,0,1,3,2,-5
5144,-1,1,-2,0,1,-6,0,7
5153,-5,1,-1,-1,-2,-2,-7,-11
5153,1,-1,-2,-3,-2,-2,-4,-7
5168,-3,-3,-5,-2,-1,0,1,1
5168,0,0,0,1,-1,0,-1,12
5170,-3,-4,-3,-2,0,1,-1,-10
5170,0,1,-2,0,-1,-6,-2,-13
5190,4,0,-1,-2,-3,2,-4,2
5190,-2,-2,0,0,0,-1,-3,12
5192,4,-1,0,1,1,-2,1,10
5192,-3,-1,-1,-2,-1,-1,1,1
5204,0,-1,1,-2,0,-2,-1,-19
5204,3,1,-1,-2,-3,-1,11,66
5214,3,0,0,-2,-2,1,0,19
5214,0,0,-2,-2,-3,1,-2,-12
5229,-1,-2,0,-4,0,-3,0,-4
5229,6,2,-1,-1,-2,-2,-3,-28
5234,2,-1,-3,0,-1,-2,0,-10
5234,-1,2,-1,-1,-1,-2,-1,1
5250,1,-1,0,-2,-1,2,4,8
5250,-2,-3,0,-2,0,-1,-3,-11
5253,-3,-3,-2,-1,-1,-3,-4,-9
5253,1,-2,0,-1,-1,0,-3,-11
5264,1,-1,-3,-2,0,-1,0,-2
5264,-1,0,-1,0,0,2,1,-7
5274,-3,-1,-2,0,-1,-2,-4,-9
5274,-1,3,1,-1,-3,-2,-6,7
5288,-2,0,-1,0,-2,0,-1,-1
5288,-4,-3,-1,-2,-2,-1,-2,-9
5291,-3,-2,-1,-1,0,1,-1,-39
5291,3,-1,-1,1,-1,1,4,43
5312,-1,-1,-2,-1,1,0,-2,-2
5312,-3,1,-1,2,-1,-4,-3,-17
5317,-4,-4,-1,-2,-1,-3,-1,-11
5317,-2,-1,-1,0,-1,1,3,-6
5325,-5,-3,-1,-1,0,-1,1,7
5325,1,-1,0,-1,0,-1,-1,5
5334,-5,0,0,1,-1,-1,-1,-1
5334,-1,-1,-1,0,0,0,-1,1
5349,0,-1,1,0,-2,0,-1,6
5349,-5,-5,-2,-1,-3,-3,-5,-14
5350,2,-1,0,0,-1,-2,1,17
5350,-5,-3,-1,-2,0,-1,-4,-15
5371,1,-2,-3,-1,-2,-2,-2,-6
5371,0,-2,-1,-2,-1,0,-1,7
5373,-5,-3,-3,-3,0,0,-3,-4
5373,1,-2,-3,-1,0,1,0,0
5385,10,1,0,-2,-1,-1,1,4
5385,2,-2,-1,-2,-2,-2,-1,-2
5401,-5,0,-1,0,-2,1,-1,-3
5401,-1,-1,-2,-1,-1,-4,2,-12
5408,-2,-1,-2,-1,1,0,2,13
5408,-3,-1,1,-1,0,1,-3,6
5410,4,0,0,-2,-1,0,-2,2
5410,-2,-2,1,0,1,0,-4,0
5431,-4,0,1,0,-1,0,-2,-6
5431,2,-1,-1,-2,-2,1,-2,-1
5432,5,0,0,1,-1,1,3,5
5432,-2,-2,-2,-3,-1,-2,0,0
5445,4,1,0,0,-2,0,-2,-9
5445,-2,-1,-1,-1,-1,-1,2,-36
5454,0,1,2,-1,0,1,1,15
5454,-1,-1,0,-1,-2,-1,-1,-5
5468,-3,-3,1,0,-1,-1,1,-7
5468,-6,-1,-2,-1,-2,-3,-1,-14
5470,3,0,-2,0,-2,-4,1,-8
5470,-1,0,-1,-1,-3,1,0,4
5492,-4,-1,-3,-3,-3,-1,-3,-1
5492,1,-1,-1,0,0,0,-1,12
5493,-3,-3,-1,-3,-2,-1,-2,2
5493,-2,-1,-2,-2,-1,-1,0,4
5514,0,-2,-2,-2,-1,-2,-2,3
5514,3,1,-2,0,0,-1,2,11
5516,-1,-1,-1,-1,0,-3,0,-2
5516,-5,-1,0,-1,-1,-2,-4,-12
5529,-1,1,-1,2,-1,1,-2,-1
5529,-4,-1,-1,0,-2,-3,-2,7
5530,-4,-2,-1,0,-1,-2,-6,-4
5530,-1,-2,-1,-1,-1,-2,-3,-6
5559,6,1,-1,0,0,-1,1,-7
5559,2,-1,0,0,0,-1,-4,-1
5560,1,1,-1,-1,-2,1,3,20
5560,-2,0,-1,-1,-1,0,3,-4
5565,-7,-3,-1,-1,-2,-1,0,1
5565,-3,-2,0,-1,1,1,-1,-9
5573,4,-2,-2,-1,-1,-1,0,-10
5573,-2,-2,-3,-2,0,-2,0,7
5589,-1,0,-2,0,-2,-3,2,-1
5589,-4,0,-1,-1,-2,-1,2,7
5591,-7,-1,-2,-4,-2,-1,-2,-3
5591,3,0,0,0,-3,0,1,3
5611,-1,-2,-1,0,0,-3,-3,5
5611,1,0,-2,-1,-2,0,-4,3
5613,0,-1,1,1,-1,-3,-4,-4
5613,-3,-2,-2,-1,-2,0,-2,-6
5625,1,-1,-1,0,0,0,-1,-3
5625,-3,-2,-1,-2,0,1,1,4
5635,3,3,-1,-1,0,1,0,-3
5635,-2,-1,-1,-2,-1,-1,-1,2
5649,-5,-2,-2,0,-4,-1,-4,-1
5649,-2,-2,-1,-1,-1,-1,-1,5
5651,-5,-1,-2,1,0,-2,-1,-8
5651,1,0,-2,0,0,-1,-1,-6
5672,1,1,-1,-3,-1,0,-1,18
5672,3,1,1,0,-3,-2,-1,-3
5673,-7,-3,-2,-2,-1,0,-1,-4
5673,1,-1,0,1,-1,-1,1,3
5685,-4,-2,-1,0,-3,0,-1,-5
5685,-3,0,-1,-1,-2,-1,-3,-1
5694,-3,-2,0,-1,0,-2,-1,-2
5694,0,1,-2,-1,-1,-1,0,0
5708,-2,-1,-1,-2,0,-2,1,-8
5708,1,-2,0,-2,0,0,2,7
5715,9,0,0,-1,-1,-2,3,1
5715,-1,-2,-2,-1,-1,-1,-2,-1
5731,-2,-3,-1,-1,-1,-1,-2,-6
5731,-3,-2,-2,0,-1,-2,-1,-3
5732,-4,-1,-1,0,-1,0,-3,0
5732,1,1,-1,-2,-1,-2,-2,4
5745,1,0,0,1,-3,-1,-1,0
5745,-4,-2,-1,0,-1,-2,-3,-2
5761,0,-1,-3,1,-1,-2,-3,-7
5761,-1,-2,-1,-1,-1,0,-2,-1
5776,-2,0,0,-1,0,0,-2,-4
5776,-3,-1,-2,-2,-1,-1,1,1
5778,-4,-1,0,-1,0,-1,-1,0
5778,-3,-2,0,0,1,-2,-4,0
5791,3,-2,-1,-1,0,-2,-1,-2
5791,2,0,-1,0,1,-1,-3,-5
5793,1,1,-1,0,-2,1,0,1
5793,-2,-1,-1,-1,-1,-1,0,2
5805,-2,-1,-1,-1,2,0,1,3
5805,1,-3,-1,0,-1,-2,2,1
5813,0,-1,-2,0,1,0,-1,0
5813,-2,-2,-1,-1,1,-1,-2,0
5837,-4,0,-3,1,0,-1,-2,-1
5837,-4,-1,0,1,-3,-2,1,1
5838,0,-1,-1,-1,-1,0,-1,0
5838,0,-1,-1,-2,-1,0,0,-4
5851,-2,-2,-2,-3,-1,1,-3,-3
5851,3,0,-2,-1,-2,-1,0,2
5857,2,-1,0,-3,-1,-2,0,-2
5857,-2,-1,0,-1,0,-2,-2,-1
5874,-2,0,-1,-3,-1,-2,0,-2
5874,-2,0,-1,0,-1,-2,-2,-3
5875,-2,-1,0,-2,-1,1,0,-1
5875,0,-1,-3,0,-1,0,0,1
5888,-1,-4,-2,-1,0,-2,-2,2
5888,0,0,-2,-1,-1,-1,-2,-1
5890,-1,-2,-2,-1,-1,0,-2,0
5890,0,-1,-3,-1,0,-1,-1,-1
5912,-1,-1,-1,-1,-2,-2,-1,-2
5912,-1,-2,-1,-1,-2,-2,1,-3
5912,-4,-2,-2,0,-2,0,0,-4
5912,-2,0,2,0,-2,1,1,1
5934,-4,1,0,0,-1,0,-3,-2
5934,1,2,1,0,0,0,-1,-2
5935,0,1,0,1,-2,1,0,-1
5935,-4,-3,-2,-1,-1,-1,1,-3
5949,1,-1,-1,-1,-1,-1,1,0
5949,-6,-3,-4,0,-1,-2,-2,-1
5950,3,-2,-1,-1,0,-1,-2,1
5950,-2,-3,-1,0,-1,-1,0,-4
5972,1,0,-1,-3,0,0,0,-1
5972,1,0,-1,0,0,1,-2,0
5973,0,-1,-2,-2,0,-3,-2,1
5973,4,1,-1,-1,-1,-2,-1,-2
5994,-1,-1,0,0,0,0,2,-2
5994,0,-2,-1,-1,-1,-1,1,0
5995,0,-2,-3,2,-1,-1,-1,-1
5995,0,-1,-1,0,-1,0,-1,0
6008,-5,-2,-2,-2,0,0,-1,-1
6008,-2,0,-2,-2,-1,0,1,-2
6014,-4,0,-1,0,-1,-1,1,-1
6014,2,-1,-1,-1,0,1,0,-1
6031,-4,-4,-2,2,0,-2,-2,3
6031,1,-2,-2,-2,0,-3,-3,0
6032,3,0,1,0,1,-2,0,-1
6032,-3,0,-2,-2,-2,-2,-1,-3
6053,0,-1,0,-1,-1,-1,2,-1
6053,-7,-2,0,-2,-1,0,1,-1
6055,0,0,-1,-2,0,0,3,-1
6055,-2,-2,-1,-1,-1,0,-2,0
6068,1,-1,0,-1,-2,-1,-5,1
6068,-1,0,-1,-1,-1,0,-5,1
6075,1,-2,-1,-1,-3,0,-5,2
6075,3,-1,0,-2,0,0,1,2
6091,-2,-1,-3,-1,-2,-1,-2,0
6091,6,2,0,1,0,-1,-1,-1
6093,-6,0,-2,1,-1,0,0,-1
6093,-2,2,-1,-1,-1,1,1,-3
6114,1,0,-1,-1,0,-1,-1,-3
6114,-1,-3,-1,-2,0,-1,-4,-4
6115,-1,-1,-1,-2,-1,0,0,1
6115,0,-3,-3,0,0,-1,-2,0
6136,1,1,0,0,-2,-1,1,0
6136,-8,-2,-2,-4,-1,-1,-1,-4
6138,-1,-1,1,-3,1,-2,-2,-2
6138,1,-2,-1,-3,-2,-1,-3,0
6151,1,-2,-1,-2,-2,0,-2,-9
6151,1,-1,0,2,0,0,-3,9
6153,1,-1,-3,1,-2,0,-1,0
6153,0,0,1,1,-1,-1,0,-3
6174,-4,-1,0,0,-2,-2,-1,-1
6174,-1,-2,-2,-2,-1,-4,0,-5
6175,4,0,-1,-3,0,0,0,-1
6175,-3,0,-2,-1,0,-1,-2,0
6188,-2,-2,0,-1,-2,0,0,2
6188,-1,-1,-1,0,-1,0,-1,-1
6195,-4,-2,-3,-3,-3,-1,1,-2
6195,0,1,0,1,-2,-2,-1,-11
6212,0,-1,-3,1,-1,-1,0,19
6212,-1,-1,-3,-2,-1,2,-1,-9
6213,-2,0,-1,-1,-1,0,0,-1
6213,1,-1,-1,0,-4,0,-1,-2
6234,-2,-3,-2,-3,-2,-2,-2,-3
6234,2,0,1,0,-2,-1,-1,-1
6235,3,0,-1,-2,1,-2,0,-2
6235,0,-2,-1,-1,1,-1,2,4
6249,-1,0,-1,-2,2,-2,3,-5
6249,-4,0,-2,-2,-1,-1,2,2
6255,-2,0,0,0,-3,-2,0,-4
6255,1,-1,-2,-2,0,-2,1,1
6271,2,0,-2,-1,0,1,-3,-5
6271,4,3,-2,2,-1,1,-2,4
6273,1,-2,-2,-1,-2,0,-4,4
6273,-2,-1,0,-1,-3,-3,-2,2
6301,4,0,-2,-1,-2,-3,-1,-2
6301,-3,-2,-1,-2,-4,-2,-1,0
6303,-6,-4,-2,-1,-2,-2,-3,-3
6303,8,-1,-2,-1,1,-2,-1,3
6307,2,-2,-2,-1,1,1,-1,-2
6307,2,-1,1,0,1,-1,-2,1
6316,-2,-3,-1,-1,0,-2,-1,0
6316,-7,-2,-1,-4,-1,-1,-3,-4
6332,0,0,-1,-1,-4,0,-3,0
6332,-1,-2,-3,0,1,0,-3,-3
6333,-5,-1,-1,1,-2,-1,-2,-2
6333,-9,-1,0,1,1,-1,2,-4
6353,1,-1,0,0,-1,0,3,9
6353,-2,-2,-1,-2,-1,-1,-1,-1
6355,1,-1,-1,0,1,-1,-2,-4
6355,-2,-1,-1,-1,1,-1,0,3
6368,0,0,0,0,0,0,0,0
6368,2,-1,-3,-1,0,-3,-2,-10
6374,-2,-2,-1,0,-2,0,2,2
6374,0,-1,-2,-3,-4,-2,1,-4
6391,-13,-4,-2,-2,0,-3,-1,-3
6391,7,1,2,-1,-1,-1,-2,-8
6393,1,0,-1,0,0,1,0,-2
6393,-2,-2,-2,0,-1,-1,-3,0
6414,-3,-3,-2,-3,-1,0,0,-4
6414,-5,-1,-1,0,-1,0,3,1
6416,-2,0,-2,-1,-1,-1,-2,-1
6416,3,-1,-2,-1,-1,-1,1,1
6427,3,-2,0,-1,-1,0,-1,-3
6427,-2,0,0,-1,-3,-2,-1,2
6437,-1,-1,-1,-2,-2,-1,0,1
6437,2,1,1,0,-2,1,1,0
6451,6,1,-2,-1,1,-2,-1,-2
6451,-2,-2,0,-2,0,-2,0,2
6453,1,0,1,-3,1,-2,-1,13
6453,-5,-2,-2,-1,-2,-1,-3,1
6473,-3,0,-1,1,-1,1,0,-3
6473,-1,1,-2,2,-2,0,1,3
6475,-3,0,-1,-1,-3,-3,1,-8
6475,0,-1,1,-1,1,1,0,0
6487,4,1,-1,0,-1,-1,-2,0
6487,-6,-5,-3,-1,0,0,-1,-4
6503,1,-1,0,1,0,0,-1,-2
6503,-2,-1,-2,0,-1,-2,0,0
6511,0,-1,-1,-1,-1,-1,-1,0
6511,-1,-1,-3,0,0,-1,-3,0
6514,-2,1,-1,-1,-1,-2,-3,0
6514,3,0,-1,-2,-1,-1,-2,1
6534,-3,2,-1,-1,-2,-3,-2,-4
6534,-3,-1,-1,-2,-1,-2,0,-1
6535,1,-1,-3,-1,-2,-1,1,-2
6535,-1,0,-1,-2,-1,-2,0,-3
6547,-3,-1,-1,0,-2,-1,-2,-1
6547,9,4,1,-2,-1,1,0,5
6556,0,1,-2,-2,-1,0,-6,0
6556,-5,-1,-2,-1,0,-1,-3,0
6571,0,-2,2,-1,-2,-2,-3,1
6571,-2,-2,-1,-1,0,-1,-3,0
6572,-1,-3,-1,1,0,-1,-4,-3
6572,2,-3,0,-1,-1,-2,-6,-4
6594,-4,-3,-2,-1,1,-2,-1,-2
6594,-3,-1,-2,-1,-2,-1,-3,1
6595,-3,0,0,-2,-2,0,-3,-1
6595,3,0,-2,-1,-3,1,-1,-9
6608,-3,-3,0,-1,1,1,-2,1
6608,-2,-2,-2,-1,-1,-1,1,-3
6616,-1,-1,-2,0,-1,-2,2,-8
6616,-2,2,-2,1,0,-2,3,1
6631,1,0,-1,-2,-1,1,0,-2
6631,1,0,-1,0,-3,-1,1,-11
6632,-3,-1,-1,-1,-2,0,0,11
6632,-4,-1,-1,-2,0,-3,-4,-2
6654,1,-2,-1,0,-1,-1,-1,-8
6654,-1,-1,1,0,1,0,7,33
6656,3,-1,-1,-2,-1,-2,3,-3
6656,-4,-4,-1,-2,-1,-2,0,3
6667,-6,-2,-1,-1,0,-2,-2,-8
6667,-3,-2,-3,-1,-2,0,-6,-11
6693,0,-1,-2,-1,-2,-1,-2,2
6693,0,0,1,-2,-3,-1,1,2
6694,-2,-1,-1,-1,-2,-1,0,-5
6694,-3,-1,1,0,0,-1,1,-3
6698,-2,-1,0,-2,1,0,-1,-8
6698,-2,-2,-2,0,-1,-1,-2,2
6713,1,1,0,0,-1,0,-1,3
6713,-1,-2,-1,-1,-2,-2,1,0
6715,1,-1,-3,-1,1,0,-3,-5
6715,1,0,-1,-1,-1,1,-1,-3
6727,3,1,-2,-2,-2,-1,1,6
6727,4,0,-1,-1,-2,-2,0,-2
6736,-3,-1,-1,0,-2,-2,-1,-8
6736,1,0,0,-1,0,-2,3,1
6759,-3,0,-1,-2,-2,-3,-2,2
6759,-3,-1,-1,0,0,-3,-1,-1
6760,1,-1,0,2,-3,-3,-2,-3
6760,-2,-1,-1,1,-2,0,-2,0
6774,0,-1,-1,-1,-1,1,-3,-2
6774,2,1,-1,-1,-1,0,-5,-5
6788,-8,-1,-2,-2,1,0,-2,7
6788,-4,-3,-2,0,-1,0,-6,-3
6788,2,0,-1,-1,-1,1,-2,-14
6788,1,-1,-2,-2,-2,1,-1,5
6797,-1,-1,-3,-1,-3,-1,1,1
6797,4,1,0,-2,-1,0,-2,-1
6826,-2,0,-1,0,0,-2,1,-6
6826,-3,0,1,-1,-2,-1,-2,-2
6828,-2,-2,-1,-2,-2,-1,0,-2
6828,-1,1,-1,-1,0,-2,0,-3
6833,-2,0,1,0,-1,0,-4,8
6833,-3,-2,-3,-2,-1,-2,-4,-3
6835,-3,-3,-1,-2,-1,-1,0,-11
6835,-2,-2,-1,0,0,-2,-3,-14
6847,-2,-2,-3,0,-1,1,9,39
6847,1,-1,1,0,0,-1,-1,-4
6856,-1,-3,-2,-2,2,-1,0,-3
6856,-2,0,-1,0,1,0,2,-2
6871,1,-1,-1,-1,0,-3,0,-13
6871,1,-2,0,0,-1,-2,1,-4
6877,5,0,-2,-1,-2,-2,0,11
6877,-2,-4,-2,0,-2,-3,-5,-13
6894,-2,0,-1,-2,0,-1,-1,-1
6894,-6,-1,-2,-1,-2,0,-1,-4
6895,5,2,0,2,-1,1,3,3
6895,1,0,-2,-1,-2,0,2,7
6916,-4,-1,-1,-2,0,-2,-6,-16
6916,-3,-2,0,-2,0,-2,-2,7
6917,-1,0,0,-1,-3,-3,0,5
6917,-2,-1,0,-2,-2,0,0,5
6932,-1,-3,1,-1,0,0,1,-5
6932,-5,-2,-1,-1,0,-1,-2,-12
6933,2,0,-2,0,0,0,0,-2
6933,2,1,-1,-1,0,-2,0,-4
6954,-1,-1,-4,-2,-2,-1,-1,22
6954,0,-1,-2,-1,-1,-1,-1,-3
6955,-4,-4,-1,-1,-1,-1,-4,4
6955,0,0,-1,-1,1,-1,-2,-8
6976,-1,-1,0,0,-1,0,-2,-6
6976,1,0,-2,0,-1,0,-1,4
6977,-5,-1,-2,-1,-1,1,-4,-9
6977,-7,-2,0,0,0,-2,-3,-6
6991,1,-3,-1,0,-1,-2,0,-4
6991,2,0,0,-1,0,-2,0,11
6993,-1,-1,1,0,-1,0,-4,-5
6993,0,1,-1,-1,0,1,0,9
7014,-1,-2,-2,0,0,2,-1,-7
7014,-4,-1,-1,-2,-2,-1,-5,-8
7015,1,0,-2,1,0,0,-2,5
7015,-2,-2,-2,0,-3,-3,-9,-3
7053,-3,-1,1,0,-2,-1,4,-4
7053,1,0,-2,0,-2,0,-2,13
7054,-1,-1,-1,0,-1,2,-4,4
7054,-3,-1,0,-2,-2,1,18,28
7054,1,2,-1,-1,-2,-4,-4,-20
7054,0,-2,-2,-1,0,-2,1,3
7059,-2,-1,-2,-2,-1,-3,4,-14
7059,-3,-3,0,-1,-2,-3,-9,-17
7074,-3,-4,-2,-2,0,0,10,12
7074,0,-1,0,-2,-1,-2,-1,-6
7075,-1,0,0,-1,0,-2,-1,-1
7075,-1,0,-1,-1,0,-1,-3,3
7096,-4,-1,0,0,-2,0,-6,-2
7096,-4,-2,-1,-2,-2,-1,-5,-5
7098,-1,-4,-2,-2,-3,-2,-7,-16
7098,0,-2,-1,-2,0,2,6,3
7110,1,2,0,-1,-2,-6,-1,17
7110,-3,-2,-1,0,-2,-1,4,9
7118,-4,2,-1,-2,0,-3,-1,-8
7118,-5,-2,-1,-1,-3,-1,-1,4
7134,1,1,-1,-1,0,1,-5,-12
7134,1,1,-1,1,0,0,-6,-18
7135,-2,0,-1,0,-1,0,-1,14
7135,-1,0,-1,-2,0,0,-12,-2
7156,-1,-2,0,-2,1,2,18,-3
7156,3,1,2,0,0,-2,-1,1
7158,1,-2,-1,-1,-2,-4,-2,-8
7158,2,-1,0,0,-1,-1,-2,-9
7171,1,-3,-2,1,-1,2,4,28
7171,1,0,-2,-2,0,-3,-4,2
7178,-3,0,-1,-1,0,-2,-6,-1
7178,-2,-1,-2,-2,-2,-3,2,-8
7193,-2,0,0,-2,-1,0,-4,-16
7193,-1,-2,-3,-3,-2,-1,5,8
7194,0,-1,0,0,1,0,-6,-6
7194,1,1,2,0,0,-2,-1,-1
7216,-2,0,-2,-2,-1,-2,-2,32
7216,-2,0,-1,0,1,3,2,-3
7218,-3,-1,-1,-1,-2,1,4,-10
7218,-4,-1,-1,1,-1,-1,-2,-17
7230,-1,-1,-2,0,-3,-4,-5,1
7230,-4,-2,0,-1,-1,-2,-4,-1
7245,3,-1,-2,-2,-1,-1,-1,-9
7245,-3,-3,-2,-1,1,1,7,15
7254,-3,0,-1,-2,0,-4,-2,-27
7254,-2,-4,-2,-1,-1,2,2,-5
7255,-1,-2,0,-1,-4,-2,14,27
7255,-1,1,0,-1,-4,-4,-7,7
7276,-1,-1,-1,1,2,0,-5,-19
7276,0,0,0,2,0,1,-2,22
7277,-1,0,-2,1,-3,-6,7,6
7277,0,-2,-3,-2,-2,-2,1,-2
7290,3,-1,0,-1,-4,0,-4,-1
7290,-1,-1,-1,-3,2,-2,2,-10
7297,0,-2,-1,-1,1,1,-5,3
7297,0,0,-1,-2,-3,-3,-4,4
7313,-5,-2,-1,0,0,-1,-3,-13
7313,-1,1,-2,0,-2,-2,-5,2
7315,0,1,-1,-2,-2,0,4,0
7315,-2,-4,-1,-1,0,0,5,2
7337,-6,-4,-2,0,0,0,-1,-10
7337,4,1,0,-1,-2,-2,-2,-3
7338,-4,-3,-1,-3,-2,-2,2,7
7338,0,1,0,-1,-1,1,-4,2
7351,-2,0,-2,-1,0,-1,1,8
7351,3,-2,-4,-4,-2,-3,-3,-3
7358,4,1,1,1,0,0,-5,2
7358,1,-2,-1,-1,-2,0,0,-28
7373,5,-1,0,-1,-2,-3,-1,37
7373,-6,-2,-1,1,-3,-1,0,-25
7376,-4,-2,-2,0,0,-1,-1,7
7376,-7,-2,-1,0,-1,0,-3,1
7396,2,0,0,-2,-1,0,-5,-11
7396,0,0,-1,-2,-1,0,5,-1
7398,-3,0,-1,-2,-1,0,-9,-10
7398,-1,-1,-1,0,1,-3,-2,5
7409,1,-2,-2,-1,-3,1,-2,-3
7409,4,1,0,1,0,1,5,3
7443,-1,-2,0,0,0,0,-1,-10
7443,2,-2,0,-2,-1,-1,2,6
7444,-5,-3,-1,-1,-2,-4,-1,-11
7444,-5,-2,0,-1,-3,-2,-4,12
7447,3,0,-1,-1,1,-1,0,-18
7447,8,3,0,0,-1,0,1,-4
7457,3,3,0,-1,1,0,0,3
7457,-4,1,-1,-1,-2,-1,-7,-4
7458,-2,-3,-1,-2,-2,-1,9,16
7458,-6,-1,-2,0,-2,1,-2,-14
7478,0,0,0,1,-2,-2,0,-2
7478,1,-2,0,0,0,-1,-4,-4
7480,2,-1,-2,0,-1,2,-3,-5
7480,0,0,-2,-1,-2,-3,0,7
7494,-8,-3,-2,0,0,0,-2,0
7494,2,0,-1,-1,0,-2,-1,1
7495,-3,-3,0,0,-1,-5,-5,-2
7495,-3,-2,-2,-1,-1,0,1,4
7516,-3,-1,-2,-1,-2,-1,-5,-17
7516,3,2,0,-1,-2,1,4,30
7524,-2,1,-2,0,0,1,-3,-2
7524,3,0,0,-1,-1,0,2,25
7529,-2,-2,-16,-3,-2,-1,-5,-22
7529,-2,-5,2,-1,0,-2,1,-15
7539,3,-1,-1,0,-2,0,1,7
7539,-5,-1,2,1,0,-4,-2,-3
7553,1,-2,-3,-4,-4,0,2,11
7553,-5,-2,-6,0,0,-1,-1,-1
7556,5,5,2,0,1,0,-3,0
7556,-1,-1,-6,0,1,-1,-1,-5
7576,0,0,3,1,-1,-2,-4,3
7576,-8,-3,-2,-3,-6,-4,-6,-12
7578,-1,-3,-2,-7,-1,-1,-1,1
7578,-2,-2,-5,-2,-2,0,0,0
7590,4,0,3,-3,2,0,0,2
7590,-3,-4,-14,-2,-1,-1,0,-6
7606,-5,-4,0,1,-2,-1,-2,0
7606,2,-1,3,-5,1,2,4,-1
7614,-1,0,3,0,-1,-1,0,0
7614,-1,-2,-7,1,-1,-1,-2,-3
7622,-6,0,-1,0,2,-1,-2,0
7622,-5,-2,0,-4,-2,-2,-5,-8
7636,-11,-3,-4,-5,-4,-1,2,1
7636,2,2,0,-1,1,2,-4,-6
7642,-3,-2,-8,3,-3,-2,-1,-6
7642,2,1,7,-8,-4,-2,-2,-9
7649,3,-1,-2,1,1,-1,5,34
7649,4,0,2,0,0,0,3,-11
7659,1,4,30,7,2,0,-2,27
7659,4,-3,-6,-11,-2,0,2,-13
7681,-3,-3,4,-16,-14,-3,-6,-11
7681,3,0,12,1,1,2,1,-5
7682,6,0,-15,1,-2,-1,1,-4
7682,1,0,2,6,1,-1,2,6
7696,-2,1,2,2,3,1,0,0
7696,0,-2,-1,-2,-3,1,-3,2
7697,-6,0,-2,-4,2,-2,-3,-27
7697,-1,-1,-3,2,-9,-1,-3,-5
7710,-3,-3,0,0,2,-1,-3,15
7710,-1,0,-16,-1,-1,-3,-3,-12
7719,-4,1,3,-1,3,1,5,22
7719,-6,-5,0,-1,-1,-1,-2,-5
7733,9,4,4,3,7,-1,2,0
7733,-3,0,-8,-2,3,4,1,-26
7740,1,4,30,19,4,-3,3,66
7740,-5,2,1,-11,-13,-5,-8,4
7756,-1,-4,-6,11,-3,0,0,-6
7756,-5,-1,11,3,2,-3,-6,-16
7757,6,-1,-19,-9,1,0,-1,-28
7757,3,-2,-3,8,4,3,3,9
7769,5,3,13,6,4,2,-3,-1
7769,-12,3,7,1,-5,0,-6,1
7778,-2,-6,-3,-6,-7,-1,8,12
7778,4,2,1,-1,3,-2,1,21
7801,3,1,-10,-6,-1,-1,-1,-20
7801,3,-2,1,-1,-1,-3,-2,17
7803,1,1,-3,-5,-5,0,-9,-36
7803,-11,-3,-6,2,4,-5,-5,17
7817,3,-3,-8,1,-1,2,6,37
7817,-1,0,3,-5,-5,-3,2,-4
7818,0,3,-20,-5,-4,-1,1,-14
7818,7,-9,-5,6,4,3,5,-7
7839,-6,-11,-7,2,-3,-4,-10,-21
7839,3,7,19,1,-1,-3,-4,9
7840,-2,-1,1,-1,-3,0,0,8
7840,4,14,8,6,2,-2,1,-5
7853,-14,-10,-7,-6,4,-6,-17,-58
7853,13,-9,-20,-7,-2,7,24,56
7860,6,-3,-7,3,6,2,-2,43
7860,5,6,-1,-8,-12,2,3,4
7876,4,4,10,2,1,2,4,13
7876,-1,1,-3,-2,-1,-4,-6,-36
7878,-8,-6,-4,-3,0,-5,-5,-22
7878,1,-2,6,1,2,0,3,5
7899,-7,1,-5,-6,-5,-2,-3,-14
7899,4,0,7,2,3,0,-3,3
7900,-10,-5,-16,-5,-6,-3,-5,-23
7900,-2,-9,2,4,9,1,1,-22
7913,-8,-2,5,-2,-8,1,-2,-14
7913,2,0,-5,-3,-2,-2,-4,7
7921,4,2,10,-2,-4,0,-2,2
7921,-13,-13,-12,-3,-4,-2,-4,-25
7937,3,4,3,1,3,-1,2,29
7937,4,-3,1,4,4,3,8,43
7939,-5,4,-35,-4,2,-4,-10,-27
7939,16,-5,19,-9,-18,1,7,32
7966,-8,-4,0,4,-3,-1,-8,26
7966,-2,-3,-11,-5,-6,-3,-3,-26
7967,2,-4,3,-2,2,1,-1,-10
7967,0,-3,-28,3,5,-5,-3,-13
7972,3,14,10,0,0,1,8,5
7972,-32,-14,-5,-3,-3,-6,-23,-89
7989,6,0,12,4,-1,3,15,78
7989,-6,3,-2,-2,3,1,-1,7
7996,9,-1,-1,-5,-4,-3,1,-14
7996,-2,-2,-13,1,0,-2,-7,-8
7998,-9,-1,14,-2,-3,-1,-3,-41
7998,-2,-4,-7,6,3,0,-2,-33
8018,-19,-7,-35,-17,-5,-2,3,37
8018,6,0,11,13,3,-1,6,23
8020,27,8,11,-4,-9,0,-6,-44
8020,18,15,4,-1,0,-3,-1,12
8032,10,11,72,26,17,4,7,-21
8032,-15,6,-32,-35,-15,0,6,16
8041,2,4,-10,6,-4,-2,-4,-10
8041,-4,-9,-10,1,-3,-5,-9,6
8056,-8,-22,-7,-6,1,-2,-17,-73
8056,8,-8,24,2,-6,-4,-2,59
8057,11,-9,28,5,2,8,18,37
8057,-5,4,-7,-2,2,3,-6,-14
8079,17,2,-15,7,-7,-3,7,30
8079,-6,-22,1,-11,-9,-18,-12,-50
8080,-44,-23,-22,-8,-5,-14,-14,-48
8080,7,1,6,6,7,-3,2,26
8092,-17,-9,34,6,-12,7,7,11
8092,-19,7,-40,-16,19,11,0,-91
8101,-19,-8,-34,-12,-5,-2,-15,8
8101,13,31,35,17,23,8,18,98
8117,10,-3,-19,-42,-17,-7,-7,15
8117,-7,26,43,94,43,2,-2,12
8117,20,-9,9,-44,38,18,8,-51
8117,-4,21,-77,-41,-33,-9,-19,-45
8139,28,19,60,-24,-77,-14,4,66
8139,-14,-42,-47,13,-19,-7,-13,-1
8141,-17,53,60,9,16,-12,-4,44
8141,-10,-28,-31,-46,0,-6,21,29
8152,1,-79,-50,71,37,39,16,-29
8152,5,-14,104,84,29,36,-3,19
8161,56,68,9,29,-54,-56,-34,-28
8161,8,-33,-15,-6,-22,-50,2,-32
8176,-104,-11,25,42,29,-8,-28,-49
8176,-30,-17,-55,-103,-6,5,-4,-39
8178,19,-60,-55,-56,-29,43,41,43
8178,2,7,33,14,-2,24,14,8
8198,35,50,58,79,60,-4,-6,-7
8198,-16,25,16,31,3,-6,-11,0
8200,-22,18,61,37,-56,-45,-36,-39
8200,-40,5,-1,-7,-29,-9,4,-13
8212,-34,-119,-77,70,31,54,20,-14
8212,31,122,0,-22,38,18,4,36
8222,14,-5,32,89,-3,-20,13,25
8222,-20,-56,-9,-51,-7,106,6,-34
8243,26,58,5,20,53,-107,-14,-10
8243,-2,-12,22,-35,-93,-19,-11,-5
8246,-3,-38,-70,-14,-35,-4,3,-23
8246,-39,19,14,-37,-18,-48,-31,-40
8266,56,-8,-8,-88,-17,38,11,74
8266,16,-43,-45,-2,66,48,34,27
8267,-22,11,49,21,66,-16,14,-40
8267,-24,-5,0,10,-11,7,-36,-66
8272,23,34,-59,-33,-57,-60,-16,-72
8272,9,-28,66,-27,20,-1,11,33
8288,25,64,-34,-38,-11,55,26,9
8288,17,13,20,47,51,28,46,-2
8296,-9,7,-16,15,2,10,3,-98
8296,15,-1,-54,-94,-26,-60,-10,45
8298,-48,-38,-19,4,-26,-25,-47,-48
8298,42,1,-5,-47,-38,-41,-16,42
8319,-7,30,29,41,-3,30,6,-32
8319,34,3,-12,39,20,39,44,44
8321,-21,-68,-41,-16,54,19,11,19
8321,7,-14,-81,27,26,-8,-38,-17
8332,-17,4,14,-56,-51,-5,0,-17
8332,3,17,-8,4,9,-13,-24,16
8341,12,35,58,91,68,56,2,-29
8341,34,1,38,26,-54,-14,44,69
8356,-6,11,-2,8,-10,-23,-16,-16
8356,-14,-21,-19,-2,-52,-26,-4,-53
8357,-1,1,1,31,16,-3,8,32
8357,-19,-8,5,31,34,-23,-41,-69
8379,12,14,-22,-117,-49,-28,-40,49
8379,17,11,-18,7,2,27,37,-7
8380,-7,-49,-26,-12,28,28,2,20
8380,-4,22,98,113,41,24,30,5
8392,13,14,-56,-24,-7,22,17,38
8392,-31,-12,11,71,-31,-82,-71,-48
8401,18,16,12,-25,-9,21,4,8
8401,-8,9,-5,4,33,-15,-28,-57
8416,-15,-11,34,44,8,67,30,48
8416,7,-17,0,53,55,78,27,-19
8418,3,18,6,-14,-10,-17,30,-8
8418,42,-35,20,2,-79,-98,-21,31
8439,-15,-29,21,92,-35,-105,-92,-32
8439,9,15,34,66,-1,-15,-24,-44
8445,-6,10,12,108,54,23,34,104
8445,-1,-13,-103,-101,-45,110,79,3
8452,-9,-9,5,25,70,-56,-6,-28
8452,11,-23,-19,33,-96,29,-41,-26
8461,-9,2,16,-88,66,-2,10,38
8461,-13,43,27,-33,96,92,33,18
8476,14,-2,-27,13,-37,54,-28,20
8476,-32,-2,31,56,11,-117,33,28
8477,21,10,27,84,-94,-78,-66,-13
8477,1,15,114,127,35,25,-89,-101
8498,-24,-39,-99,-128,-10,74,92,36
8498,25,12,40,23,74,-77,-27,53
8501,17,4,8,-36,-63,32,-4,6
8501,-25,1,32,71,31,24,6,17
8512,8,38,53,102,72,65,-44,-17
8512,23,-1,18,-36,-33,-40,50,-37
8522,-14,-29,-84,-94,-69,-13,-15,-12
8522,23,22,50,28,24,-10,-1,6
8544,-10,-9,-15,-14,34,63,-4,-62
8544,-41,-6,-28,-53,-5,-33,26,54
8545,7,3,29,-14,-34,4,-12,19
8545,6,18,-38,-33,-10,-8,46,92
8558,-5,-39,-4,59,84,7,-4,-40
8558,16,29,37,-12,75,75,-17,-62
8560,-23,13,90,66,-9,-3,3,-2
8560,-18,-57,-118,-80,25,59,14,-50
8573,-29,-3,-15,15,38,-116,-11,-4
8573,-25,2,33,75,59,5,-84,-16
8582,72,47,67,-86,-3,96,80,94
8582,-31,-2,-61,-104,31,1,12,-104
8595,35,20,2,-63,-128,-92,-37,14
8595,-32,-42,-117,-59,-67,-62,-19,-77
8602,-10,-33,-24,58,76,7,-24,-6
8602,1,0,23,22,0,-30,-38,90
8626,23,12,18,25,42,73,92,96
8626,-6,18,6,-103,3,89,25,-16
8634,1,-4,-61,-77,10,-41,-12,-69
8634,5,-23,-33,15,-84,-76,-30,-80
8635,-68,-28,-18,-101,-80,-48,-38,-127
8635,59,46,85,94,17,113,49,70
8649,-38,-36,-96,-69,4,-26,-5,9
8649,-36,-2,12,89,88,-10,-20,-71
8655,3,12,20,-66,-114,-52,24,-28
8655,-9,-23,-27,-29,-14,-95,-77,-21
8662,-38,-14,-34,-94,24,52,27,-109
8662,11,0,67,75,92,68,-7,-31
8679,9,18,-17,-79,0,9,18,-54
8679,-52,-21,-34,-16,-5,39,5,17
8680,52,13,-3,109,15,-103,-22,19
8680,-55,-33,12,-6,-91,-39,-18,35
8701,42,25,18,94,70,15,-16,19
8701,17,12,29,18,-27,65,43,1
8716,1,1,-5,6,63,3,0,-4
8716,14,7,13,-1,4,76,11,8
8716,15,23,9,42,-14,-63,3,48
8716,4,-8,-20,-42,-8,-66,-37,90
8722,-50,2,53,127,96,77,-2,-128
8722,51,22,0,13,18,28,62,102
8738,44,15,31,68,-48,18,67,49
8738,16,-14,-65,-71,21,-23,-32,-30
8741,-30,-17,-39,-107,-128,-74,-43,-56
8741,-34,-29,-33,-24,34,0,-23,-43
8761,-32,-10,67,108,127,53,-11,27
8761,21,29,2,-3,74,45,33,-54
8762,-12,-32,-54,-38,-94,-72,-26,-98
8762,38,34,9,-90,-3,-70,-75,68
8776,-28,-26,-52,-124,-32,-2,34,38
8776,-21,-28,-9,76,37,-5,-11,-36
8777,41,19,29,109,102,78,42,119
8777,-7,49,-16,-26,4,-48,-8,-11
8798,18,4,93,82,35,73,15,-30
8798,-52,-14,-30,-76,-124,111,20,-19
8799,30,9,-3,-37,74,-16,18,88
8799,-10,-33,-33,-78,-113,-83,41,49
8838,10,-9,-24,95,3,-90,-83,-53
8838,-43,-16,60,61,-80,-40,-46,-59
8840,-30,-7,-9,59,16,84,4,-12
8840,24,4,-6,21,123,127,94,-1
8840,3,21,-44,-117,-21,-67,-12,-16
8840,-8,-4,14,45,-59,-128,-68,-91
8844,-25,-19,-27,-37,-87,-21,29,36
8844,2,15,83,102,70,24,-64,-40
8858,-15,-28,-109,-128,127,127,115,113
8858,104,44,9,-28,20,-85,92,101
8860,-39,-26,-58,-118,-95,-115,-115,-91
8860,-4,-7,4,55,36,-64,-18,-28
8882,-39,-5,12,-55,-48,45,-31,-55
8882,-36,-1,69,127,127,113,50,-23
8883,62,23,30,40,9,122,90,68
8883,-3,-2,-30,-85,-118,-18,42,-25
8888,-34,-80,-12,-35,-33,-99,-128,-19
8888,-23,5,-28,29,32,-65,-15,-32
8903,78,31,45,115,85,70,44,49
8903,-39,-2,36,119,83,78,-20,-66
8911,40,19,6,-66,-76,-40,94,67
8911,28,-10,6,22,-22,101,63,38
8926,-51,-32,-93,-52,-94,-128,-128,-108
8926,-13,-6,-45,-12,24,96,-44,-6
8927,19,37,50,41,67,-100,106,-3
8927,20,-29,-52,-112,-108,-72,-116,22
8934,-35,12,39,62,81,-68,-3,-36
8934,16,1,7,88,24,51,95,38
8948,8,4,-14,62,-36,117,22,-33
8948,-7,18,28,6,127,120,74,26
8970,13,15,74,89,89,122,21,6
8970,-20,-7,32,46,-128,-70,-11,-35
8972,-5,-26,-65,71,21,-60,-110,26
8972,2,13,19,75,21,14,-7,23
8977,-33,-11,1,-87,-128,-55,-56,-68
8977,5,-29,29,49,65,-96,17,60
8985,0,50,-16,-46,-28,95,15,-86
8985,32,0,-7,-47,-19,11,21,70
8994,-27,-25,0,-50,-1,88,-33,-31
8994,18,38,-3,42,65,-127,61,37
9008,19,24,44,92,34,19,-9,0
9008,-4,-6,-51,-45,58,110,25,-13
9014,15,-10,9,-6,-31,-67,51,29
9014,-14,-4,-39,-85,-91,-9,-110,-25
9039,-14,-10,83,34,-23,0,17,-26
9039,7,-5,4,24,-14,-112,-35,-20
9040,-6,6,16,-63,32,82,56,-10
9040,46,11,12,71,-23,0,42,-1
9054,-11,-20,-102,-85,33,14,9,32
9054,-23,13,6,9,-26,-108,-49,-71
9055,31,4,14,99,26,91,22,65
9055,-10,3,6,1,-67,-123,-5,28
9076,-25,-8,3,-8,-51,-62,-105,-67
9076,-14,-5,25,94,-7,-12,-19,-35
9084,47,13,-42,14,57,38,79,57
9084,-4,2,39,63,117,127,33,16
9099,23,11,25,79,67,126,61,-33
9099,10,-14,-51,-64,-31,-94,61,75
9100,-31,-9,-10,-73,-90,-128,-98,-64
9100,14,-17,-41,-83,2,8,-19,54
9121,-45,-4,7,24,41,71,23,-46
9121,25,-2,0,24,58,127,75,-48
9123,50,23,20,-3,70,81,122,96
9123,-10,-18,-19,-2,-17,-14,-39,-64
9152,-25,0,42,107,22,-124,-107,-23
9152,-36,2,-7,-32,-65,-64,11,-79
9152,-12,-13,-63,-79,-127,-61,-84,-16
9152,-12,-11,-26,-25,-35,-80,-60,-43
9154,6,0,39,81,101,123,68,90
9154,19,-8,7,-73,-37,-62,14,35
9157,-43,-5,-9,22,19,29,-31,-57
9157,12,6,-7,-45,-60,32,22,-22
9191,6,-12,-16,-28,-25,-37,-30,76
9191,9,-6,9,1,17,-22,-14,22
9191,-28,2,3,10,37,35,31,-13
9191,-12,-5,7,47,44,15,14,-29
9211,3,18,-3,-50,15,1,12,15
9211,32,12,-22,-21,-86,27,16,55
9212,-9,-4,18,102,87,-53,-16,-50
9212,-10,6,-17,12,3,58,5,-38
9215,27,-6,-47,-128,-37,-74,-20,-43
9215,-30,-4,-8,3,14,-25,-37,-11
9218,30,3,4,-4,-72,51,-2,87
9218,16,8,19,21,54,-51,-17,6
9227,0,13,50,9,39,66,61,-16
9227,-4,-30,-31,-71,37,54,-37,-9
9233,-4,11,-2,6,-27,-128,-14,-54
9233,-4,-5,3,-14,12,94,-14,24
9249,7,6,17,32,-1,-25,-18,-1
9249,-7,8,19,42,4,-14,35,-31
9255,-26,-13,2,3,-13,53,-9,52
9255,28,-2,10,33,47,11,36,62
9270,-22,-12,-33,-11,-60,18,11,-55
9270,1,-2,13,11,-20,58,-49,-20
9278,-18,-9,7,78,-49,-122,-59,-41
9278,-11,4,-46,-36,-51,38,-9,-10
9287,13,-1,-1,4,32,-28,-30,18
9287,-18,-10,-13,-15,51,122,42,-12
9300,31,12,45,67,127,124,81,19
9300,-13,-12,-17,-60,-57,-123,-49,-24
9309,-7,-17,-23,-29,-40,-32,-66,-38
9309,3,19,11,46,-54,-68,-15,23
9315,2,6,28,47,115,111,22,-15
9315,8,3,-3,-58,11,-40,51,1
9332,-8,-11,-28,-14,-71,102,64,28
9332,-25,-9,0,-15,14,-71,-103,-114
9337,-1,-9,-17,-32,32,-102,-1,75
9337,15,-8,-42,-84,-128,-7,-30,-19
9346,-7,1,-3,-6,86,21,-22,-27
9346,-5,-3,-14,21,80,127,48,37
9352,6,-2,-11,-12,92,41,31,-7
9352,14,6,26,15,-3,-59,29,60
9369,17,9,-1,1,-84,-45,10,0
9369,-2,4,-1,1,-5,-10,-11,-10
9375,-3,-3,13,5,-6,11,-10,-12
9375,-9,-1,13,61,116,-19,-5,17
9400,-23,-11,-2,16,-93,-73,-15,-34
9400,-18,-7,-15,23,5,-77,-78,-51
9400,8,5,-7,-22,-19,82,32,70
9400,9,-9,45,35,-3,35,37,-27
9407,19,-14,-92,-72,34,32,26,39
9407,-25,-1,34,103,18,-88,-1,28
9412,-22,-16,-30,-38,-128,-17,-34,-49
9412,-23,-5,2,16,51,74,-11,-49
9428,43,35,44,12,55,-93,-1,8
9428,40,1,0,2,15,109,55,96
9435,-2,4,-3,-20,34,74,55,-51
9435,-18,0,-20,-76,-62,-100,-78,-34
9452,-10,1,48,77,-5,32,-32,-31
9452,-5,0,3,-30,43,31,3,-27
9466,-11,-3,-6,-78,-64,63,44,54
9466,1,0,4,-7,40,-10,19,19
9468,0,4,21,64,40,-72,-68,-10
9468,7,6,-15,-37,-59,78,44,18
9472,13,-3,16,3,24,-128,4,-6
9472,-18,-1,-15,-26,-56,94,-5,-24
9489,5,-7,12,36,19,-43,-24,36
9489,11,-9,4,17,23,38,6,-8
9495,6,4,13,57,72,59,-8,-70
9495,14,10,6,-3,45,42,64,-2
9512,8,9,19,52,4,23,-7,19
9512,-7,-15,12,-55,-67,-71,-10,-1
9535,-14,-4,-41,-17,-40,-34,-9,-40
9535,-2,-24,-7,-23,-95,-125,-88,15
9536,-8,-1,-37,-43,-23,80,36,5
9536,-14,4,10,55,93,71,18,29
9537,39,18,18,46,70,-55,4,-21
9537,-5,0,0,-34,-46,119,24,67
9549,-18,-13,8,39,-10,-98,-17,-24
9549,4,5,-6,-19,14,-21,-14,4
9555,-17,-11,8,54,-52,-29,-33,-11
9555,-7,-6,-3,27,58,82,8,-4
9570,1,1,4,-22,6,28,21,-15
9570,8,7,12,23,23,-41,6,-1
9577,-6,-2,12,-4,-7,24,-2,-16
9577,-4,0,-29,4,-32,-78,-14,-54
9586,4,5,29,71,71,85,38,21
9586,-37,-21,-42,-53,-82,-17,-9,-72
9600,18,0,-4,-23,-65,-2,-50,6
9600,3,-17,-6,-32,13,-119,-42,0
9624,2,38,-15,-26,-9,94,13,-23
9624,6,15,36,72,57,-14,21,2
9625,-22,-2,25,8,-26,-27,-9,-38
9625,22,7,1,-21,-2,96,45,65
9630,-7,-28,8,1,41,-24,16,52
9630,-16,0,-22,-28,-61,-76,-66,-76
9637,-12,4,-18,-22,-24,-58,-32,15
9637,22,19,61,127,87,41,20,-22
9655,0,-2,-2,-59,-7,28,29,25
9655,9,-3,-20,-38,-21,73,32,36
9660,-1,-10,-8,12,32,-61,-22,15
9660,-5,6,8,37,24,76,-6,-3
9668,27,-2,-11,-33,-34,-48,24,18
9668,4,1,9,9,-24,-10,4,-6
9675,-5,-1,4,13,29,-31,-31,-22
9675,-26,-23,-25,-51,-74,-32,-15,21
9690,-14,-8,6,2,27,55,2,-28
9690,23,3,-1,-5,-7,-15,25,46
9697,-10,-10,-10,-13,-26,-53,1,-10
9697,2,0,-17,-9,-18,-7,-13,-17
9706,-10,-2,-14,-10,36,8,-13,45
9706,23,0,-3,5,17,39,23,25
9713,0,4,-2,-24,-14,32,30,-21
9713,2,12,6,16,32,35,-5,-19
9728,-7,-7,4,-11,-1,-20,-12,-33
9728,-4,5,11,20,4,-47,-21,-16
9743,-12,-5,-16,-3,-45,-25,-2,61
9743,3,-8,-15,-3,30,-21,-3,17
9749,11,8,8,-27,44,50,16,10
9749,-2,-5,-18,-31,-61,3,-5,10
9757,-2,-4,20,73,47,88,-8,-22
9757,6,-2,-2,-32,9,-76,29,-29
9766,-20,-30,-21,-68,-92,-25,-11,-1
9766,0,6,-2,43,4,-68,-53,4
9780,-5,-1,7,-2,71,-10,-16,15
9780,-3,-1,-31,-72,-89,38,18,11
9789,-3,-8,-7,22,4,46,21,-46
9789,-3,-4,1,-25,16,53,21,-3
9795,18,5,4,17,26,-20,-7,2
9795,-13,11,19,39,18,30,-27,-40
9811,-7,0,9,49,21,-115,-4,-9
9811,-10,-15,1,-37,-78,-2,-14,5
9817,-9,-6,-25,-33,-5,24,-11,-13
9817,2,1,2,24,39,-11,4,10
9827,10,8,3,-51,-12,18,10,-28
9827,16,3,23,32,22,43,36,70
9849,-2,6,10,27,32,95,12,-77
9849,-6,-7,-16,-74,-66,-128,-5,-7
9850,1,15,0,-7,-80,-71,-51,2
9850,-15,-3,6,31,76,-28,-14,-21
9871,12,6,9,-17,-7,69,24,33
9871,-2,-4,-7,-24,10,72,13,-21
9872,-8,-1,4,19,2,-44,-9,-18
9872,1,2,-10,-17,7,51,2,-20
9886,24,12,15,47,22,-53,-4,70
9886,-1,3,12,42,10,13,7,-21
9888,-5,-10,-5,21,-3,8,-16,-35
9888,3,3,-4,-29,-7,-17,21,43
9908,-10,-12,-4,29,-1,15,1,-7
9908,6,-3,10,27,34,-39,16,36
9911,-4,11,-6,20,12,88,17,24
9911,-4,-9,-14,-63,-45,-51,-3,3
9915,-12,-1,13,-17,5,-15,-11,-35
9915,-4,2,26,21,-47,-52,-20,0
9931,-3,-24,-28,-70,-96,-29,-11,-18
9931,0,14,8,38,91,80,8,30
9937,9,-11,-12,-20,-10,17,9,33
9937,-6,6,1,9,-17,-45,-30,-52
9953,4,0,12,48,75,116,17,19
9953,8,-5,-1,15,25,-80,-4,-46
9960,-7,4,-5,-62,-94,-48,16,2
9960,-3,-2,-11,9,-9,-52,-45,31
9976,2,2,3,21,49,46,20,-7
9976,9,-1,9,39,91,126,43,11
9976,-13,-1,-23,-89,-80,-91,-17,-83
9976,-13,-24,2,17,52,-3,-37,23
9990,3,1,-11,-74,-66,5,9,27
9990,-4,-5,-8,-17,-43,-110,-28,5
9997,10,5,-11,-5,39,26,29,9
9997,-6,0,4,13,-2,44,-11,-43
7,-3,-7,3,20,24,21,11,32
7,3,9,10,37,96,70,27,19
20,-8,-2,8,-27,-84,7,-40,-45
20,-13,-8,-21,-24,-41,-77,2,-15
36,20,7,1,8,-36,-20,-39,39
36,-17,-6,-7,-14,-17,56,1,-72
36,18,10,9,68,85,-22,11,31
36,9,3,30,55,35,81,43,2
57,-8,-8,-28,-83,-43,-90,-39,-8
57,-13,-10,-20,-34,-60,4,-22,-27
58,-10,-2,7,44,84,31,10,-40
58,13,10,2,-7,11,101,26,59
66,2,4,17,51,-8,-70,34,32
66,-6,-16,-11,-43,-87,-128,-68,-58
80,-16,21,-3,-24,-3,-17,-39,-20
80,1,0,-9,-7,35,50,31,3
97,12,11,8,17,65,105,32,-9
97,-3,2,2,15,7,19,-14,-7
98,9,-13,-8,7,6,-63,16,42
98,11,3,2,18,-21,-2,1,-16
110,-18,-8,-3,-10,30,-33,-38,19
110,-3,-3,-8,-23,-66,7,20,15
117,2,-11,13,30,-5,-59,-13,41
117,1,4,-16,-65,-23,27,9,-26
127,-8,1,8,36,26,6,8,-34
127,8,15,11,13,24,41,-1,-25
140,-2,-3,4,29,43,34,23,10
140,-13,-3,-9,-26,16,11,9,-18
149,12,-1,9,44,-37,-85,-39,-7
149,0,-9,-11,-67,-110,-75,-12,34
154,-6,-2,-4,36,56,66,-13,-16
154,-1,-7,-2,-24,-2,34,16,-2
170,0,6,1,-33,14,58,16,-19
170,15,12,13,39,49,7,17,5
177,8,-3,-13,-62,-47,69,3,27
177,-13,-11,5,62,20,-107,-53,-14
200,2,0,-12,-37,-84,-2,9,-29
200,-5,-4,-32,-41,-1,-9,-9,-9
201,-8,-8,-3,6,22,68,15,45
201,15,11,13,17,18,8,20,-47
217,11,-4,6,77,33,21,40,55
217,0,5,9,-4,21,86,18,-21
218,-1,-2,-16,-36,-39,-93,-40,-25
218,-1,-1,-9,-3,-45,19,-28,4
232,-10,-13,-6,-7,17,23,-14,-3
232,7,1,10,26,45,38,40,2
237,-1,-3,8,40,41,35,-3,4
237,-13,10,3,8,-41,-74,-7,-8
252,9,5,-1,-10,4,27,16,29
252,0,3,3,-5,13,-10,11,13
260,-12,-8,-5,-14,-59,-79,-37,-36
260,0,0,-5,17,4,-22,-34,4
275,-17,1,9,42,70,106,27,-26
275,-13,-11,-19,-5,13,-89,-17,-11
276,0,-8,-8,-32,-84,-27,0,-17
276,-9,-3,-7,-57,-42,-51,-47,-8
290,0,-2,-2,-22,15,34,2,-16
290,13,7,20,39,26,-1,11,24
297,-8,-3,0,-13,-1,29,18,-53
297,8,3,0,7,23,61,26,35
312,-1,6,7,-15,-7,-42,-8,17
312,-4,5,17,81,67,70,13,2
320,6,-5,-23,-93,-85,-64,-25,-3
320,-12,-9,-12,-22,-22,31,4,-26
335,6,-3,6,40,69,-68,-17,79
335,8,1,-4,-28,-54,17,20,-22
336,-9,3,4,-14,-35,-18,-21,-1
336,17,-5,-10,-2,15,2,3,95
360,-7,-6,18,66,-2,-37,16,-60
360,-17,-13,-17,-46,-10,38,-30,-9
360,5,6,5,26,35,-20,16,-29
360,8,8,8,-3,29,-8,-16,38
372,-3,6,1,19,-37,52,-16,-43
372,7,-3,12,11,9,-45,14,31
380,12,5,-6,10,-3,41,16,14
380,-2,-4,-3,-12,17,23,21,-23
395,-7,-5,-23,51,9,-17,0,-12
395,-13,-6,-9,-65,-79,-53,-58,-56
397,5,1,6,19,25,20,-9,54
397,-6,-1,-3,24,43,38,14,-15
409,6,5,9,-24,-7,-37,9,-11
409,-5,2,3,24,12,53,-11,-23
418,13,1,4,41,66,-13,15,74
418,19,-5,2,-31,-70,-17,6,-17
433,-18,2,-6,-2,38,43,-18,-21
433,6,10,14,3,-10,-66,12,-4
440,-17,-10,2,-3,6,31,-17,-70
440,14,6,10,83,57,12,11,29
464,-3,-5,-22,-64,-60,30,-2,-7
464,12,0,3,0,-30,-50,-7,22
465,-4,5,-1,-43,-11,-3,-9,-17
465,-3,1,0,1,-32,15,-9,-32
470,-5,-4,16,-14,25,-78,-25,-48
470,7,-4,-19,9,-2,15,16,41
478,5,-6,7,17,-30,-26,1,37
478,-15,-5,-12,-1,44,102,31,20
492,11,11,1,-36,22,-48,-26,13
492,-4,-7,-2,3,-2,39,39,18
500,0,-7,-7,26,-9,-38,-14,-1
500,-12,-14,-11,-53,-37,-15,18,-26
516,23,4,3,18,14,15,-5,27
516,2,6,6,-27,-26,-5,-13,-6
516,-4,7,19,98,45,-3,5,-13
516,-9,-18,2,-16,-42,8,-1,24
530,-13,-4,-11,-16,-3,-26,-28,-61
530,7,2,3,-13,-42,24,38,73
537,10,-1,0,-4,27,10,-18,-42
537,30,28,24,93,39,-65,8,63
554,-35,-30,-27,-73,-79,38,-38,-54
554,2,18,7,57,58,-34,-17,20
560,-19,-3,11,12,66,69,25,14
560,-1,1,-20,-71,-73,-39,-25,15
576,33,17,10,13,-10,-54,20,32
576,-10,-14,-3,15,25,53,-22,-45
577,-17,-1,-9,25,6,5,8,-23
577,-3,-10,-19,-51,-23,16,-24,-48
590,0,0,8,45,30,-41,5,90
590,-7,4,13,12,4,-33,-20,-35
598,2,-4,-2,-35,-5,88,22,4
598,11,4,-7,-9,17,-39,30,20
613,-7,0,-3,-26,-72,-27,-13,-55
613,-9,-8,-5,6,21,-19,-40,-2
620,9,8,-3,-6,37,13,15,21
620,-12,-1,1,3,31,30,-15,-15
636,4,-3,0,5,47,27,54,-45
636,2,-12,-21,-18,-52,-14,-5,15
636,12,14,8,-22,-19,-39,30,0
636,-14,-6,1,-29,-42,-18,-30,-46
650,-8,-3,-9,34,-3,-50,-29,30
650,-7,-6,7,-6,4,65,9,-50
657,5,-10,-13,-7,27,26,27,50
657,-4,4,12,26,101,45,-6,-62
672,6,-3,5,-35,-49,-50,-12,89
672,6,2,-12,8,-27,-35,-25,-29
679,-18,-12,-9,-14,16,83,12,-13
679,-3,-4,-6,-48,-53,-85,21,-6
696,-20,-10,-1,-15,-30,5,-38,-12
696,4,4,1,16,42,39,5,14
703,3,7,-18,-66,-84,-125,-33,-26
703,-4,-3,9,70,34,27,-3,40
710,10,1,2,-47,39,125,54,-32
710,-4,-5,-9,-67,-35,-96,7,6
717,-3,-5,-2,10,-20,50,-12,-33
717,-3,0,7,15,26,-35,-33,12
740,3,2,-17,-5,-30,6,36,30
740,-5,0,4,15,60,17,-36,-12
741,3,-12,-2,-15,-48,-46,-6,15
741,23,14,5,67,82,69,55,11
764,-8,-6,-7,-43,-52,-4,6,-24
764,-14,-7,-8,-11,-31,-46,-50,-41
765,-9,12,20,83,74,-36,2,-55
765,16,0,0,-8,-38,14,-10,-11
778,-2,-7,-13,-4,-1,33,13,-46
778,-4,-1,3,4,-2,1,31,45
778,-9,-2,-6,-50,13,6,-9,-7
778,-4,4,6,23,-33,-26,-19,-2
793,2,3,15,41,27,18,1,-9
793,-8,-11,-4,-47,-64,4,-6,-16
808,3,-5,-5,9,23,-51,-24,0
808,-6,0,-9,-56,-9,23,19,18
815,4,9,3,8,-9,-2,-2,13
815,-5,-4,9,85,89,83,30,12
823,18,16,8,23,39,13,40,3
823,-1,-5,-6,-74,-116,-15,-15,-15
855,-24,-7,-8,18,-11,-124,-95,-40
855,15,11,9,59,103,112,40,-21
855,-5,-10,-17,-70,-97,-74,-8,59
855,2,4,-4,-11,16,5,-6,-16
857,11,2,2,43,101,19,42,89
857,-19,-12,-22,-66,-113,-7,-11,-32
860,19,16,5,-33,-32,-22,-35,8
860,-21,-8,-5,1,-5,-10,-13,-38
875,23,-1,11,47,31,21,13,51
875,11,7,0,-23,70,39,39,11
882,4,-3,2,-14,3,19,28,12
882,-14,-4,-4,-10,-56,-51,-17,-4
898,-1,-8,8,10,-17,34,-14,-19
898,-7,9,13,66,71,30,9,-12
898,18,13,12,-14,-8,28,48,33
898,0,-8,-2,17,2,-68,-21,26
913,-7,-2,1,10,-16,-6,-42,-36
913,-4,-4,14,35,9,-75,1,24
920,-30,-11,-21,-2,27,71,-33,-17
920,27,13,14,48,26,88,89,43
935,-7,-4,-21,-53,-16,-56,-24,-1
935,8,-2,-7,-54,-99,-81,-33,-5
942,-6,3,10,31,10,10,-5,-72
942,-22,-6,2,30,71,17,-7,-23
958,12,5,4,-42,19,-2,-1,52
958,9,4,-6,-12,-19,8,14,-10
958,-7,-15,-12,-7,-22,50,1,-7
958,6,4,14,42,57,-49,-15,26
980,-11,-3,2,9,-56,-5,8,-39
980,-16,-8,-11,-14,26,15,-33,-15
981,17,2,0,-1,-40,16,24,31
981,0,4,9,63,71,1,-9,-13
995,-14,-2,0,-24,-11,-1,20,30
995,11,-2,-8,2,-13,-7,18,40
1002,-6,1,10,23,-10,-18,-49,-86
1002,-6,-17,-16,-35,-1,-11,15,7
1018,-13,2,-4,-38,-65,-60,-29,-27
1018,0,0,-4,-2,34,101,24,10
1019,6,10,15,82,90,59,60,26
1019,3,7,6,-29,-55,-92,-32,-17
1032,-6,-13,-16,-26,-70,-26,-32,-53
1032,-6,-5,-2,53,66,-30,-50,-6
1039,5,-10,-7,-29,-6,54,16,13
1039,4,4,-26,-52,-45,-14,-5,23
1063,6,4,5,22,30,56,35,-7
1063,-15,1,9,23,27,60,36,-23
1063,0,-12,-4,5,-7,-128,-47,17
1063,7,19,4,14,13,12,-11,-11
1077,-7,-3,-5,-43,-25,2,-16,-26
1077,12,11,6,11,-5,-59,-22,15
1078,-24,-5,6,-12,29,71,-2,-56
1078,16,-6,-5,-79,-23,21,34,91
1093,1,1,1,32,60,125,36,1
1093,7,3,12,-3,-42,-128,-35,-43
1100,-1,-1,-11,-1,-52,-14,-48,4
1100,-20,-13,-8,-56,-6,-19,-29,-65
1114,4,1,-1,34,23,-9,22,10
1114,6,-1,0,-24,5,12,25,35
1122,-12,-5,-17,-75,-91,-47,2,-5
1122,-1,4,6,35,32,110,17,-19
1138,20,6,4,41,92,5,19,47
1138,10,2,5,-12,-80,-70,-3,16
1139,-7,2,9,-4,19,-41,-19,-7
1139,-6,1,16,85,74,9,-30,-36
1151,-19,-19,-36,-110,-112,13,6,-22
1151,6,5,2,18,54,53,13,-42
1159,8,4,7,16,4,-70,-10,22
1159,-10,-7,-1,73,-7,72,10,-14
1175,1,0,0,-27,14,-97,-28,-24
1175,-12,-13,-5,-21,-58,-38,5,-19
1191,-2,3,-4,12,46,27,-18,42
1191,6,1,-13,-79,-70,2,31,1
1198,-3,0,7,27,29,53,-24,-27
1198,1,-1,-5,-24,-37,-33,8,14
1198,3,0,7,21,64,35,8,-11
1198,-5,-4,0,7,15,38,-11,-11
1212,7,6,11,32,-23,-54,5,32
1212,-9,-5,11,-68,-24,-4,-9,-1
