0,1,1,1,-1,1,0,0,-1,0.793457,0.0551758,0.349121,-151.75,-123.625,-97,2.67096,-1.47717,-3.11409
0,3,0,0,-2,-2,0,0,0,0.793457,0.0551758,0.349121,-151.75,-123.625,-97,2.67096,-1.47717,-3.11409
1,7,0,-2,-3,-1,0,-2,0,0.793457,0.0551758,0.349121,-151.75,-123.625,-97,2.67096,-1.47717,-3.11409
1,5,0,-2,-3,-1,-2,0,1,0.793457,0.0551758,0.349121,-151.75,-123.625,-97,2.67096,-1.47717,-3.11409
2,3,0,-2,-3,-2,-1,0,-1,0.793457,0.0551758,0.349121,-151.75,-123.625,-97,2.67096,-1.47717,-3.11409
2,-2,1,1,0,-1,-2,-1,-1,0.793457,0.0551758,0.349121,-151.75,-123.625,-97,2.67096,-1.47717,-3.11409
5,-2,1,1,0,1,-1,-1,-1,0.793457,0.0551758,0.349121,-151.75,-123.625,-97,2.67096,-1.47717,-3.11409
5,0,-1,0,0,0,1,0,0,0.793457,0.0551758,0.349121,-151.75,-123.625,-97,2.67096,-1.47717,-3.11409
12,2,-1,-1,1,0,0,0,0,0.852051,0.0078125,0.223145,-139.438,-125.562,-102.125,2.54697,-1.4223,-3.03867
12,3,-1,0,0,1,-1,0,-3,0.852051,0.0078125,0.223145,-139.438,-125.562,-102.125,2.54697,-1.4223,-3.03867
20,0,-1,-1,0,-2,0,-1,-1,0.852051,0.0078125,0.223145,-139.438,-125.562,-102.125,2.54697,-1.4223,-3.03867
20,1,-1,-4,1,-1,-1,-2,-2,0.852051,0.0078125,0.223145,-139.438,-125.562,-102.125,2.54697,-1.4223,-3.03867
27,-1,-2,-1,0,0,0,0,0,0.943359,-0.0795898,0.133789,-109.062,-121.438,-103.438,2.48356,-1.36953,-3.0127
27,0,-2,-3,-1,-1,-1,0,-1,0.943359,-0.0795898,0.133789,-109.062,-121.438,-103.438,2.48356,-1.36953,-3.0127
41,-1,-2,-1,-1,1,-1,0,0,0.943359,-0.0795898,0.133789,-109.062,-121.438,-103.438,2.48356,-1.36953,-3.0127
41,-1,-3,-1,-4,0,0,0,-2,0.943359,-0.0795898,0.133789,-109.062,-121.438,-103.438,2.48356,-1.36953,-3.0127
53,0,0,-1,-2,-1,-2,-2,-2,0.987793,-0.112793,0.0976562,-53.25,-109.312,-96.4375,2.45478,-1.32098,-3.00224
53,-1,0,-2,-3,-1,-2,-3,-1,0.987793,-0.112793,0.0976562,-53.25,-109.312,-96.4375,2.45478,-1.32098,-3.00224
64,0,0,0,-3,1,-1,-1,-2,0.987793,-0.112793,0.0976562,-53.25,-109.312,-96.4375,2.45478,-1.32098,-3.00224
64,-1,-1,-1,-5,0,-2,-1,-1,0.987793,-0.112793,0.0976562,-53.25,-109.312,-96.4375,2.45478,-1.32098,-3.00224
81,-3,-2,-2,-7,0,-2,-1,0,1.00488,-0.019043,0.0527344,11.75,-93,-76.625,2.45649,-1.287,-2.99994
81,-3,-2,-1,-5,-1,-2,-1,-1,1.00488,-0.019043,0.0527344,11.75,-93,-76.625,2.45649,-1.287,-2.99994
119,0,-1,0,2,-2,-1,-3,-2,1.07422,0.208496,-0.0341797,65,-51.75,-18.25,2.50601,-1.24879,-3.0095
119,0,-1,-1,1,0,0,1,-2,1.07422,0.208496,-0.0341797,65,-51.75,-18.25,2.50601,-1.24879,-3.0095
120,0,-3,-2,2,2,1,-1,-2,1.07422,0.208496,-0.0341797,65,-51.75,-18.25,2.50601,-1.24879,-3.0095
120,1,-1,0,0,-1,-2,0,-1,1.07422,0.208496,-0.0341797,65,-51.75,-18.25,2.50601,-1.24879,-3.0095
120,0,-3,1,1,1,0,1,-2,1.07422,0.208496,-0.0341797,65,-51.75,-18.25,2.50601,-1.24879,-3.0095
120,1,-1,2,0,-3,0,-1,-2,1.07422,0.208496,-0.0341797,65,-51.75,-18.25,2.50601,-1.24879,-3.0095
124,0,0,-1,1,-3,-1,1,-1,1.07422,0.208496,-0.0341797,65,-51.75,-18.25,2.50601,-1.24879,-3.0095
124,0,1,-1,3,-2,-2,-1,-2,1.07422,0.208496,-0.0341797,65,-51.75,-18.25,2.50601,-1.24879,-3.0095
131,-1,0,-3,2,-2,-1,0,-1,1.07129,0.191895,-0.0205078,55.375,-26.25,5.5,2.5344,-1.24796,-3.02022
131,-1,-1,-2,2,-3,-1,1,0,1.07129,0.191895,-0.0205078,55.375,-26.25,5.5,2.5344,-1.24796,-3.02022
138,0,0,-1,1,-3,-1,0,-2,1.07129,0.191895,-0.0205078,55.375,-26.25,5.5,2.5344,-1.24796,-3.02022
138,-1,0,-2,0,-2,-1,-2,-1,1.07129,0.191895,-0.0205078,55.375,-26.25,5.5,2.5344,-1.24796,-3.02022
147,0,2,-3,0,-3,-3,-1,0,1.03613,0.105469,0.034668,50.9375,-3.1875,19.875,2.56289,-1.25778,-3.03257
147,-2,0,-2,0,0,-2,0,-2,1.03613,0.105469,0.034668,50.9375,-3.1875,19.875,2.56289,-1.25778,-3.03257
161,-1,-1,-1,1,-3,-1,-1,-2,1.03613,0.105469,0.034668,50.9375,-3.1875,19.875,2.56289,-1.25778,-3.03257
161,-1,-1,-1,-1,-2,0,2,1,1.03613,0.105469,0.034668,50.9375,-3.1875,19.875,2.56289,-1.25778,-3.03257
169,0,-3,-2,-4,-3,-1,-1,1,0.97998,0.0375977,0.0751953,51.875,14.6875,24.3125,2.58892,-1.275,-3.04125
169,-1,0,-2,-2,-3,-2,0,-2,0.97998,0.0375977,0.0751953,51.875,14.6875,24.3125,2.58892,-1.275,-3.04125
183,-2,0,-2,-4,-2,-2,-1,-1,0.97998,0.0375977,0.0751953,51.875,14.6875,24.3125,2.58892,-1.275,-3.04125
183,0,0,-3,-5,0,0,0,-2,0.97998,0.0375977,0.0751953,51.875,14.6875,24.3125,2.58892,-1.275,-3.04125
192,2,0,-2,-3,0,0,0,-2,0.911133,0.0107422,0.0776367,45.625,26.1875,18.1875,2.60291,-1.29351,-3.03972
192,0,-3,-2,-4,-2,-1,-1,-1,0.911133,0.0107422,0.0776367,45.625,26.1875,18.1875,2.60291,-1.29351,-3.03972
207,1,-1,-2,-5,-2,-2,0,-1,0.911133,0.0107422,0.0776367,45.625,26.1875,18.1875,2.60291,-1.29351,-3.03972
207,0,-2,-2,-3,-1,-1,-1,-1,0.911133,0.0107422,0.0776367,45.625,26.1875,18.1875,2.60291,-1.29351,-3.03972
209,-1,-3,-1,-4,-2,0,-1,0,0.845215,0.0146484,0.065918,20.375,35.9375,9.375,2.59248,-1.31235,-3.02176
209,-2,-2,-3,-3,0,-1,-1,-1,0.845215,0.0146484,0.065918,20.375,35.9375,9.375,2.59248,-1.31235,-3.02176
230,-1,0,-2,-3,1,0,0,-1,0.845215,0.0146484,0.065918,20.375,35.9375,9.375,2.59248,-1.31235,-3.02176
230,-3,0,-2,-4,0,-2,-1,-2,0.845215,0.0146484,0.065918,20.375,35.9375,9.375,2.59248,-1.31235,-3.02176
232,-2,0,-2,-3,0,0,0,-3,0.769531,-0.0117188,0.102539,-11.3125,44.4375,4.625,2.55706,-1.3333,-2.98938
232,-1,1,-1,-3,0,-1,-2,0,0.769531,-0.0117188,0.102539,-11.3125,44.4375,4.625,2.55706,-1.3333,-2.98938
243,-2,-2,-2,0,-1,-1,-2,-1,0.769531,-0.0117188,0.102539,-11.3125,44.4375,4.625,2.55706,-1.3333,-2.98938
243,0,-3,0,1,-2,-1,-1,-1,0.769531,-0.0117188,0.102539,-11.3125,44.4375,4.625,2.55706,-1.3333,-2.98938
252,1,-3,-2,-1,0,-1,0,0,0.739746,-0.0683594,0.142578,-39.5625,52.875,6.0625,2.50169,-1.35682,-2.94711
252,0,-2,-1,0,-1,-1,-3,0,0.739746,-0.0683594,0.142578,-39.5625,52.875,6.0625,2.50169,-1.35682,-2.94711
266,0,-3,1,1,0,0,-1,-2,0.739746,-0.0683594,0.142578,-39.5625,52.875,6.0625,2.50169,-1.35682,-2.94711
266,1,-2,-1,1,-1,1,-2,-2,0.739746,-0.0683594,0.142578,-39.5625,52.875,6.0625,2.50169,-1.35682,-2.94711
274,-2,-1,0,-1,-1,-1,-3,0,0.763672,-0.140625,0.169922,-53.5625,59.875,9.9375,2.43274,-1.38414,-2.89582
274,1,-1,-1,1,1,1,-2,-1,0.763672,-0.140625,0.169922,-53.5625,59.875,9.9375,2.43274,-1.38414,-2.89582
289,-1,0,-2,0,-2,-1,-1,0,0.763672,-0.140625,0.169922,-53.5625,59.875,9.9375,2.43274,-1.38414,-2.89582
289,-2,-3,-2,0,-1,-2,-2,0,0.763672,-0.140625,0.169922,-53.5625,59.875,9.9375,2.43274,-1.38414,-2.89582
291,-1,0,0,4,-1,-1,0,0,0.789551,-0.165039,0.194336,-60.125,64.625,14.625,2.34307,-1.41361,-2.82591
291,0,-2,0,1,-1,-1,-2,-1,0.789551,-0.165039,0.194336,-60.125,64.625,14.625,2.34307,-1.41361,-2.82591
303,0,0,-1,2,0,-1,-2,1,0.789551,-0.165039,0.194336,-60.125,64.625,14.625,2.34307,-1.41361,-2.82591
303,0,-1,-1,1,0,-1,-1,-1,0.789551,-0.165039,0.194336,-60.125,64.625,14.625,2.34307,-1.41361,-2.82591
312,-1,0,-1,1,-1,-2,-1,-1,0.77002,-0.147949,0.171875,-64.0625,66.75,18.5625,2.22262,-1.44189,-2.72691
312,-1,0,-1,-1,-1,0,-1,0,0.77002,-0.147949,0.171875,-64.0625,66.75,18.5625,2.22262,-1.44189,-2.72691
326,-1,1,0,0,0,-1,1,-1,0.77002,-0.147949,0.171875,-64.0625,66.75,18.5625,2.22262,-1.44189,-2.72691
326,-1,-1,1,0,-2,-1,-2,0,0.77002,-0.147949,0.171875,-64.0625,66.75,18.5625,2.22262,-1.44189,-2.72691
333,-2,0,0,-1,0,1,-1,0,0.76123,-0.136719,0.186523,-60.5625,65.125,22.375,2.05593,-1.46795,-2.58056
333,-2,-2,2,0,-2,-2,-1,-1,0.76123,-0.136719,0.186523,-60.5625,65.125,22.375,2.05593,-1.46795,-2.58056
350,0,-1,2,-1,-1,0,-2,0,0.76123,-0.136719,0.186523,-60.5625,65.125,22.375,2.05593,-1.46795,-2.58056
350,-2,2,1,-2,0,0,0,1,0.76123,-0.136719,0.186523,-60.5625,65.125,22.375,2.05593,-1.46795,-2.58056
352,-2,-1,1,-2,0,-1,-2,0,0.785156,-0.183105,0.184082,-37.0625,58.375,23.8125,1.84494,-1.49066,-2.38199
352,0,0,-2,-1,-1,0,-1,0,0.785156,-0.183105,0.184082,-37.0625,58.375,23.8125,1.84494,-1.49066,-2.38199
372,-1,-2,-2,-1,-1,-1,-2,0,0.785156,-0.183105,0.184082,-37.0625,58.375,23.8125,1.84494,-1.49066,-2.38199
372,-2,-2,-3,0,-2,-1,0,0,0.785156,-0.183105,0.184082,-37.0625,58.375,23.8125,1.84494,-1.49066,-2.38199
374,0,-1,-2,2,0,0,0,0,0.858887,-0.179199,0.147461,-4.5,51.125,26.1875,1.57487,-1.50849,-2.11298
374,-1,0,-3,0,-1,-1,1,-1,0.858887,-0.179199,0.147461,-4.5,51.125,26.1875,1.57487,-1.50849,-2.11298
387,-3,-1,-3,-1,-1,0,-1,-2,0.858887,-0.179199,0.147461,-4.5,51.125,26.1875,1.57487,-1.50849,-2.11298
387,1,-1,0,0,0,-2,-1,0,0.858887,-0.179199,0.147461,-4.5,51.125,26.1875,1.57487,-1.50849,-2.11298
394,0,-1,-1,0,-2,1,1,-2,0.928711,-0.133789,0.131348,30.5,44.5,31.25,1.22021,-1.52006,-1.74738
394,1,-1,-1,-1,-1,-1,-2,0,0.928711,-0.133789,0.131348,30.5,44.5,31.25,1.22021,-1.52006,-1.74738
410,-1,-1,0,0,0,0,0,-2,0.928711,-0.133789,0.131348,30.5,44.5,31.25,1.22021,-1.52006,-1.74738
410,0,-2,0,0,-1,1,-1,-1,0.928711,-0.133789,0.131348,30.5,44.5,31.25,1.22021,-1.52006,-1.74738
411,-1,-2,-2,0,-2,-1,0,-1,1.02441,-0.0825195,0.0810547,52.75,39.1875,32.75,0.818848,-1.52466,-1.32727
411,-1,-2,-1,0,0,-1,0,0,1.02441,-0.0825195,0.0810547,52.75,39.1875,32.75,0.818848,-1.52466,-1.32727
432,2,-2,-2,0,-2,-1,0,0,1.02441,-0.0825195,0.0810547,52.75,39.1875,32.75,0.818848,-1.52466,-1.32727
432,-1,0,0,-2,1,0,0,1,1.02441,-0.0825195,0.0810547,52.75,39.1875,32.75,0.818848,-1.52466,-1.32727
434,1,-3,-1,0,-1,-2,-3,-2,1.08252,-0.0292969,0.0605469,54.875,36.4375,32.625,0.45782,-1.52186,-0.946801
434,-2,-1,-1,1,-1,-1,0,0,1.08252,-0.0292969,0.0605469,54.875,36.4375,32.625,0.45782,-1.52186,-0.946801
446,-1,-1,-2,0,-2,-2,-4,1,1.08252,-0.0292969,0.0605469,54.875,36.4375,32.625,0.45782,-1.52186,-0.946801
446,-2,-2,0,0,-1,-2,-2,-1,1.08252,-0.0292969,0.0605469,54.875,36.4375,32.625,0.45782,-1.52186,-0.946801
453,-2,-2,0,-1,-3,-1,0,-2,1.10107,-0.046875,0.0512695,46.0625,34.3125,31.4375,0.182296,-1.5141,-0.654621
453,0,-2,-3,-1,-2,-2,0,-2,1.10107,-0.046875,0.0512695,46.0625,34.3125,31.4375,0.182296,-1.5141,-0.654621
469,-1,-1,-2,-1,-1,-1,0,-1,1.10107,-0.046875,0.0512695,46.0625,34.3125,31.4375,0.182296,-1.5141,-0.654621
469,0,-2,-1,-2,-2,0,-1,0,1.10107,-0.046875,0.0512695,46.0625,34.3125,31.4375,0.182296,-1.5141,-0.654621
471,-3,1,0,-2,-1,-2,-1,-1,1.14551,-0.133789,0.0566406,42.5,33.4375,30.625,-0.0412162,-1.50456,-0.416373
471,-2,1,-2,-1,-3,-1,0,-1,1.14551,-0.133789,0.0566406,42.5,33.4375,30.625,-0.0412162,-1.50456,-0.416373
493,0,0,-1,0,0,0,0,-2,1.14551,-0.133789,0.0566406,42.5,33.4375,30.625,-0.0412162,-1.50456,-0.416373
493,-1,0,-1,-1,0,-2,-1,-3,1.14551,-0.133789,0.0566406,42.5,33.4375,30.625,-0.0412162,-1.50456,-0.416373
494,0,-2,0,-1,0,-3,-2,-1,1.24365,-0.185547,0.0439453,53.125,35.3125,29.4375,-0.200913,-1.49174,-0.237879
494,1,-1,1,-1,-2,-1,-1,-1,1.24365,-0.185547,0.0439453,53.125,35.3125,29.4375,-0.200913,-1.49174,-0.237879
507,-1,1,-2,-3,-1,-1,0,-2,1.24365,-0.185547,0.0439453,53.125,35.3125,29.4375,-0.200913,-1.49174,-0.237879
507,-1,0,-1,0,-2,0,0,-2,1.24365,-0.185547,0.0439453,53.125,35.3125,29.4375,-0.200913,-1.49174,-0.237879
514,-1,-1,-1,-2,0,0,1,-1,1.23682,-0.162598,0.0234375,61.9375,38.75,26.5,-0.286374,-1.47816,-0.130865
514,-1,0,-1,0,-1,-1,-1,-1,1.23682,-0.162598,0.0234375,61.9375,38.75,26.5,-0.286374,-1.47816,-0.130865
530,0,-1,-1,-2,-1,-2,-1,0,1.23682,-0.162598,0.0234375,61.9375,38.75,26.5,-0.286374,-1.47816,-0.130865
530,0,0,-4,-2,-1,-1,1,-1,1.23682,-0.162598,0.0234375,61.9375,38.75,26.5,-0.286374,-1.47816,-0.130865
531,0,0,-3,-2,-2,-3,-3,0,1.16553,-0.105957,0.0224609,61.6875,41.125,25,-0.32668,-1.46257,-0.0685084
531,-2,-1,0,-3,-1,-1,-2,-2,1.16553,-0.105957,0.0224609,61.6875,41.125,25,-0.32668,-1.46257,-0.0685084
552,-3,-1,-1,-2,-2,-1,-2,-1,1.16553,-0.105957,0.0224609,61.6875,41.125,25,-0.32668,-1.46257,-0.0685084
552,0,-2,-2,1,-2,-3,-1,-1,1.16553,-0.105957,0.0224609,61.6875,41.125,25,-0.32668,-1.46257,-0.0685084
554,-1,-1,0,0,-1,-1,0,-1,1.15869,-0.0551758,-0.0112305,55.6875,44.875,24.5625,-0.344692,-1.44897,-0.0311876
554,0,-1,-1,-2,-2,-1,-1,0,1.15869,-0.0551758,-0.0112305,55.6875,44.875,24.5625,-0.344692,-1.44897,-0.0311876
567,0,1,0,-3,-1,-2,0,0,1.15869,-0.0551758,-0.0112305,55.6875,44.875,24.5625,-0.344692,-1.44897,-0.0311876
567,-1,-1,-3,-2,0,0,-1,0,1.15869,-0.0551758,-0.0112305,55.6875,44.875,24.5625,-0.344692,-1.44897,-0.0311876
574,1,0,-2,0,0,-2,-1,0,1.12793,0.0205078,-0.0117188,34.5625,50.75,24.6875,-0.345582,-1.43316,-0.0179352
574,0,0,-1,-1,-1,-1,-1,-2,1.12793,0.0205078,-0.0117188,34.5625,50.75,24.6875,-0.345582,-1.43316,-0.0179352
589,0,0,-2,0,-1,-1,-1,-1,1.12793,0.0205078,-0.0117188,34.5625,50.75,24.6875,-0.345582,-1.43316,-0.0179352
589,0,0,-1,-1,-2,0,-1,-1,1.12793,0.0205078,-0.0117188,34.5625,50.75,24.6875,-0.345582,-1.43316,-0.0179352
597,-2,-1,-1,-2,0,-1,0,0,1.05078,0.0292969,0.00488281,5.5625,51.25,23.8125,-0.349975,-1.41728,-0.0112464
597,-1,0,-2,1,0,0,-2,-1,1.05078,0.0292969,0.00488281,5.5625,51.25,23.8125,-0.349975,-1.41728,-0.0112464
612,0,-2,-1,-1,-1,-2,1,0,1.05078,0.0292969,0.00488281,5.5625,51.25,23.8125,-0.349975,-1.41728,-0.0112464
612,-1,0,-1,-3,-4,-2,-2,-1,1.05078,0.0292969,0.00488281,5.5625,51.25,23.8125,-0.349975,-1.41728,-0.0112464
614,0,0,-1,-2,-1,0,1,-2,1.00586,0.000976562,0.0493164,-19.125,49.3125,24.9375,-0.366487,-1.40133,-0.00131507
614,-1,1,-1,-1,-1,-1,-1,0,1.00586,0.000976562,0.0493164,-19.125,49.3125,24.9375,-0.366487,-1.40133,-0.00131507
634,0,0,1,-1,0,0,-2,0,1.00586,0.000976562,0.0493164,-19.125,49.3125,24.9375,-0.366487,-1.40133,-0.00131507
634,0,1,0,0,0,1,-1,-1,1.00586,0.000976562,0.0493164,-19.125,49.3125,24.9375,-0.366487,-1.40133,-0.00131507
637,0,0,1,-2,-1,-1,-1,1,0.985352,-0.0771484,0.0966797,-24.75,45.875,25.0625,-0.392476,-1.38529,0.0159689
637,0,-3,0,-1,-1,-2,0,1,0.985352,-0.0771484,0.0966797,-24.75,45.875,25.0625,-0.392476,-1.38529,0.0159689
650,0,-1,-1,0,-1,-1,-1,-3,0.985352,-0.0771484,0.0966797,-24.75,45.875,25.0625,-0.392476,-1.38529,0.0159689
650,-2,-1,-2,-1,-1,1,1,-2,0.985352,-0.0771484,0.0966797,-24.75,45.875,25.0625,-0.392476,-1.38529,0.0159689
652,-1,-1,-1,-1,-1,0,-2,-1,0.985352,-0.121582,0.128906,-17.375,41.25,21.8125,-0.413349,-1.36945,0.0309594
652,0,0,-1,0,-1,-1,-1,0,0.985352,-0.121582,0.128906,-17.375,41.25,21.8125,-0.413349,-1.36945,0.0309594
672,0,-1,0,1,-2,-2,-1,-2,0.985352,-0.121582,0.128906,-17.375,41.25,21.8125,-0.413349,-1.36945,0.0309594
672,1,0,-2,-1,0,-1,0,0,0.985352,-0.121582,0.128906,-17.375,41.25,21.8125,-0.413349,-1.36945,0.0309594
674,0,-1,0,-2,-3,0,0,-1,0.960449,-0.147461,0.171875,-5.8125,34.4375,16.875,-0.424499,-1.35576,0.0400126
674,0,-1,0,0,0,-2,0,-2,0.960449,-0.147461,0.171875,-5.8125,34.4375,16.875,-0.424499,-1.35576,0.0400126
686,0,1,0,-2,-1,1,0,-1,0.960449,-0.147461,0.171875,-5.8125,34.4375,16.875,-0.424499,-1.35576,0.0400126
686,-1,0,0,0,-1,-2,-1,0,0.960449,-0.147461,0.171875,-5.8125,34.4375,16.875,-0.424499,-1.35576,0.0400126
701,-1,-3,-3,0,0,-1,-2,-2,0.950684,-0.158203,0.178223,5.4375,27,11.4375,-0.429228,-1.34537,0.0464069
701,-1,0,-1,-2,-4,-2,0,0,0.950684,-0.158203,0.178223,5.4375,27,11.4375,-0.429228,-1.34537,0.0464069
710,-2,-2,-1,-1,-1,-2,-1,-1,0.950684,-0.158203,0.178223,5.4375,27,11.4375,-0.429228,-1.34537,0.0464069
710,-2,-2,-2,-1,-1,-2,0,-1,0.950684,-0.158203,0.178223,5.4375,27,11.4375,-0.429228,-1.34537,0.0464069
711,0,-2,0,0,-2,0,-2,-1,0.957031,-0.129883,0.187012,12.9375,21.1875,8.0625,-0.426979,-1.33747,0.0485365
711,-1,-1,-1,-1,-1,-1,0,-2,0.957031,-0.129883,0.187012,12.9375,21.1875,8.0625,-0.426979,-1.33747,0.0485365
732,-2,-1,-1,0,-1,-2,0,0,0.957031,-0.129883,0.187012,12.9375,21.1875,8.0625,-0.426979,-1.33747,0.0485365
732,-1,0,-2,-2,-1,-2,-2,-1,0.957031,-0.129883,0.187012,12.9375,21.1875,8.0625,-0.426979,-1.33747,0.0485365
738,0,-1,-1,-1,0,-1,0,-1,0.942383,-0.097168,0.188477,15.625,16.5625,6.5625,-0.421514,-1.3318,0.0484057
738,0,-2,-1,-1,0,0,-2,-1,0.942383,-0.097168,0.188477,15.625,16.5625,6.5625,-0.421514,-1.3318,0.0484057
745,0,-2,-3,-2,-1,1,-1,-1,0.942383,-0.097168,0.188477,15.625,16.5625,6.5625,-0.421514,-1.3318,0.0484057
745,-1,-3,1,-2,-1,-1,-1,0,0.942383,-0.097168,0.188477,15.625,16.5625,6.5625,-0.421514,-1.3318,0.0484057
755,-1,0,1,-1,-2,-1,0,-1,0.925781,-0.0732422,0.183594,11.4375,12.375,5.625,-0.41703,-1.32778,0.0478862
755,-1,-2,-1,0,0,-1,-2,0,0.925781,-0.0732422,0.183594,11.4375,12.375,5.625,-0.41703,-1.32778,0.0478862
769,-1,0,-1,0,1,-1,0,0,0.925781,-0.0732422,0.183594,11.4375,12.375,5.625,-0.41703,-1.32778,0.0478862
769,-1,-1,-1,0,-1,1,-1,-1,0.925781,-0.0732422,0.183594,11.4375,12.375,5.625,-0.41703,-1.32778,0.0478862
771,-1,-1,-1,-1,-1,-3,-2,-1,0.923828,-0.0727539,0.187012,5.375,7.75,4.6875,-0.415859,-1.32537,0.0487853
771,-1,-1,0,0,-1,0,0,0,0.923828,-0.0727539,0.187012,5.375,7.75,4.6875,-0.415859,-1.32537,0.0487853
792,-1,-1,0,-1,-2,-1,-1,-1,0.923828,-0.0727539,0.187012,5.375,7.75,4.6875,-0.415859,-1.32537,0.0487853
792,0,-1,-1,-1,-1,-1,-1,-3,0.923828,-0.0727539,0.187012,5.375,7.75,4.6875,-0.415859,-1.32537,0.0487853
793,1,1,-1,-1,1,0,-2,0,0.928223,-0.0986328,0.189941,0,5.3125,3.1875,-0.418314,-1.32387,0.0510359
793,-1,1,-2,0,-1,-2,0,-1,0.928223,-0.0986328,0.189941,0,5.3125,3.1875,-0.418314,-1.32387,0.0510359
806,0,0,1,0,-1,-2,-2,-1,0.928223,-0.0986328,0.189941,0,5.3125,3.1875,-0.418314,-1.32387,0.0510359
806,-2,1,0,0,-2,-1,-2,-1,0.928223,-0.0986328,0.189941,0,5.3125,3.1875,-0.418314,-1.32387,0.0510359
814,-2,0,-2,-2,-1,-2,-1,-1,0.915527,-0.119141,0.208984,0.125,2.9375,0.75,-0.419617,-1.32254,0.0524546
814,-1,-1,-1,-3,0,0,-2,-1,0.915527,-0.119141,0.208984,0.125,2.9375,0.75,-0.419617,-1.32254,0.0524546
830,-3,-2,-2,0,-1,0,-3,-1,0.915527,-0.119141,0.208984,0.125,2.9375,0.75,-0.419617,-1.32254,0.0524546
830,0,-2,-2,-1,-1,-1,-2,0,0.915527,-0.119141,0.208984,0.125,2.9375,0.75,-0.419617,-1.32254,0.0524546
831,0,-1,0,-1,-1,-1,1,-1,0.913574,-0.127441,0.210938,-0.1875,1,-2.1875,-0.419713,-1.32217,0.0522535
831,-1,0,0,0,-2,0,-2,0,0.913574,-0.127441,0.210938,-0.1875,1,-2.1875,-0.419713,-1.32217,0.0522535
853,-1,-1,-1,-1,-1,-2,0,-2,0.913574,-0.127441,0.210938,-0.1875,1,-2.1875,-0.419713,-1.32217,0.0522535
853,-1,-1,0,0,-1,-1,-1,-1,0.913574,-0.127441,0.210938,-0.1875,1,-2.1875,-0.419713,-1.32217,0.0522535
854,-2,0,-1,0,-2,-1,0,0,0.910156,-0.133301,0.234375,-0.375,-1.3125,-3.125,-0.419108,-1.32206,0.0513134
854,-1,-1,-1,-2,-1,-1,-2,0,0.910156,-0.133301,0.234375,-0.375,-1.3125,-3.125,-0.419108,-1.32206,0.0513134
866,-1,-3,-1,-2,-2,-1,-1,1,0.910156,-0.133301,0.234375,-0.375,-1.3125,-3.125,-0.419108,-1.32206,0.0513134
866,0,-2,-1,0,-1,-1,-1,-1,0.910156,-0.133301,0.234375,-0.375,-1.3125,-3.125,-0.419108,-1.32206,0.0513134
874,-1,-1,-1,-1,-1,-1,-2,0,0.921875,-0.13916,0.242676,1.875,-4.3125,-3.1875,-0.4196,-1.32278,0.0523929
874,0,0,0,-1,0,0,-1,-2,0.921875,-0.13916,0.242676,1.875,-4.3125,-3.1875,-0.4196,-1.32278,0.0523929
889,-2,2,-1,-1,-2,-1,-1,-2,0.921875,-0.13916,0.242676,1.875,-4.3125,-3.1875,-0.4196,-1.32278,0.0523929
889,0,-1,-1,-1,0,-2,-2,-1,0.921875,-0.13916,0.242676,1.875,-4.3125,-3.1875,-0.4196,-1.32278,0.0523929
891,-1,0,-1,-1,-1,-1,-1,-2,0.94043,-0.138672,0.266113,3.9375,-6.25,-3.625,-0.419321,-1.3241,0.0532692
891,-2,-1,-1,0,0,1,1,0,0.94043,-0.138672,0.266113,3.9375,-6.25,-3.625,-0.419321,-1.3241,0.0532692
912,0,-1,-1,0,-2,-2,-2,-1,0.94043,-0.138672,0.266113,3.9375,-6.25,-3.625,-0.419321,-1.3241,0.0532692
912,0,-3,-1,-2,0,1,0,0,0.94043,-0.138672,0.266113,3.9375,-6.25,-3.625,-0.419321,-1.3241,0.0532692
915,-2,-2,-1,0,0,0,-1,-1,0.94043,-0.137695,0.278809,6,-7.5,-3.25,-0.418359,-1.32478,0.0545413
915,0,-1,0,-1,1,-1,1,-1,0.94043,-0.137695,0.278809,6,-7.5,-3.25,-0.418359,-1.32478,0.0545413
925,-1,-1,-2,0,-1,-1,2,0,0.94043,-0.137695,0.278809,6,-7.5,-3.25,-0.418359,-1.32478,0.0545413
925,-2,-1,0,0,-1,0,1,-1,0.94043,-0.137695,0.278809,6,-7.5,-3.25,-0.418359,-1.32478,0.0545413
934,0,-1,-2,0,0,-1,-3,-1,0.944336,-0.132324,0.28418,7.6875,-8.625,-2.0625,-0.418497,-1.32586,0.0574984
934,-1,-1,-1,-1,-2,-2,-1,-2,0.944336,-0.132324,0.28418,7.6875,-8.625,-2.0625,-0.418497,-1.32586,0.0574984
950,1,0,0,-2,-1,0,-1,-1,0.944336,-0.132324,0.28418,7.6875,-8.625,-2.0625,-0.418497,-1.32586,0.0574984
950,-3,-2,-1,1,-2,-1,-1,0,0.944336,-0.132324,0.28418,7.6875,-8.625,-2.0625,-0.418497,-1.32586,0.0574984
952,-1,-1,-1,-2,-1,-1,-1,0,0.9375,-0.139648,0.299316,8.875,-9.375,-1.9375,-0.419015,-1.32691,0.061102
952,-1,0,-1,-1,-2,0,-1,-1,0.9375,-0.139648,0.299316,8.875,-9.375,-1.9375,-0.419015,-1.32691,0.061102
979,1,-1,-2,-1,-1,-3,-2,0,0.9375,-0.139648,0.299316,8.875,-9.375,-1.9375,-0.419015,-1.32691,0.061102
979,0,1,-1,-3,-1,-1,0,0,0.9375,-0.139648,0.299316,8.875,-9.375,-1.9375,-0.419015,-1.32691,0.061102
981,-2,-1,1,-2,0,0,-2,-1,0.942383,-0.141113,0.29541,8.9375,-9.5625,-2.875,-0.418575,-1.32803,0.0638872
981,-1,0,-1,-1,-2,-1,-1,-1,0.942383,-0.141113,0.29541,8.9375,-9.5625,-2.875,-0.418575,-1.32803,0.0638872
985,-1,0,-1,-1,0,1,-2,1,0.942383,-0.141113,0.29541,8.9375,-9.5625,-2.875,-0.418575,-1.32803,0.0638872
985,0,-1,-1,-2,0,-1,-1,0,0.942383,-0.141113,0.29541,8.9375,-9.5625,-2.875,-0.418575,-1.32803,0.0638872
994,1,0,-2,1,-1,-1,1,-2,0.950684,-0.140625,0.296387,8.4375,-8.5625,-3.1875,-0.417031,-1.32923,0.0651919
994,-2,-3,0,-2,0,0,-2,-1,0.950684,-0.140625,0.296387,8.4375,-8.5625,-3.1875,-0.417031,-1.32923,0.0651919
1017,-1,-1,-2,-1,0,1,0,-1,0.950684,-0.140625,0.296387,8.4375,-8.5625,-3.1875,-0.417031,-1.32923,0.0651919
1017,0,0,0,1,-1,-1,1,-2,0.950684,-0.140625,0.296387,8.4375,-8.5625,-3.1875,-0.417031,-1.32923,0.0651919
1019,0,-1,0,-1,-1,-1,-1,-1,0.941895,-0.134766,0.279297,7.5,-5.9375,-3.125,-0.415018,-1.32942,0.0658356
1019,-1,-2,-1,1,-1,0,-2,-1,0.941895,-0.134766,0.279297,7.5,-5.9375,-3.125,-0.415018,-1.32942,0.0658356
1032,-1,-2,-1,-1,1,-2,-2,1,0.941895,-0.134766,0.279297,7.5,-5.9375,-3.125,-0.415018,-1.32942,0.0658356
1032,-1,0,-1,-1,-1,-2,-1,0,0.941895,-0.134766,0.279297,7.5,-5.9375,-3.125,-0.415018,-1.32942,0.0658356
1034,0,-2,0,-1,0,-1,-1,0,0.9375,-0.116211,0.265625,1.8125,-1.5625,-3.0625,-0.411318,-1.3291,0.0625711
1034,-1,2,-2,1,-2,-1,0,0,0.9375,-0.116211,0.265625,1.8125,-1.5625,-3.0625,-0.411318,-1.3291,0.0625711
1045,-1,0,-1,-3,-1,-2,-1,-2,0.9375,-0.116211,0.265625,1.8125,-1.5625,-3.0625,-0.411318,-1.3291,0.0625711
1045,-1,0,-1,0,-1,-1,-2,-1,0.9375,-0.116211,0.265625,1.8125,-1.5625,-3.0625,-0.411318,-1.3291,0.0625711
1054,-1,-1,-2,-2,-1,0,1,-1,0.926758,-0.108398,0.270508,-7.25,2.375,-1.125,-0.41014,-1.32696,0.0590028
1054,1,-1,-1,-2,0,-1,-1,-1,0.926758,-0.108398,0.270508,-7.25,2.375,-1.125,-0.41014,-1.32696,0.0590028
1069,-2,-4,-1,-1,0,0,-2,-1,0.926758,-0.108398,0.270508,-7.25,2.375,-1.125,-0.41014,-1.32696,0.0590028
1069,-2,-1,-2,-2,-1,-1,-3,-2,0.926758,-0.108398,0.270508,-7.25,2.375,-1.125,-0.41014,-1.32696,0.0590028
1072,1,1,-1,-2,-2,-2,-1,0,0.935059,-0.141602,0.283691,-13.9375,4.6875,1.0625,-0.414956,-1.32342,0.0587675
1072,0,-1,-2,-1,1,-1,-1,-1,0.935059,-0.141602,0.283691,-13.9375,4.6875,1.0625,-0.414956,-1.32342,0.0587675
1092,0,0,-2,-1,-1,-1,-2,-1,0.935059,-0.141602,0.283691,-13.9375,4.6875,1.0625,-0.414956,-1.32342,0.0587675
1092,-2,1,0,0,-1,0,-2,-1,0.935059,-0.141602,0.283691,-13.9375,4.6875,1.0625,-0.414956,-1.32342,0.0587675
1098,0,0,0,-1,-1,-1,-1,-1,0.942871,-0.188477,0.290527,-13.25,5.8125,2.0625,-0.424634,-1.31866,0.0637419
1098,0,0,0,0,-1,0,1,-1,0.942871,-0.188477,0.290527,-13.25,5.8125,2.0625,-0.424634,-1.31866,0.0637419
1114,-1,-4,0,0,-2,-1,0,0,0.942871,-0.188477,0.290527,-13.25,5.8125,2.0625,-0.424634,-1.31866,0.0637419
1114,0,-1,2,-2,-1,-1,-1,-2,0.942871,-0.188477,0.290527,-13.25,5.8125,2.0625,-0.424634,-1.31866,0.0637419
1116,-1,-3,-1,1,-1,-1,-2,0,0.952148,-0.209473,0.294922,-7.9375,6.5625,1.1875,-0.431661,-1.31396,0.0677229
1116,-2,-2,-1,-1,-2,-2,-3,-1,0.952148,-0.209473,0.294922,-7.9375,6.5625,1.1875,-0.431661,-1.31396,0.0677229
1137,0,0,-1,-1,-1,0,-1,0,0.952148,-0.209473,0.294922,-7.9375,6.5625,1.1875,-0.431661,-1.31396,0.0677229
1137,-2,-2,-2,-1,0,0,-1,-1,0.952148,-0.209473,0.294922,-7.9375,6.5625,1.1875,-0.431661,-1.31396,0.0677229
1139,1,-2,-1,-3,-1,-1,0,-1,0.96582,-0.194824,0.291504,-4.6875,7.3125,0.25,-0.4349,-1.30971,0.0689301
1139,-1,-1,-1,0,0,0,-1,-1,0.96582,-0.194824,0.291504,-4.6875,7.3125,0.25,-0.4349,-1.30971,0.0689301
1152,-1,1,0,-2,-2,-1,1,0,0.96582,-0.194824,0.291504,-4.6875,7.3125,0.25,-0.4349,-1.30971,0.0689301
1152,-1,-2,1,-3,0,-1,0,-1,0.96582,-0.194824,0.291504,-4.6875,7.3125,0.25,-0.4349,-1.30971,0.0689301
1158,-1,1,-1,-1,-1,-1,-1,-1,0.965332,-0.166992,0.299316,-5.375,8.1875,0.4375,-0.434762,-1.30486,0.0668088
1158,-3,-2,-3,-3,-1,0,-1,-2,0.965332,-0.166992,0.299316,-5.375,8.1875,0.4375,-0.434762,-1.30486,0.0668088
1174,-2,-1,-2,-2,-1,-3,-1,-1,0.965332,-0.166992,0.299316,-5.375,8.1875,0.4375,-0.434762,-1.30486,0.0668088
1174,-1,-1,-1,1,-1,1,0,-1,0.965332,-0.166992,0.299316,-5.375,8.1875,0.4375,-0.434762,-1.30486,0.0668088
1176,-3,-2,-1,-1,-1,-1,0,0,0.94873,-0.15625,0.3125,-11.0625,8.0625,1.3125,-0.436998,-1.30032,0.0649514
1176,0,-1,-1,-1,-2,-2,-1,-1,0.94873,-0.15625,0.3125,-11.0625,8.0625,1.3125,-0.436998,-1.30032,0.0649514
1197,-1,0,0,0,0,0,0,-1,0.94873,-0.15625,0.3125,-11.0625,8.0625,1.3125,-0.436998,-1.30032,0.0649514
1197,1,-1,-3,-1,-1,-3,0,0,0.94873,-0.15625,0.3125,-11.0625,8.0625,1.3125,-0.436998,-1.30032,0.0649514
1199,-1,-2,-1,-1,-1,-1,-1,-3,0.933105,-0.15625,0.302734,-16.25,7.875,1.875,-0.441417,-1.29557,0.06362
1199,-1,-2,-3,-2,-2,0,0,0,0.933105,-0.15625,0.302734,-16.25,7.875,1.875,-0.441417,-1.29557,0.06362
1210,0,0,-2,0,-1,0,0,0,0.933105,-0.15625,0.302734,-16.25,7.875,1.875,-0.441417,-1.29557,0.06362
1210,0,-1,0,-1,-1,0,0,-2,0.933105,-0.15625,0.302734,-16.25,7.875,1.875,-0.441417,-1.29557,0.06362
1218,-2,1,-2,1,-2,-2,0,1,0.923828,-0.163574,0.307129,-17.25,7.3125,1.1875,-0.446222,-1.29123,0.0622358
1218,1,0,1,-2,-1,-2,-1,-1,0.923828,-0.163574,0.307129,-17.25,7.3125,1.1875,-0.446222,-1.29123,0.0622358
1234,-2,0,-1,0,1,-1,-1,-2,0.923828,-0.163574,0.307129,-17.25,7.3125,1.1875,-0.446222,-1.29123,0.0622358
1234,0,-3,-4,0,0,-2,-1,0,0.923828,-0.163574,0.307129,-17.25,7.3125,1.1875,-0.446222,-1.29123,0.0622358
1237,-3,0,-1,-3,-2,-1,-2,-1,0.919922,-0.151855,0.303223,-18.875,7.1875,-1.0625,-0.448368,-1.28744,0.0576165
1237,0,-2,0,-1,-1,-1,0,-2,0.919922,-0.151855,0.303223,-18.875,7.1875,-1.0625,-0.448368,-1.28744,0.0576165
1257,0,-1,0,-2,-2,0,-2,0,0.919922,-0.151855,0.303223,-18.875,7.1875,-1.0625,-0.448368,-1.28744,0.0576165
1257,-1,0,1,0,-1,0,-1,-1,0.919922,-0.151855,0.303223,-18.875,7.1875,-1.0625,-0.448368,-1.28744,0.0576165
1259,-1,-1,-1,-1,-1,0,-3,-1,0.911133,-0.166992,0.307617,-21.4375,6.125,-3.125,-0.450812,-1.28407,0.0522157
1259,-3,-1,-1,-1,-1,-2,-1,-1,0.911133,-0.166992,0.307617,-21.4375,6.125,-3.125,-0.450812,-1.28407,0.0522157
1271,-1,1,-1,2,-2,-1,-1,-1,0.911133,-0.166992,0.307617,-21.4375,6.125,-3.125,-0.450812,-1.28407,0.0522157
1271,0,1,-2,-1,-2,0,-1,-1,0.911133,-0.166992,0.307617,-21.4375,6.125,-3.125,-0.450812,-1.28407,0.0522157
1280,-2,-2,0,0,0,0,0,-2,0.908203,-0.174805,0.304688,-19.8125,4.1875,-3.3125,-0.454066,-1.28124,0.0483743
1280,-3,-2,-2,0,-1,0,0,-2,0.908203,-0.174805,0.304688,-19.8125,4.1875,-3.3125,-0.454066,-1.28124,0.0483743
1295,-3,-3,0,-1,0,-1,-1,0,0.908203,-0.174805,0.304688,-19.8125,4.1875,-3.3125,-0.454066,-1.28124,0.0483743
1295,-1,0,-1,-1,-2,-1,0,-1,0.908203,-0.174805,0.304688,-19.8125,4.1875,-3.3125,-0.454066,-1.28124,0.0483743
1296,-1,-1,-3,0,0,2,0,0,0.900391,-0.179199,0.304199,-11.3125,1.5,-3.6875,-0.455845,-1.27941,0.0458107
1296,1,-1,0,-2,-1,-1,-1,-1,0.900391,-0.179199,0.304199,-11.3125,1.5,-3.6875,-0.455845,-1.27941,0.0458107
1333,0,-1,-2,-2,-1,0,0,-2,0.900391,-0.179199,0.304199,-11.3125,1.5,-3.6875,-0.455845,-1.27941,0.0458107
1333,-1,0,0,-1,-1,-2,1,-1,0.900391,-0.179199,0.304199,-11.3125,1.5,-3.6875,-0.455845,-1.27941,0.0458107
1335,-1,-1,0,-1,-1,-1,-1,0,0.904297,-0.171875,0.291992,-2.25,-0.875,-4.8125,-0.454008,-1.2787,0.042942
1335,0,0,0,-2,-1,-1,-1,0,0.904297,-0.171875,0.291992,-2.25,-0.875,-4.8125,-0.454008,-1.2787,0.042942
1336,0,-2,-1,-1,-2,0,-1,-2,0.904297,-0.171875,0.291992,-2.25,-0.875,-4.8125,-0.454008,-1.2787,0.042942
1336,0,-1,-1,-2,-1,0,-2,-2,0.904297,-0.171875,0.291992,-2.25,-0.875,-4.8125,-0.454008,-1.2787,0.042942
1340,1,0,-2,1,-1,-2,0,-1,0.916504,-0.142578,0.288086,3.8125,-2.6875,-6.375,-0.447713,-1.27972,0.0377202
1340,-1,0,-1,1,-2,0,1,-1,0.916504,-0.142578,0.288086,3.8125,-2.6875,-6.375,-0.447713,-1.27972,0.0377202
1362,0,0,0,0,0,-1,0,0,0.916504,-0.142578,0.288086,3.8125,-2.6875,-6.375,-0.447713,-1.27972,0.0377202
1362,0,0,-2,1,-1,0,-2,1,0.916504,-0.142578,0.288086,3.8125,-2.6875,-6.375,-0.447713,-1.27972,0.0377202
1364,-2,-1,-2,0,-1,-2,-2,-1,0.928223,-0.138184,0.280273,4.75,-4.5,-8.375,-0.43988,-1.28126,0.0312957
1364,-3,-2,0,-1,-2,-2,1,-1,0.928223,-0.138184,0.280273,4.75,-4.5,-8.375,-0.43988,-1.28126,0.0312957
1376,0,0,-2,0,-1,-3,1,0,0.928223,-0.138184,0.280273,4.75,-4.5,-8.375,-0.43988,-1.28126,0.0312957
1376,-2,-3,0,-1,-1,0,-1,-2,0.928223,-0.138184,0.280273,4.75,-4.5,-8.375,-0.43988,-1.28126,0.0312957
1385,-1,0,1,-2,0,-1,-1,0,0.945312,-0.136719,0.26709,2.9375,-5.625,-10.625,-0.431459,-1.28436,0.0233945
1385,-1,-1,-4,0,0,-1,-1,-2,0.945312,-0.136719,0.26709,2.9375,-5.625,-10.625,-0.431459,-1.28436,0.0233945
1400,-2,0,-1,-1,-1,-1,-1,-3,0.945312,-0.136719,0.26709,2.9375,-5.625,-10.625,-0.431459,-1.28436,0.0233945
1400,-1,-1,-2,-1,1,-1,0,-1,0.945312,-0.136719,0.26709,2.9375,-5.625,-10.625,-0.431459,-1.28436,0.0233945
1401,-1,1,1,0,-1,0,-1,0,0.963379,-0.126465,0.259766,2.1875,-6.125,-11.875,-0.421806,-1.28769,0.0141566
1401,0,-1,1,-2,-1,-1,-2,-2,0.963379,-0.126465,0.259766,2.1875,-6.125,-11.875,-0.421806,-1.28769,0.0141566
1415,0,-2,0,0,-2,-2,-3,0,0.963379,-0.126465,0.259766,2.1875,-6.125,-11.875,-0.421806,-1.28769,0.0141566
1415,-1,1,0,-1,-1,-2,-1,0,0.963379,-0.126465,0.259766,2.1875,-6.125,-11.875,-0.421806,-1.28769,0.0141566
1416,1,1,-1,-2,0,0,0,0,0.972168,-0.100586,0.236816,-2.1875,-5.6875,-14.5625,-0.408607,-1.29175,-0.00025544
1416,-3,-3,-1,-2,1,-2,-1,-1,0.972168,-0.100586,0.236816,-2.1875,-5.6875,-14.5625,-0.408607,-1.29175,-0.00025544
1437,0,-1,-1,-1,1,0,0,-2,0.972168,-0.100586,0.236816,-2.1875,-5.6875,-14.5625,-0.408607,-1.29175,-0.00025544
1437,-3,-3,-1,-1,-2,-1,-1,-1,0.972168,-0.100586,0.236816,-2.1875,-5.6875,-14.5625,-0.408607,-1.29175,-0.00025544
1439,2,2,-1,-2,0,0,0,0,0.979004,-0.0825195,0.248535,-6.375,-6.5625,-15.375,-0.395236,-1.29675,-0.0165818
1439,-1,0,-1,-2,-2,-1,-2,0,0.979004,-0.0825195,0.248535,-6.375,-6.5625,-15.375,-0.395236,-1.29675,-0.0165818
1451,-1,-1,-1,-2,-1,0,-2,0,0.979004,-0.0825195,0.248535,-6.375,-6.5625,-15.375,-0.395236,-1.29675,-0.0165818
1451,-1,-2,-1,-1,-1,0,0,2,0.979004,-0.0825195,0.248535,-6.375,-6.5625,-15.375,-0.395236,-1.29675,-0.0165818
1467,-1,1,3,1,-2,-1,0,-2,1.02197,-0.0913086,0.257324,-8.875,-8.5,-16.4375,-0.38227,-1.30173,-0.033106
1467,-9,-16,-7,-1,-1,2,0,-3,1.02197,-0.0913086,0.257324,-8.875,-8.5,-16.4375,-0.38227,-1.30173,-0.033106
1474,-2,-3,-2,-1,0,-1,-1,-2,1.02197,-0.0913086,0.257324,-8.875,-8.5,-16.4375,-0.38227,-1.30173,-0.033106
1474,-2,0,-1,-2,-1,-1,-1,-2,1.02197,-0.0913086,0.257324,-8.875,-8.5,-16.4375,-0.38227,-1.30173,-0.033106
1476,-2,-3,-3,0,-2,-3,0,-1,1.01367,-0.0839844,0.250977,-13.625,-10.4375,-20.4375,-0.366425,-1.30807,-0.0543411
1476,0,6,2,1,-2,-1,0,0,1.01367,-0.0839844,0.250977,-13.625,-10.4375,-20.4375,-0.366425,-1.30807,-0.0543411
1496,-5,-5,-3,-1,-2,-1,1,-2,1.01367,-0.0839844,0.250977,-13.625,-10.4375,-20.4375,-0.366425,-1.30807,-0.0543411
1496,-1,-3,-3,-1,-1,0,-2,-2,1.01367,-0.0839844,0.250977,-13.625,-10.4375,-20.4375,-0.366425,-1.30807,-0.0543411
1504,0,-2,-2,-1,-1,0,-1,1,0.911133,-0.0380859,0.225586,-21.0625,-10.5625,-21.75,-0.347901,-1.31408,-0.0806483
1504,1,0,0,-2,-2,-1,0,0,0.911133,-0.0380859,0.225586,-21.0625,-10.5625,-21.75,-0.347901,-1.31408,-0.0806483
1510,-3,-3,0,-1,0,-2,-1,-2,0.911133,-0.0380859,0.225586,-21.0625,-10.5625,-21.75,-0.347901,-1.31408,-0.0806483
1510,-1,3,1,-2,-1,-1,-1,-1,0.911133,-0.0380859,0.225586,-21.0625,-10.5625,-21.75,-0.347901,-1.31408,-0.0806483
1519,-2,-4,-3,-2,-2,-1,-1,-2,0.825684,-0.0078125,0.188477,-26.125,-11.1875,-24.5,-0.3257,-1.32167,-0.112848
1519,2,6,2,-1,-1,-1,4,8,0.825684,-0.0078125,0.188477,-26.125,-11.1875,-24.5,-0.3257,-1.32167,-0.112848
1534,-2,-7,-2,-1,-1,-1,-1,-4,0.825684,-0.0078125,0.188477,-26.125,-11.1875,-24.5,-0.3257,-1.32167,-0.112848
1534,1,5,1,0,0,-1,0,0,0.825684,-0.0078125,0.188477,-26.125,-11.1875,-24.5,-0.3257,-1.32167,-0.112848
1536,-4,-5,-3,-3,0,0,0,-2,0.751953,0.0405273,0.172363,-32.75,-8.125,-25.4375,-0.297949,-1.3276,-0.152608
1536,-1,0,-3,-1,0,-1,-6,-4,0.751953,0.0405273,0.172363,-32.75,-8.125,-25.4375,-0.297949,-1.3276,-0.152608
1557,3,5,-2,-1,-2,-1,0,1,0.751953,0.0405273,0.172363,-32.75,-8.125,-25.4375,-0.297949,-1.3276,-0.152608
1557,-1,-1,-1,0,-1,-1,-1,-2,0.751953,0.0405273,0.172363,-32.75,-8.125,-25.4375,-0.297949,-1.3276,-0.152608
1558,1,-1,-2,0,-2,1,3,2,0.675293,0.0444336,0.163574,-35.6875,-4.5625,-26.375,-0.267873,-1.33258,-0.196014
1558,-3,-6,-1,0,-1,0,-4,-4,0.675293,0.0444336,0.163574,-35.6875,-4.5625,-26.375,-0.267873,-1.33258,-0.196014
1570,-1,1,-1,0,-2,-1,-3,0,0.675293,0.0444336,0.163574,-35.6875,-4.5625,-26.375,-0.267873,-1.33258,-0.196014
1570,0,-3,-3,-2,-1,-1,-3,-3,0.675293,0.0444336,0.163574,-35.6875,-4.5625,-26.375,-0.267873,-1.33258,-0.196014
1580,-1,2,0,-1,1,-1,-2,-2,0.648438,0.00976562,0.183105,-31.875,-3.75,-24.5,-0.240459,-1.33549,-0.235316
1580,0,0,0,-1,-1,-1,-1,-2,0.648438,0.00976562,0.183105,-31.875,-3.75,-24.5,-0.240459,-1.33549,-0.235316
1602,0,0,2,0,0,-1,-1,-1,0.648438,0.00976562,0.183105,-31.875,-3.75,-24.5,-0.240459,-1.33549,-0.235316
1602,-1,-3,-1,0,0,-2,0,2,0.648438,0.00976562,0.183105,-31.875,-3.75,-24.5,-0.240459,-1.33549,-0.235316
1604,0,-2,-1,0,-1,-2,-1,-2,0.712402,0.00683594,0.173828,-15.375,-4.625,-21.625,-0.211818,-1.33852,-0.269925
1604,1,4,0,0,-1,0,0,-2,0.712402,0.00683594,0.173828,-15.375,-4.625,-21.625,-0.211818,-1.33852,-0.269925
1617,-6,-5,-2,-2,-2,-1,0,0,0.712402,0.00683594,0.173828,-15.375,-4.625,-21.625,-0.211818,-1.33852,-0.269925
1617,0,1,0,0,-1,-2,-1,0,0.712402,0.00683594,0.173828,-15.375,-4.625,-21.625,-0.211818,-1.33852,-0.269925
1618,-2,0,-1,-1,-1,1,-2,-2,0.784668,0.046875,0.168457,-5.625,-3.4375,-21.25,-0.175679,-1.34169,-0.308669
1618,0,-2,-2,-1,0,-2,-2,-4,0.784668,0.046875,0.168457,-5.625,-3.4375,-21.25,-0.175679,-1.34169,-0.308669
1639,1,2,1,-1,-1,0,-1,0,0.784668,0.046875,0.168457,-5.625,-3.4375,-21.25,-0.175679,-1.34169,-0.308669
1639,-5,-8,-2,-2,-1,-1,-1,-3,0.784668,0.046875,0.168457,-5.625,-3.4375,-21.25,-0.175679,-1.34169,-0.308669
1641,0,0,-1,3,0,-3,-1,-3,0.821777,0.065918,0.194336,-11.9375,-3.5625,-20.125,-0.140833,-1.34415,-0.34813
1641,-2,-1,-3,-2,-1,-2,0,4,0.821777,0.065918,0.194336,-11.9375,-3.5625,-20.125,-0.140833,-1.34415,-0.34813
1679,-3,-4,-7,-2,-1,-1,-1,-3,0.821777,0.065918,0.194336,-11.9375,-3.5625,-20.125,-0.140833,-1.34415,-0.34813
1679,-1,2,7,-1,-1,-1,-2,-2,0.821777,0.065918,0.194336,-11.9375,-3.5625,-20.125,-0.140833,-1.34415,-0.34813
1680,0,0,-7,-2,-2,0,-1,-1,0.842773,0.0629883,0.212891,-16.5,-7.0625,-16.1875,-0.113758,-1.34705,-0.381271
1680,-1,-1,-1,0,-2,0,3,6,0.842773,0.0629883,0.212891,-16.5,-7.0625,-16.1875,-0.113758,-1.34705,-0.381271
1681,-1,-3,-2,0,0,-2,-2,-3,0.842773,0.0629883,0.212891,-16.5,-7.0625,-16.1875,-0.113758,-1.34705,-0.381271
1681,0,-1,-2,0,-1,0,-1,1,0.842773,0.0629883,0.212891,-16.5,-7.0625,-16.1875,-0.113758,-1.34705,-0.381271
1684,-1,-3,1,-1,-1,0,-3,-4,0.870117,0.0571289,0.200684,-18,-8.3125,-14.75,-0.0903811,-1.35083,-0.411475
1684,2,0,0,0,-1,0,0,2,0.870117,0.0571289,0.200684,-18,-8.3125,-14.75,-0.0903811,-1.35083,-0.411475
1691,1,1,-2,0,-1,1,1,2,0.870117,0.0571289,0.200684,-18,-8.3125,-14.75,-0.0903811,-1.35083,-0.411475
1691,-4,-2,-5,-2,1,-1,-1,-3,0.870117,0.0571289,0.200684,-18,-8.3125,-14.75,-0.0903811,-1.35083,-0.411475
1700,0,0,0,-2,-1,1,1,4,0.857422,0.0639648,0.205078,-19.625,-6.625,-13.6875,-0.0680023,-1.35302,-0.440894
1700,0,-1,-1,-1,0,-2,-1,-1,0.857422,0.0639648,0.205078,-19.625,-6.625,-13.6875,-0.0680023,-1.35302,-0.440894
1715,6,9,4,0,-2,-2,0,3,0.857422,0.0639648,0.205078,-19.625,-6.625,-13.6875,-0.0680023,-1.35302,-0.440894
1715,-1,-1,-1,-1,-1,1,-3,-3,0.857422,0.0639648,0.205078,-19.625,-6.625,-13.6875,-0.0680023,-1.35302,-0.440894
1716,-3,-4,-2,-2,-2,-1,-3,-1,0.836914,0.0576172,0.205566,-16.9375,-7.625,-11.1875,-0.0491713,-1.35535,-0.465681
1716,1,2,3,0,-1,1,-2,-4,0.836914,0.0576172,0.205566,-16.9375,-7.625,-11.1875,-0.0491713,-1.35535,-0.465681
1744,-1,-3,4,1,0,-1,-1,-1,0.836914,0.0576172,0.205566,-16.9375,-7.625,-11.1875,-0.0491713,-1.35535,-0.465681
1744,-2,3,1,0,-2,-1,1,1,0.836914,0.0576172,0.205566,-16.9375,-7.625,-11.1875,-0.0491713,-1.35535,-0.465681
1746,-1,-1,3,0,0,-1,-1,-1,0.806152,0.0546875,0.190918,-12.5625,-10.1875,-6.375,-0.0368506,-1.35876,-0.48253
1746,-2,-4,1,-1,-1,-1,-3,-4,0.806152,0.0546875,0.190918,-12.5625,-10.1875,-6.375,-0.0368506,-1.35876,-0.48253
1751,-1,-2,-11,-3,-1,0,-1,1,0.806152,0.0546875,0.190918,-12.5625,-10.1875,-6.375,-0.0368506,-1.35876,-0.48253
1751,-1,-5,4,-1,0,1,1,-5,0.806152,0.0546875,0.190918,-12.5625,-10.1875,-6.375,-0.0368506,-1.35876,-0.48253
1760,-2,-1,11,0,-1,-1,-2,-1,0.800293,0.050293,0.184082,-8.25,-12,-4.3125,-0.0268023,-1.36261,-0.495416
1760,-3,-4,-6,-1,-1,-2,-2,-2,0.800293,0.050293,0.184082,-8.25,-12,-4.3125,-0.0268023,-1.36261,-0.495416
1782,-2,-3,1,0,0,1,2,-1,0.800293,0.050293,0.184082,-8.25,-12,-4.3125,-0.0268023,-1.36261,-0.495416
1782,2,2,-7,-2,0,1,0,9,0.800293,0.050293,0.184082,-8.25,-12,-4.3125,-0.0268023,-1.36261,-0.495416
1783,-6,-6,-1,-4,-1,-3,-7,-9,0.773926,0.0546875,0.186523,-8.5,-11.125,-2.8125,-0.0188927,-1.36576,-0.506183
1783,2,4,0,-1,-1,1,-1,-1,0.773926,0.0546875,0.186523,-8.5,-11.125,-2.8125,-0.0188927,-1.36576,-0.506183
1797,-4,0,-6,-3,-2,-1,-2,-1,0.773926,0.0546875,0.186523,-8.5,-11.125,-2.8125,-0.0188927,-1.36576,-0.506183
1797,1,1,-16,6,5,0,0,-1,0.773926,0.0546875,0.186523,-8.5,-11.125,-2.8125,-0.0188927,-1.36576,-0.506183
1798,-1,0,13,-5,-4,-4,-1,0,0.741211,0.0566406,0.170898,-5,-10.375,-0.3125,-0.0132209,-1.36914,-0.513666
1798,-2,1,2,-6,-4,-3,-1,-2,0.741211,0.0566406,0.170898,-5,-10.375,-0.3125,-0.0132209,-1.36914,-0.513666
1820,0,2,5,-1,-1,-1,-3,-2,0.741211,0.0566406,0.170898,-5,-10.375,-0.3125,-0.0132209,-1.36914,-0.513666
1820,1,-1,1,1,-1,0,2,-2,0.741211,0.0566406,0.170898,-5,-10.375,-0.3125,-0.0132209,-1.36914,-0.513666
1821,1,-4,-7,3,0,1,4,2,0.753906,0.0444336,0.164551,1.8125,-12.3125,2.625,-0.0117061,-1.37304,-0.514232
1821,-3,-8,9,1,0,-1,0,9,0.753906,0.0444336,0.164551,1.8125,-12.3125,2.625,-0.0117061,-1.37304,-0.514232
1834,0,1,-23,-1,0,-1,-5,-10,0.753906,0.0444336,0.164551,1.8125,-12.3125,2.625,-0.0117061,-1.37304,-0.514232
1834,-6,-20,-5,0,0,0,-1,-3,0.753906,0.0444336,0.164551,1.8125,-12.3125,2.625,-0.0117061,-1.37304,-0.514232
1836,-1,-4,12,-1,0,-2,-1,0,0.78418,0.0522461,0.15625,-1.625,-10.5,3.0625,-0.0107515,-1.37659,-0.515418
1836,0,0,0,-1,-2,-1,1,6,0.78418,0.0522461,0.15625,-1.625,-10.5,3.0625,-0.0107515,-1.37659,-0.515418
1857,-6,-12,0,0,-1,0,8,20,0.78418,0.0522461,0.15625,-1.625,-10.5,3.0625,-0.0107515,-1.37659,-0.515418
1857,1,12,6,-3,-4,-4,-16,-38,0.78418,0.0522461,0.15625,-1.625,-10.5,3.0625,-0.0107515,-1.37659,-0.515418
1858,-2,-19,-40,0,1,0,1,-2,0.80127,0.00732422,0.154297,2.625,-11.875,4.1875,-0.0163334,-1.38042,-0.508596
1858,0,25,-6,-2,0,1,1,-7,0.80127,0.00732422,0.154297,2.625,-11.875,4.1875,-0.0163334,-1.38042,-0.508596
1880,6,13,99,10,2,0,0,4,0.80127,0.00732422,0.154297,2.625,-11.875,4.1875,-0.0163334,-1.38042,-0.508596
1880,-10,-23,-60,-17,-9,-7,-1,1,0.80127,0.00732422,0.154297,2.625,-11.875,4.1875,-0.0163334,-1.38042,-0.508596
1881,-1,-1,-3,1,0,-1,-1,3,0.84082,0.0595703,0.178223,0.9375,-8.875,1.9375,-0.0121434,-1.38332,-0.512417
1881,1,-15,-31,0,1,1,2,7,0.84082,0.0595703,0.178223,0.9375,-8.875,1.9375,-0.0121434,-1.38332,-0.512417
1894,-2,7,-9,1,1,0,-2,-4,0.84082,0.0595703,0.178223,0.9375,-8.875,1.9375,-0.0121434,-1.38332,-0.512417
1894,6,45,72,4,0,1,2,10,0.84082,0.0595703,0.178223,0.9375,-8.875,1.9375,-0.0121434,-1.38332,-0.512417
1896,-6,-42,-35,-8,1,0,0,-9,0.916504,0.0517578,0.151367,-13.0625,-5.3125,-1.0625,-0.00765088,-1.38578,-0.521432
1896,-2,2,-15,-1,-2,-1,-3,-3,0.916504,0.0517578,0.151367,-13.0625,-5.3125,-1.0625,-0.00765088,-1.38578,-0.521432
1917,0,0,-4,-4,0,-1,2,0,0.916504,0.0517578,0.151367,-13.0625,-5.3125,-1.0625,-0.00765088,-1.38578,-0.521432
1917,8,14,18,7,1,1,-2,0,0.916504,0.0517578,0.151367,-13.0625,-5.3125,-1.0625,-0.00765088,-1.38578,-0.521432
1918,-1,10,1,-5,-2,0,0,0,0.972656,-0.0209961,0.176758,-12.375,-5.125,1.5,-0.0175192,-1.38745,-0.51572
1918,0,-3,3,5,2,0,-1,-5,0.972656,-0.0209961,0.176758,-12.375,-5.125,1.5,-0.0175192,-1.38745,-0.51572
1940,1,3,-2,0,-3,-1,0,1,0.972656,-0.0209961,0.176758,-12.375,-5.125,1.5,-0.0175192,-1.38745,-0.51572
1940,-16,-13,-8,-8,-4,-3,-2,0,0.972656,-0.0209961,0.176758,-12.375,-5.125,1.5,-0.0175192,-1.38745,-0.51572
1941,-6,-2,6,0,-1,0,0,-6,1.08887,-0.00683594,0.165527,-12.5625,-4.625,0.125,-0.0226467,-1.39025,-0.515096
1941,-3,-8,4,-3,-3,-3,1,8,1.08887,-0.00683594,0.165527,-12.5625,-4.625,0.125,-0.0226467,-1.39025,-0.515096
1954,1,-3,-6,-2,0,-1,-11,-27,1.08887,-0.00683594,0.165527,-12.5625,-4.625,0.125,-0.0226467,-1.39025,-0.515096
1954,-5,-22,-18,-3,-2,0,1,9,1.08887,-0.00683594,0.165527,-12.5625,-4.625,0.125,-0.0226467,-1.39025,-0.515096
1961,-2,-5,-6,1,-1,-1,-3,2,1.19629,0.0302734,0.103027,-18.8125,4.5625,-5.875,-0.0138623,-1.39123,-0.530483
1961,-5,3,11,-4,-4,0,-4,-9,1.19629,0.0302734,0.103027,-18.8125,4.5625,-5.875,-0.0138623,-1.39123,-0.530483
1976,4,4,-17,-2,-2,0,-1,6,1.19629,0.0302734,0.103027,-18.8125,4.5625,-5.875,-0.0138623,-1.39123,-0.530483
1976,0,4,-3,0,0,-1,1,1,1.19629,0.0302734,0.103027,-18.8125,4.5625,-5.875,-0.0138623,-1.39123,-0.530483
1978,3,8,3,-1,0,-1,0,0,1.20605,0.0810547,0.0844727,-27.75,15.4375,-11.125,0.0084149,-1.38918,-0.562601
1978,-1,-9,10,2,-1,-2,-3,-6,1.20605,0.0810547,0.0844727,-27.75,15.4375,-11.125,0.0084149,-1.38918,-0.562601
1999,-2,-13,-12,-1,-2,-2,0,1,1.20605,0.0810547,0.0844727,-27.75,15.4375,-11.125,0.0084149,-1.38918,-0.562601
1999,-1,-14,-4,-5,-2,-2,-1,-4,1.20605,0.0810547,0.0844727,-27.75,15.4375,-11.125,0.0084149,-1.38918,-0.562601
2001,2,1,14,0,-1,-1,-1,2,1.25635,0.0581055,0.034668,-31.125,15.875,-3.75,0.0125986,-1.38854,-0.577704
2001,4,-6,-6,0,1,0,-1,1,1.25635,0.0581055,0.034668,-31.125,15.875,-3.75,0.0125986,-1.38854,-0.577704
2022,-1,-5,-12,-6,-3,-2,0,0,1.25635,0.0581055,0.034668,-31.125,15.875,-3.75,0.0125986,-1.38854,-0.577704
2022,-1,-2,0,1,1,-1,2,-1,1.25635,0.0581055,0.034668,-31.125,15.875,-3.75,0.0125986,-1.38854,-0.577704
2024,4,16,3,0,-1,0,0,3,1.34131,0.0878906,0.0249023,-29.0625,19.6875,2.6875,0.00860869,-1.38685,-0.583511
2024,-4,-9,0,-1,1,-1,-1,-4,1.34131,0.0878906,0.0249023,-29.0625,19.6875,2.6875,0.00860869,-1.38685,-0.583511
2037,-3,9,11,14,-2,-2,-2,-2,1.34131,0.0878906,0.0249023,-29.0625,19.6875,2.6875,0.00860869,-1.38685,-0.583511
2037,1,3,-31,-11,1,0,-2,0,1.34131,0.0878906,0.0249023,-29.0625,19.6875,2.6875,0.00860869,-1.38685,-0.583511
2039,5,13,5,-1,1,-1,1,2,1.29541,0.138672,0.0390625,-32.375,24.0625,2.8125,0.00977469,-1.38361,-0.595604
2039,-6,-11,-4,-7,-2,0,-2,-7,1.29541,0.138672,0.0390625,-32.375,24.0625,2.8125,0.00977469,-1.38361,-0.595604
2060,-5,-8,-7,-11,-3,-2,-1,-2,1.29541,0.138672,0.0390625,-32.375,24.0625,2.8125,0.00977469,-1.38361,-0.595604
2060,8,12,38,30,-4,-1,1,10,1.29541,0.138672,0.0390625,-32.375,24.0625,2.8125,0.00977469,-1.38361,-0.595604
2062,-4,3,-61,-25,2,0,-2,-2,1.25146,0.157715,0.0874023,-31.4375,19.1875,0.5625,0.0177165,-1.38094,-0.614302
2062,3,12,-20,-4,2,-1,0,0,1.25146,0.157715,0.0874023,-31.4375,19.1875,0.5625,0.0177165,-1.38094,-0.614302
2073,-2,-3,-6,-5,-1,-1,3,0,1.25146,0.157715,0.0874023,-31.4375,19.1875,0.5625,0.0177165,-1.38094,-0.614302
2073,2,1,0,-3,-2,3,-5,10,1.25146,0.157715,0.0874023,-31.4375,19.1875,0.5625,0.0177165,-1.38094,-0.614302
2082,5,3,20,12,-3,-7,-13,-10,1.26367,0.19873,0.0566406,-25,13.5625,3.25,0.0279991,-1.38017,-0.632426
2082,4,7,14,7,0,0,15,-9,1.26367,0.19873,0.0566406,-25,13.5625,3.25,0.0279991,-1.38017,-0.632426
2097,-1,-15,-15,-4,1,-2,-1,-4,1.26367,0.19873,0.0566406,-25,13.5625,3.25,0.0279991,-1.38017,-0.632426
2097,0,-6,4,0,-1,-1,-1,3,1.26367,0.19873,0.0566406,-25,13.5625,3.25,0.0279991,-1.38017,-0.632426
2099,-7,-4,11,7,-1,2,-4,-4,1.26611,0.0878906,0.0556641,-34.9375,22.0625,11.875,0.00558058,-1.37722,-0.621605
2099,3,-6,-5,-3,0,0,-4,7,1.26611,0.0878906,0.0556641,-34.9375,22.0625,11.875,0.00558058,-1.37722,-0.621605
2119,12,2,4,3,-2,1,3,20,1.26611,0.0878906,0.0556641,-34.9375,22.0625,11.875,0.00558058,-1.37722,-0.621605
2119,-6,-13,-8,-6,-3,-5,-3,-8,1.26611,0.0878906,0.0556641,-34.9375,22.0625,11.875,0.00558058,-1.37722,-0.621605
2127,3,-1,7,1,-2,-2,0,0,1.30273,0.0703125,0.150391,-29.3125,33.3125,20.9375,-0.0310397,-1.36825,-0.594315
2127,2,13,21,1,-2,-1,-1,-6,1.30273,0.0703125,0.150391,-29.3125,33.3125,20.9375,-0.0310397,-1.36825,-0.594315
2133,-4,-6,-24,-7,-1,-1,1,3,1.30273,0.0703125,0.150391,-29.3125,33.3125,20.9375,-0.0310397,-1.36825,-0.594315
2133,2,0,9,3,0,1,5,6,1.30273,0.0703125,0.150391,-29.3125,33.3125,20.9375,-0.0310397,-1.36825,-0.594315
2142,2,-1,-8,-5,-2,0,1,1,1.23047,0.0361328,0.222656,-7.9375,42.125,23.1875,-0.0624271,-1.35456,-0.564883
2142,6,-5,10,9,-3,-4,-6,3,1.23047,0.0361328,0.222656,-7.9375,42.125,23.1875,-0.0624271,-1.35456,-0.564883
2157,-7,-11,1,0,0,-3,-8,-8,1.23047,0.0361328,0.222656,-7.9375,42.125,23.1875,-0.0624271,-1.35456,-0.564883
2157,0,-3,-9,0,2,1,2,-3,1.23047,0.0361328,0.222656,-7.9375,42.125,23.1875,-0.0624271,-1.35456,-0.564883
2159,1,-3,16,6,2,3,5,1,1.22412,0.0449219,0.23291,-1.5,42.625,30.375,-0.0970848,-1.34021,-0.529437
2159,-6,-3,-3,-3,-2,-2,-3,-2,1.22412,0.0449219,0.23291,-1.5,42.625,30.375,-0.0970848,-1.34021,-0.529437
2180,0,2,-1,-3,-3,-3,-5,-3,1.22412,0.0449219,0.23291,-1.5,42.625,30.375,-0.0970848,-1.34021,-0.529437
2180,1,-5,-4,-2,1,1,1,-2,1.22412,0.0449219,0.23291,-1.5,42.625,30.375,-0.0970848,-1.34021,-0.529437
2181,0,4,6,-1,-2,-3,-1,12,1.21582,-0.00683594,0.199219,0.375,45.5,38.3125,-0.140945,-1.32532,-0.483871
2181,-3,3,-3,-5,0,0,0,-11,1.21582,-0.00683594,0.199219,0.375,45.5,38.3125,-0.140945,-1.32532,-0.483871
2193,0,3,10,-1,1,2,-3,-12,1.21582,-0.00683594,0.199219,0.375,45.5,38.3125,-0.140945,-1.32532,-0.483871
2193,6,11,13,-4,2,4,6,2,1.21582,-0.00683594,0.199219,0.375,45.5,38.3125,-0.140945,-1.32532,-0.483871
2202,-14,-9,-6,-6,-10,-10,-4,-2,1.16748,-0.0498047,0.178711,-11.625,45.8125,45.5625,-0.196579,-1.30996,-0.430726
2202,-6,-5,-5,-6,-4,-5,-1,7,1.16748,-0.0498047,0.178711,-11.625,45.8125,45.5625,-0.196579,-1.30996,-0.430726
2217,-6,-33,-19,1,0,-2,-3,-27,1.16748,-0.0498047,0.178711,-11.625,45.8125,45.5625,-0.196579,-1.30996,-0.430726
2217,-4,-8,21,-3,0,0,0,31,1.16748,-0.0498047,0.178711,-11.625,45.8125,45.5625,-0.196579,-1.30996,-0.430726
2219,14,26,4,8,8,8,6,-14,1.13721,-0.0776367,0.216797,-10.4375,43.8125,41.8125,-0.241852,-1.29419,-0.387792
2219,-31,8,-12,-11,-5,-5,-10,-17,1.13721,-0.0776367,0.216797,-10.4375,43.8125,41.8125,-0.241852,-1.29419,-0.387792
2240,-6,50,-1,-2,-3,-3,-2,1,1.13721,-0.0776367,0.216797,-10.4375,43.8125,41.8125,-0.241852,-1.29419,-0.387792
2240,24,46,3,9,2,1,1,0,1.13721,-0.0776367,0.216797,-10.4375,43.8125,41.8125,-0.241852,-1.29419,-0.387792
2241,28,3,-13,-7,-3,-1,-4,23,1.11279,-0.0791016,0.245605,-6.125,39.6875,25.3125,-0.262469,-1.28026,-0.36862
2241,-26,8,-6,-2,2,6,13,-13,1.11279,-0.0791016,0.245605,-6.125,39.6875,25.3125,-0.262469,-1.28026,-0.36862
2254,16,-24,-1,-4,1,3,2,7,1.11279,-0.0791016,0.245605,-6.125,39.6875,25.3125,-0.262469,-1.28026,-0.36862
2254,-102,-35,-19,-10,-1,-3,10,-69,1.11279,-0.0791016,0.245605,-6.125,39.6875,25.3125,-0.262469,-1.28026,-0.36862
2262,-5,15,16,7,4,0,-4,-3,1.06152,-0.101562,0.277832,-8,46.9375,16.1875,-0.271123,-1.26397,-0.362625
2262,26,1,-8,-3,0,0,12,65,1.06152,-0.101562,0.277832,-8,46.9375,16.1875,-0.271123,-1.26397,-0.362625
2277,27,0,7,5,6,4,10,17,1.06152,-0.101562,0.277832,-8,46.9375,16.1875,-0.271123,-1.26397,-0.362625
2277,46,10,-4,-5,-2,-2,3,-18,1.06152,-0.101562,0.277832,-8,46.9375,16.1875,-0.271123,-1.26397,-0.362625
2278,-16,-2,0,-1,-1,-1,-4,-40,1.01611,-0.133789,0.32666,-16,51.25,22.75,-0.287607,-1.24437,-0.351353
2278,-20,-6,2,-4,-3,-2,-16,-33,1.01611,-0.133789,0.32666,-16,51.25,22.75,-0.287607,-1.24437,-0.351353
2300,-13,8,6,4,0,-2,1,37,1.01611,-0.133789,0.32666,-16,51.25,22.75,-0.287607,-1.24437,-0.351353
2300,18,-1,-10,1,-2,-2,-10,-3,1.01611,-0.133789,0.32666,-16,51.25,22.75,-0.287607,-1.24437,-0.351353
2301,-14,-9,-3,-1,-4,-1,8,4,1.05078,-0.125488,0.308105,-11.4375,52.625,32,-0.308515,-1.22449,-0.333564
2301,3,-16,-4,-1,-6,-8,8,-17,1.05078,-0.125488,0.308105,-11.4375,52.625,32,-0.308515,-1.22449,-0.333564
2313,-9,3,3,2,1,5,25,8,1.05078,-0.125488,0.308105,-11.4375,52.625,32,-0.308515,-1.22449,-0.333564
2313,3,0,-3,-1,4,5,-51,-69,1.05078,-0.125488,0.308105,-11.4375,52.625,32,-0.308515,-1.22449,-0.333564
2322,-34,-12,-1,-8,-7,-7,-52,-6,1.03369,-0.143555,0.413086,-28.5,57.3125,37.875,-0.33514,-1.20061,-0.315913
2322,-7,-9,5,-2,0,-8,-24,14,1.03369,-0.143555,0.413086,-28.5,57.3125,37.875,-0.33514,-1.20061,-0.315913
2337,18,9,4,1,4,3,-4,2,1.03369,-0.143555,0.413086,-28.5,57.3125,37.875,-0.33514,-1.20061,-0.315913
2337,-51,-17,-8,-5,0,-3,6,-4,1.03369,-0.143555,0.413086,-28.5,57.3125,37.875,-0.33514,-1.20061,-0.315913
2338,36,-2,0,1,1,3,46,43,0.957031,-0.253418,0.458496,-43.4375,61.6875,31.875,-0.362716,-1.17375,-0.303187
2338,-15,-20,-9,-3,-2,-4,-42,-40,0.957031,-0.253418,0.458496,-43.4375,61.6875,31.875,-0.362716,-1.17375,-0.303187
2360,0,-9,-6,-8,-11,-10,7,-5,0.957031,-0.253418,0.458496,-43.4375,61.6875,31.875,-0.362716,-1.17375,-0.303187
2360,27,0,-1,2,-2,0,15,63,0.957031,-0.253418,0.458496,-43.4375,61.6875,31.875,-0.362716,-1.17375,-0.303187
2361,9,-2,2,0,1,1,-5,-9,0.833984,-0.414062,0.425293,-17.9375,58.6875,39.375,-0.394661,-1.14581,-0.277536
2361,25,18,8,13,15,13,20,9,0.833984,-0.414062,0.425293,-17.9375,58.6875,39.375,-0.394661,-1.14581,-0.277536
2374,9,8,1,6,7,-1,-13,-9,0.833984,-0.414062,0.425293,-17.9375,58.6875,39.375,-0.394661,-1.14581,-0.277536
2374,2,-5,-9,-10,-10,-10,10,15,0.833984,-0.414062,0.425293,-17.9375,58.6875,39.375,-0.394661,-1.14581,-0.277536
2382,-13,0,-2,-5,-7,-4,-13,10,0.974121,-0.474121,0.494141,18.25,52.0625,53.9375,-0.42327,-1.1179,-0.241563
2382,20,-1,-1,-18,-13,-4,-7,24,0.974121,-0.474121,0.494141,18.25,52.0625,53.9375,-0.42327,-1.1179,-0.241563
2397,-34,-12,-7,-17,-11,-6,-18,-27,0.974121,-0.474121,0.494141,18.25,52.0625,53.9375,-0.42327,-1.1179,-0.241563
2397,5,6,5,-4,-4,-4,-34,4,0.974121,-0.474121,0.494141,18.25,52.0625,53.9375,-0.42327,-1.1179,-0.241563
2399,-11,-7,-5,3,9,4,38,1,1.11865,-0.497559,0.52832,35.3125,59.625,75.5,-0.452359,-1.0859,-0.197872
2399,33,1,5,33,19,10,13,-9,1.11865,-0.497559,0.52832,35.3125,59.625,75.5,-0.452359,-1.0859,-0.197872
2420,12,-3,1,5,6,2,1,-2,1.11865,-0.497559,0.52832,35.3125,59.625,75.5,-0.452359,-1.0859,-0.197872
2420,0,7,6,13,6,-2,2,4,1.11865,-0.497559,0.52832,35.3125,59.625,75.5,-0.452359,-1.0859,-0.197872
2421,-22,-14,-4,-15,-15,-8,-13,-16,0.947754,-0.425781,0.586914,49.4375,68.0625,84.1875,-0.469657,-1.04779,-0.159933
2421,-11,19,5,-28,-23,-11,-5,-13,0.947754,-0.425781,0.586914,49.4375,68.0625,84.1875,-0.469657,-1.04779,-0.159933
2434,30,-10,17,5,7,2,-5,22,0.947754,-0.425781,0.586914,49.4375,68.0625,84.1875,-0.469657,-1.04779,-0.159933
2434,9,-1,-37,-2,10,6,27,40,0.947754,-0.425781,0.586914,49.4375,68.0625,84.1875,-0.469657,-1.04779,-0.159933
2442,-24,17,24,28,7,1,-4,2,0.967285,-0.505371,0.6875,36.8125,74.375,89.375,-0.488934,-1.0057,-0.124406
2442,-8,-72,-25,1,-2,-4,-2,-2,0.967285,-0.505371,0.6875,36.8125,74.375,89.375,-0.488934,-1.0057,-0.124406
2457,-40,16,-1,-15,-18,-7,-17,-23,0.967285,-0.505371,0.6875,36.8125,74.375,89.375,-0.488934,-1.0057,-0.124406
2457,4,3,1,-16,-11,-3,5,-5,0.967285,-0.505371,0.6875,36.8125,74.375,89.375,-0.488934,-1.0057,-0.124406
2459,19,23,25,-13,4,0,11,11,0.923828,-0.739746,0.761719,36.6875,77.375,90.5625,-0.510604,-0.959149,-0.0874608
2459,-2,-7,-17,13,7,6,1,1,0.923828,-0.739746,0.761719,36.6875,77.375,90.5625,-0.510604,-0.959149,-0.0874608
2480,22,75,18,18,5,4,-16,7,0.923828,-0.739746,0.761719,36.6875,77.375,90.5625,-0.510604,-0.959149,-0.0874608
2480,22,-35,-24,-3,-6,-6,-2,18,0.923828,-0.739746,0.761719,36.6875,77.375,90.5625,-0.510604,-0.959149,-0.0874608
2482,15,9,-6,-14,-10,2,4,11,0.867676,-0.618652,0.78418,41,71.25,81.625,-0.519909,-0.917177,-0.0609402
2482,-59,5,22,-9,2,2,31,-16,0.867676,-0.618652,0.78418,41,71.25,81.625,-0.519909,-0.917177,-0.0609402
2494,11,24,0,15,14,5,-1,-8,0.867676,-0.618652,0.78418,41,71.25,81.625,-0.519909,-0.917177,-0.0609402
2494,-53,0,7,11,-17,-11,-60,-20,0.867676,-0.618652,0.78418,41,71.25,81.625,-0.519909,-0.917177,-0.0609402
2503,97,26,-2,-7,-13,-12,31,1,0.726562,-0.622559,0.770996,11.375,64.375,90.75,-0.54133,-0.874707,-0.0311703
2503,-12,49,19,-2,19,24,96,50,0.726562,-0.622559,0.770996,11.375,64.375,90.75,-0.54133,-0.874707,-0.0311703
2517,12,-17,-22,0,9,37,-38,27,0.726562,-0.622559,0.770996,11.375,64.375,90.75,-0.54133,-0.874707,-0.0311703
2517,-24,-48,-9,0,-16,-44,-41,-72,0.726562,-0.622559,0.770996,11.375,64.375,90.75,-0.54133,-0.874707,-0.0311703
2519,-19,3,-3,11,11,36,61,32,0.324707,-0.817871,0.676758,-20.3125,42.1875,119.188,-0.582952,-0.836866,0.0128402
2519,10,-9,-7,-57,-71,-49,-98,-10,0.324707,-0.817871,0.676758,-20.3125,42.1875,119.188,-0.582952,-0.836866,0.0128402
2539,-94,-50,-46,-44,-48,-33,-67,-70,0.324707,-0.817871,0.676758,-20.3125,42.1875,119.188,-0.582952,-0.836866,0.0128402
2539,-23,-35,-67,-13,6,-20,-42,-22,0.324707,-0.817871,0.676758,-20.3125,42.1875,119.188,-0.582952,-0.836866,0.0128402
2541,104,8,5,45,-53,-128,-51,34,-0.012207,-0.556641,0.607422,27.6875,-22.375,125.062,-0.618146,-0.814984,0.0732688
2541,6,-2,-29,-75,45,73,57,33,-0.012207,-0.556641,0.607422,27.6875,-22.375,125.062,-0.618146,-0.814984,0.0732688
2554,-22,-17,-21,12,-27,-95,-40,-24,-0.012207,-0.556641,0.607422,27.6875,-22.375,125.062,-0.618146,-0.814984,0.0732688
2554,-28,5,25,-126,-36,123,104,-35,-0.012207,-0.556641,0.607422,27.6875,-22.375,125.062,-0.618146,-0.814984,0.0732688
2562,-74,-12,3,51,46,-62,-8,-14,0.316895,-0.766113,0.724609,76.25,-98.1875,72.5,-0.641575,-0.81468,0.137511
2562,46,44,83,127,123,-11,74,42,0.316895,-0.766113,0.724609,76.25,-98.1875,72.5,-0.641575,-0.81468,0.137511
2578,41,38,101,113,112,108,46,108,0.316895,-0.766113,0.724609,76.25,-98.1875,72.5,-0.641575,-0.81468,0.137511
2578,36,22,10,127,6,-92,-83,-33,0.316895,-0.766113,0.724609,76.25,-98.1875,72.5,-0.641575,-0.81468,0.137511
2580,2,-4,-28,-76,-75,-31,-15,-23,2.12109,-0.822266,0.779297,13.875,-102.688,65.25,-0.68113,-0.832502,0.19731
2580,44,-15,-49,-103,-128,-40,39,11,2.12109,-0.822266,0.779297,13.875,-102.688,65.25,-0.68113,-0.832502,0.19731
2599,120,12,-58,-128,-127,-38,-24,27,2.12109,-0.822266,0.779297,13.875,-102.688,65.25,-0.68113,-0.832502,0.19731
2599,-17,-15,-26,4,37,66,127,96,2.12109,-0.822266,0.779297,13.875,-102.688,65.25,-0.68113,-0.832502,0.19731
2601,-60,-39,0,98,118,74,-19,-100,2.31104,0.416504,0.0610352,99.75,-53.125,40.4375,-0.671317,-0.838312,0.231026
2601,110,-31,-27,-47,-78,-108,-127,-23,2.31104,0.416504,0.0610352,99.75,-53.125,40.4375,-0.671317,-0.838312,0.231026
2613,-74,-27,10,-105,28,-28,-4,-51,2.31104,0.416504,0.0610352,99.75,-53.125,40.4375,-0.671317,-0.838312,0.231026
2613,65,30,67,90,89,13,12,24,2.31104,0.416504,0.0610352,99.75,-53.125,40.4375,-0.671317,-0.838312,0.231026
2622,-5,-4,15,-80,-8,75,-36,23,0.260742,0.97998,0.12793,76.5625,-51.375,-18.9375,-0.619205,-0.86911,0.215553
2622,-115,-30,-45,-34,25,-2,5,-24,0.260742,0.97998,0.12793,76.5625,-51.375,-18.9375,-0.619205,-0.86911,0.215553
2628,46,-31,-1,9,17,-51,-45,-53,0.260742,0.97998,0.12793,76.5625,-51.375,-18.9375,-0.619205,-0.86911,0.215553
2628,45,40,95,22,46,11,-68,16,0.260742,0.97998,0.12793,76.5625,-51.375,-18.9375,-0.619205,-0.86911,0.215553
2636,22,24,61,121,103,91,68,1,1.37305,0.36084,0.583008,-91.625,-3.8125,-112.5,-0.607197,-0.896877,0.16169
2636,23,47,52,-18,-57,-19,-57,2,1.37305,0.36084,0.583008,-91.625,-3.8125,-112.5,-0.607197,-0.896877,0.16169
2652,19,4,-20,-128,-128,-40,13,30,1.37305,0.36084,0.583008,-91.625,-3.8125,-112.5,-0.607197,-0.896877,0.16169
2652,-48,-11,-64,-112,-127,-107,-21,-16,1.37305,0.36084,0.583008,-91.625,-3.8125,-112.5,-0.607197,-0.896877,0.16169
2654,-25,-30,-39,-75,18,-69,-1,-26,1.74512,-0.779297,0.665527,-132,11.3125,-20.75,-0.645188,-0.89974,0.150256
2654,-15,2,9,70,96,122,-3,-3,1.74512,-0.779297,0.665527,-132,11.3125,-20.75,-0.645188,-0.89974,0.150256
2666,32,1,-3,39,-14,1,60,52,1.74512,-0.779297,0.665527,-132,11.3125,-20.75,-0.645188,-0.89974,0.150256
2666,-53,-23,-9,-44,18,1,-37,-24,1.74512,-0.779297,0.665527,-132,11.3125,-20.75,-0.645188,-0.89974,0.150256
2675,-12,16,-12,-23,-45,-2,-8,40,1.18311,-0.806641,0.801758,25.875,31.6875,19.9375,-0.641417,-0.88357,0.153685
2675,18,-9,3,50,81,-24,-17,-14,1.18311,-0.806641,0.801758,25.875,31.6875,19.9375,-0.641417,-0.88357,0.153685
2689,-23,1,-8,95,86,59,20,-45,1.18311,-0.806641,0.801758,25.875,31.6875,19.9375,-0.641417,-0.88357,0.153685
2689,19,2,14,-54,-60,10,69,12,1.18311,-0.806641,0.801758,25.875,31.6875,19.9375,-0.641417,-0.88357,0.153685
2704,-13,-6,-33,-106,-108,-27,-54,-1,1.39355,0.0239258,0.625,77,68.6875,9.9375,-0.587283,-0.874717,0.125725
2704,-14,-11,-10,5,18,-39,-33,-9,1.39355,0.0239258,0.625,77,68.6875,9.9375,-0.587283,-0.874717,0.125725
2712,-36,-14,3,51,23,11,7,-29,1.39355,0.0239258,0.625,77,68.6875,9.9375,-0.587283,-0.874717,0.125725
2712,21,11,-28,-97,-101,-36,-9,26,1.39355,0.0239258,0.625,77,68.6875,9.9375,-0.587283,-0.874717,0.125725
2714,-1,-11,-28,-23,36,-21,39,-18,1.1582,0.114746,0.575195,-19.8125,91.75,-8.3125,-0.555901,-0.860124,0.0836494
2714,19,16,18,100,76,97,51,-7,1.1582,0.114746,0.575195,-19.8125,91.75,-8.3125,-0.555901,-0.860124,0.0836494
2726,-22,2,28,-50,-34,-12,-5,17,1.1582,0.114746,0.575195,-19.8125,91.75,-8.3125,-0.555901,-0.860124,0.0836494
2726,40,9,62,35,-12,-22,17,-8,1.1582,0.114746,0.575195,-19.8125,91.75,-8.3125,-0.555901,-0.860124,0.0836494
2734,-62,-28,-6,71,34,24,-50,22,1.05029,-0.419434,0.592285,-58.9375,98.4375,4.625,-0.559096,-0.834374,0.0595716
2734,-23,6,31,58,42,-31,-42,-17,1.05029,-0.419434,0.592285,-58.9375,98.4375,4.625,-0.559096,-0.834374,0.0595716
2757,-15,-9,-12,65,-10,-17,29,11,1.05029,-0.419434,0.592285,-58.9375,98.4375,4.625,-0.559096,-0.834374,0.0595716
2757,21,-6,-50,-98,-43,-18,-10,-9,1.05029,-0.419434,0.592285,-58.9375,98.4375,4.625,-0.559096,-0.834374,0.0595716
2764,60,9,25,-19,-50,11,-3,27,0.833984,-0.623047,0.504395,-9.1875,96.25,10.9375,-0.556126,-0.804543,0.0451601
2764,44,-15,-16,-48,-128,-72,23,45,0.833984,-0.623047,0.504395,-9.1875,96.25,10.9375,-0.556126,-0.804543,0.0451601
2780,-41,-11,15,-82,-55,-35,-94,-67,0.833984,-0.623047,0.504395,-9.1875,96.25,10.9375,-0.556126,-0.804543,0.0451601
2780,-76,5,-11,127,109,83,-15,-24,0.833984,-0.623047,0.504395,-9.1875,96.25,10.9375,-0.556126,-0.804543,0.0451601
2782,29,20,15,75,42,66,38,11,0.525391,-0.42334,0.395508,21.625,102.25,11.625,-0.534827,-0.771777,0.0248023
2782,5,3,0,-95,-91,30,31,6,0.525391,-0.42334,0.395508,21.625,102.25,11.625,-0.534827,-0.771777,0.0248023
2802,24,-8,-20,-107,-43,-45,-6,5,0.525391,-0.42334,0.395508,21.625,102.25,11.625,-0.534827,-0.771777,0.0248023
2802,-4,31,-14,-66,-32,-45,-16,10,0.525391,-0.42334,0.395508,21.625,102.25,11.625,-0.534827,-0.771777,0.0248023
2804,3,-10,43,35,30,32,-3,-5,0.316895,-0.394531,0.357422,-4.4375,110.312,1.25,-0.519937,-0.737646,-0.00020768
2804,-30,-11,-20,51,-16,-49,-18,-10,0.316895,-0.394531,0.357422,-4.4375,110.312,1.25,-0.519937,-0.737646,-0.00020768
2816,-4,3,2,43,-19,79,40,2,0.316895,-0.394531,0.357422,-4.4375,110.312,1.25,-0.519937,-0.737646,-0.00020768
2816,13,7,1,39,14,35,12,-2,0.316895,-0.394531,0.357422,-4.4375,110.312,1.25,-0.519937,-0.737646,-0.00020768
2824,-10,-10,-46,-108,-8,-57,-2,17,0.245605,-0.50293,0.349609,-14.6875,118.75,5.875,-0.510862,-0.699575,-0.0237113
2824,-24,10,50,77,64,57,-71,-39,0.245605,-0.50293,0.349609,-14.6875,118.75,5.875,-0.510862,-0.699575,-0.0237113
2839,14,8,-25,-9,25,-47,-6,3,0.311035,-0.487793,0.288086,-13.1875,120.25,6.75,-0.502817,-0.661402,-0.0458362
2839,41,10,25,79,6,34,91,4,0.311035,-0.487793,0.288086,-13.1875,120.25,6.75,-0.502817,-0.661402,-0.0458362
2840,18,-2,-5,-111,-127,39,74,-4,0.311035,-0.487793,0.288086,-13.1875,120.25,6.75,-0.502817,-0.661402,-0.0458362
2840,-20,-4,-18,-35,60,28,-1,-4,0.311035,-0.487793,0.288086,-13.1875,120.25,6.75,-0.502817,-0.661402,-0.0458362
2862,8,2,38,116,127,42,17,10,0.28418,-0.431641,0.322266,-15.25,128.375,4.6875,-0.49488,-0.620867,-0.0698314
2862,-18,-3,9,8,-53,-58,-57,-6,0.28418,-0.431641,0.322266,-15.25,128.375,4.6875,-0.49488,-0.620867,-0.0698314
2862,-6,1,-34,-103,-66,-63,-32,-12,0.28418,-0.431641,0.322266,-15.25,128.375,4.6875,-0.49488,-0.620867,-0.0698314
2862,14,5,25,57,6,1,19,6,0.28418,-0.431641,0.322266,-15.25,128.375,4.6875,-0.49488,-0.620867,-0.0698314
2876,3,1,-27,-19,-17,-4,29,12,0.176758,-0.34668,0.316406,-6.75,139.938,2.5625,-0.483233,-0.576779,-0.0959385
2876,14,5,2,1,46,-3,-2,12,0.176758,-0.34668,0.316406,-6.75,139.938,2.5625,-0.483233,-0.576779,-0.0959385
2883,-15,-10,29,2,11,-19,-55,-16,0.176758,-0.34668,0.316406,-6.75,139.938,2.5625,-0.483233,-0.576779,-0.0959385
2883,0,10,4,-5,34,17,-21,4,0.176758,-0.34668,0.316406,-6.75,139.938,2.5625,-0.483233,-0.576779,-0.0959385
2899,-5,-16,-76,6,13,-2,-4,1,0.0908203,-0.204102,0.40625,3.4375,140.938,10.75,-0.47022,-0.530433,-0.11848
2899,-10,-15,-54,-63,-106,-103,-55,-1,0.0908203,-0.204102,0.40625,3.4375,140.938,10.75,-0.47022,-0.530433,-0.11848
2899,9,13,16,80,107,95,56,-2,0.0908203,-0.204102,0.40625,3.4375,140.938,10.75,-0.47022,-0.530433,-0.11848
2899,6,22,45,74,75,16,-3,-10,0.0908203,-0.204102,0.40625,3.4375,140.938,10.75,-0.47022,-0.530433,-0.11848
2921,-4,6,24,57,-3,28,15,0,0.0864258,-0.172852,0.465332,-9.875,137.188,17.25,-0.464183,-0.483966,-0.1372
2921,29,-16,3,-51,-38,-4,-4,8,0.0864258,-0.172852,0.465332,-9.875,137.188,17.25,-0.464183,-0.483966,-0.1372
2922,-36,-2,-24,-34,-46,-68,-53,-15,0.0864258,-0.172852,0.465332,-9.875,137.188,17.25,-0.464183,-0.483966,-0.1372
2922,-6,-2,-16,-108,-113,-37,7,9,0.0864258,-0.172852,0.465332,-9.875,137.188,17.25,-0.464183,-0.483966,-0.1372
2936,4,-5,-19,3,34,20,17,13,0.0585938,-0.23584,0.602539,-6.875,138.188,17.875,-0.458253,-0.436641,-0.155165
2936,7,7,24,98,127,55,-11,8,0.0585938,-0.23584,0.602539,-6.875,138.188,17.875,-0.458253,-0.436641,-0.155165
2944,23,8,25,93,48,4,3,-2,0.0585938,-0.23584,0.602539,-6.875,138.188,17.875,-0.458253,-0.436641,-0.155165
2944,24,1,21,-88,-110,-34,11,10,0.0585938,-0.23584,0.602539,-6.875,138.188,17.875,-0.458253,-0.436641,-0.155165
2959,-7,1,55,-54,-17,-7,-18,-5,-0.0693359,-0.257324,0.682617,6.9375,135.625,23,-0.44956,-0.38854,-0.170013
2959,-1,-22,-63,18,28,2,-32,-7,-0.0693359,-0.257324,0.682617,6.9375,135.625,23,-0.44956,-0.38854,-0.170013
2960,-50,-14,-59,-2,24,-4,-40,-19,-0.0693359,-0.257324,0.682617,6.9375,135.625,23,-0.44956,-0.38854,-0.170013
2960,0,-5,1,-35,-74,-19,42,-2,-0.0693359,-0.257324,0.682617,6.9375,135.625,23,-0.44956,-0.38854,-0.170013
2990,16,-1,-43,-4,13,-14,-8,5,-0.00439453,-0.276367,0.740234,23.125,129.938,29.5625,-0.437224,-0.341483,-0.181024
2990,2,0,61,-26,30,2,1,6,-0.00439453,-0.276367,0.740234,23.125,129.938,29.5625,-0.437224,-0.341483,-0.181024
2990,3,-8,-14,60,34,46,12,-3,-0.00439453,-0.276367,0.740234,23.125,129.938,29.5625,-0.437224,-0.341483,-0.181024
2990,-3,5,26,33,77,4,-2,-3,-0.00439453,-0.276367,0.740234,23.125,129.938,29.5625,-0.437224,-0.341483,-0.181024
2996,-27,-9,-2,68,5,12,17,-19,0.131348,-0.300293,0.783203,16.0625,114.562,34.1875,-0.429294,-0.299504,-0.187358
2996,0,-13,45,-23,-37,-3,22,6,0.131348,-0.300293,0.783203,16.0625,114.562,34.1875,-0.429294,-0.299504,-0.187358
3005,8,-18,-77,-64,-91,-40,55,16,0.131348,-0.300293,0.783203,16.0625,114.562,34.1875,-0.429294,-0.299504,-0.187358
3005,0,-15,-31,-31,32,-6,-60,-8,0.131348,-0.300293,0.783203,16.0625,114.562,34.1875,-0.429294,-0.299504,-0.187358
3027,-43,3,22,-56,-51,-5,13,-17,0.222656,-0.362793,0.76709,18.625,104.5,39.1875,-0.422047,-0.26055,-0.190036
3027,-8,2,28,82,112,10,30,11,0.222656,-0.362793,0.76709,18.625,104.5,39.1875,-0.422047,-0.26055,-0.190036
3028,-15,-6,22,-33,-65,3,-30,-8,0.222656,-0.362793,0.76709,18.625,104.5,39.1875,-0.422047,-0.26055,-0.190036
3028,-13,2,-1,-17,-37,-25,16,-12,0.222656,-0.362793,0.76709,18.625,104.5,39.1875,-0.422047,-0.26055,-0.190036
3042,-3,-10,-34,17,21,40,49,10,0.160156,-0.337402,0.713867,13.8125,96.375,39.5,-0.417431,-0.223698,-0.191115
3042,30,15,20,-69,-48,-12,-7,5,0.160156,-0.337402,0.713867,13.8125,96.375,39.5,-0.417431,-0.223698,-0.191115
3042,22,5,6,-40,-21,-19,-28,16,0.160156,-0.337402,0.713867,13.8125,96.375,39.5,-0.417431,-0.223698,-0.191115
3042,-19,0,5,9,44,-47,21,-2,0.160156,-0.337402,0.713867,13.8125,96.375,39.5,-0.417431,-0.223698,-0.191115
3066,21,-16,-8,33,-23,50,-44,-3,0.152344,-0.332031,0.716797,14.4375,90.875,33.375,-0.412316,-0.189996,-0.193261
3066,-22,-1,-47,12,-54,-7,-15,-27,0.152344,-0.332031,0.716797,14.4375,90.875,33.375,-0.412316,-0.189996,-0.193261
3067,-10,6,49,-13,41,-93,-94,-20,0.152344,-0.332031,0.716797,14.4375,90.875,33.375,-0.412316,-0.189996,-0.193261
3067,15,-1,-47,34,29,82,100,18,0.152344,-0.332031,0.716797,14.4375,90.875,33.375,-0.412316,-0.189996,-0.193261
3095,19,22,75,49,71,46,70,14,0.112793,-0.428223,0.743652,8.1875,78.8125,21.1875,-0.411089,-0.161186,-0.197116
3095,-17,-1,-6,59,41,19,49,16,0.112793,-0.428223,0.743652,8.1875,78.8125,21.1875,-0.411089,-0.161186,-0.197116
3096,20,-6,24,-63,-80,-12,-18,7,0.112793,-0.428223,0.743652,8.1875,78.8125,21.1875,-0.411089,-0.161186,-0.197116
3096,-44,-9,-58,-1,-7,-32,-82,-26,0.112793,-0.428223,0.743652,8.1875,78.8125,21.1875,-0.411089,-0.161186,-0.197116
3102,3,0,-46,-116,-80,-86,-39,2,0.0556641,-0.391602,0.692871,18.0625,71.125,19.4375,-0.406367,-0.134513,-0.200441
3102,6,14,25,21,82,42,-11,1,0.0556641,-0.391602,0.692871,18.0625,71.125,19.4375,-0.406367,-0.134513,-0.200441
3102,40,12,15,101,92,64,53,27,0.0556641,-0.391602,0.692871,18.0625,71.125,19.4375,-0.406367,-0.134513,-0.200441
3102,-18,2,-8,-110,-60,-20,-42,-9,0.0556641,-0.391602,0.692871,18.0625,71.125,19.4375,-0.406367,-0.134513,-0.200441
3116,19,-9,-21,-52,-74,-74,18,-2,0.0668945,-0.378418,0.692871,11.625,72.25,25.3125,-0.403928,-0.107382,-0.202053
3116,-57,-3,-51,-22,20,36,-41,-26,0.0668945,-0.378418,0.692871,11.625,72.25,25.3125,-0.403928,-0.107382,-0.202053
3131,-9,9,94,88,103,13,36,3,0.0668945,-0.378418,0.692871,11.625,72.25,25.3125,-0.403928,-0.107382,-0.202053
3131,33,31,96,25,15,106,33,10,0.0668945,-0.378418,0.692871,11.625,72.25,25.3125,-0.403928,-0.107382,-0.202053
3139,15,-18,-35,-63,-62,-9,-15,12,-0.0654297,-0.270996,0.676758,-1.0625,42.5,24.9375,-0.404074,-0.0871661,-0.199947
3139,3,-24,-42,-67,-128,-61,9,-7,-0.0654297,-0.270996,0.676758,-1.0625,42.5,24.9375,-0.404074,-0.0871661,-0.199947
3139,-11,-31,-54,-52,-48,-36,-38,-18,-0.0654297,-0.270996,0.676758,-1.0625,42.5,24.9375,-0.404074,-0.0871661,-0.199947
3139,27,-7,-15,127,84,18,-22,7,-0.0654297,-0.270996,0.676758,-1.0625,42.5,24.9375,-0.404074,-0.0871661,-0.199947
3170,-5,33,69,-14,-18,-34,19,5,-0.0874023,-0.411621,0.628906,9.0625,43.5,28.75,-0.404316,-0.0659262,-0.196435
3170,-8,6,90,-80,-42,-29,-51,-24,-0.0874023,-0.411621,0.628906,9.0625,43.5,28.75,-0.404316,-0.0659262,-0.196435
3170,-3,-13,-76,-82,-19,-31,4,8,-0.0874023,-0.411621,0.628906,9.0625,43.5,28.75,-0.404316,-0.0659262,-0.196435
3170,20,-43,-103,-27,15,-16,-111,-44,-0.0874023,-0.411621,0.628906,9.0625,43.5,28.75,-0.404316,-0.0659262,-0.196435
3175,55,7,52,127,127,17,63,68,-0.17334,-0.353516,0.709961,-6.0625,37.3125,23.9375,-0.407603,-0.0455555,-0.193786
3175,4,-6,3,-30,-41,24,-28,-1,-0.17334,-0.353516,0.709961,-6.0625,37.3125,23.9375,-0.407603,-0.0455555,-0.193786
3186,-4,17,32,34,-33,17,-10,-9,-0.17334,-0.353516,0.709961,-6.0625,37.3125,23.9375,-0.407603,-0.0455555,-0.193786
3186,1,-1,-15,-71,17,-60,-29,0,-0.17334,-0.353516,0.709961,-6.0625,37.3125,23.9375,-0.407603,-0.0455555,-0.193786
3201,-8,-8,-32,-53,12,53,16,4,-0.0864258,-0.412598,0.743164,-8.625,36.3125,16.9375,-0.412672,-0.0288197,-0.193361
3201,12,-17,-27,8,-33,8,21,-7,-0.0864258,-0.412598,0.743164,-8.625,36.3125,16.9375,-0.412672,-0.0288197,-0.193361
3202,15,-5,-39,-17,23,-43,-7,20,-0.0864258,-0.412598,0.743164,-8.625,36.3125,16.9375,-0.412672,-0.0288197,-0.193361
3202,-37,-4,60,-68,-20,-30,33,-4,-0.0864258,-0.412598,0.743164,-8.625,36.3125,16.9375,-0.412672,-0.0288197,-0.193361
3245,-23,-11,78,89,44,17,-39,-38,-0.195312,-0.352539,0.799316,4.125,33.5,9.0625,-0.411178,-0.0117573,-0.195137
3245,20,-1,-22,47,21,-4,37,35,-0.195312,-0.352539,0.799316,4.125,33.5,9.0625,-0.411178,-0.0117573,-0.195137
3246,-21,-10,-32,-86,-94,-16,-17,-18,-0.195312,-0.352539,0.799316,4.125,33.5,9.0625,-0.411178,-0.0117573,-0.195137
3246,-52,-31,-74,114,80,27,24,-18,-0.195312,-0.352539,0.799316,4.125,33.5,9.0625,-0.411178,-0.0117573,-0.195137
3268,15,18,11,2,-38,-10,-21,3,-0.240723,-0.287109,0.868652,3.5,33.0625,9.5625,-0.40792,0.00591819,-0.196611
3268,-43,-17,-49,-63,-17,-16,-31,-23,-0.240723,-0.287109,0.868652,3.5,33.0625,9.5625,-0.40792,0.00591819,-0.196611
3269,10,23,75,91,85,43,40,6,-0.240723,-0.287109,0.868652,3.5,33.0625,9.5625,-0.40792,0.00591819,-0.196611
3269,26,24,-31,-96,-128,-14,6,19,-0.240723,-0.287109,0.868652,3.5,33.0625,9.5625,-0.40792,0.00591819,-0.196611
3285,-5,-16,-67,-128,-108,-84,-22,-15,-0.0893555,-0.346191,0.879883,-2.0625,34.0625,15.3125,-0.407884,0.0206221,-0.196406
3285,-14,-11,-5,77,48,-28,36,-5,-0.0893555,-0.346191,0.879883,-2.0625,34.0625,15.3125,-0.407884,0.0206221,-0.196406
3286,0,-10,10,66,60,14,-74,-11,-0.0893555,-0.346191,0.879883,-2.0625,34.0625,15.3125,-0.407884,0.0206221,-0.196406
3286,6,12,2,-94,-115,-7,-54,17,-0.0893555,-0.346191,0.879883,-2.0625,34.0625,15.3125,-0.407884,0.0206221,-0.196406
3306,-26,-9,2,127,127,107,40,-38,-0.0571289,-0.40332,0.919922,-13,33.9375,16.25,-0.412394,0.0343301,-0.195925
3306,39,10,31,83,-15,-8,32,39,-0.0571289,-0.40332,0.919922,-13,33.9375,16.25,-0.412394,0.0343301,-0.195925
3307,-25,-8,7,-88,-111,-52,-2,-36,-0.0571289,-0.40332,0.919922,-13,33.9375,16.25,-0.412394,0.0343301,-0.195925
3307,-13,14,36,97,64,-2,20,18,-0.0571289,-0.40332,0.919922,-13,33.9375,16.25,-0.412394,0.0343301,-0.195925
3308,13,3,19,31,25,-12,-15,2,-0.0942383,-0.402832,0.919434,-8.875,34.625,7.3125,-0.415508,0.0476716,-0.198506
3308,-18,-1,13,-83,7,3,-54,-24,-0.0942383,-0.402832,0.919434,-8.875,34.625,7.3125,-0.415508,0.0476716,-0.198506
3312,19,14,-36,92,17,20,36,19,-0.0942383,-0.402832,0.919434,-8.875,34.625,7.3125,-0.415508,0.0476716,-0.198506
3312,6,-10,-66,-93,-109,-52,-19,-19,-0.0942383,-0.402832,0.919434,-8.875,34.625,7.3125,-0.415508,0.0476716,-0.198506
3335,-16,5,40,-69,5,-4,-12,-10,-0.114746,-0.38916,0.925781,-1.8125,33.125,8.6875,-0.415832,0.0606914,-0.200294
3335,4,-1,-41,91,91,13,8,7,-0.114746,-0.38916,0.925781,-1.8125,33.125,8.6875,-0.415832,0.0606914,-0.200294
3336,11,-5,-9,-33,-23,-56,-24,12,-0.114746,-0.38916,0.925781,-1.8125,33.125,8.6875,-0.415832,0.0606914,-0.200294
3336,-4,-2,39,-12,19,62,54,2,-0.114746,-0.38916,0.925781,-1.8125,33.125,8.6875,-0.415832,0.0606914,-0.200294
3350,6,16,18,19,11,-8,-10,12,-0.120117,-0.359863,0.946289,-8.3125,29.4375,15.8125,-0.417287,0.0735535,-0.199373
3350,-1,5,26,-21,-68,-13,-23,5,-0.120117,-0.359863,0.946289,-8.3125,29.4375,15.8125,-0.417287,0.0735535,-0.199373
3366,-15,3,-19,-72,15,-31,-19,-1,-0.120117,-0.359863,0.946289,-8.3125,29.4375,15.8125,-0.417287,0.0735535,-0.199373
3366,20,-4,-19,127,88,41,54,-1,-0.120117,-0.359863,0.946289,-8.3125,29.4375,15.8125,-0.417287,0.0735535,-0.199373
3368,-11,-15,-14,-22,-11,-34,-15,-10,-0.103516,-0.382812,0.95166,-13.3125,28.4375,12.4375,-0.42103,0.0847716,-0.199402
3368,10,5,-4,-94,-30,28,-18,-6,-0.103516,-0.382812,0.95166,-13.3125,28.4375,12.4375,-0.42103,0.0847716,-0.199402
3369,7,1,10,4,34,56,86,5,-0.103516,-0.382812,0.95166,-13.3125,28.4375,12.4375,-0.42103,0.0847716,-0.199402
3369,40,12,74,57,75,10,46,36,-0.103516,-0.382812,0.95166,-13.3125,28.4375,12.4375,-0.42103,0.0847716,-0.199402
3381,-20,-9,-107,72,20,10,-49,2,-0.0693359,-0.388184,0.930664,-6.5,24.875,8.9375,-0.422624,0.0932997,-0.199986
3381,18,13,26,5,40,-35,-10,-20,-0.0693359,-0.388184,0.930664,-6.5,24.875,8.9375,-0.422624,0.0932997,-0.199986
3382,-17,4,19,-108,-128,-49,-4,-5,-0.0693359,-0.388184,0.930664,-6.5,24.875,8.9375,-0.422624,0.0932997,-0.199986
3382,-28,-39,-86,-58,30,-14,-37,-31,-0.0693359,-0.388184,0.930664,-6.5,24.875,8.9375,-0.422624,0.0932997,-0.199986
3403,1,10,48,45,15,-7,3,-3,-0.0849609,-0.361328,0.920898,0.375,15.25,10.5,-0.421194,0.0993551,-0.198702
3403,-24,-8,-38,-54,-37,-6,20,15,-0.0849609,-0.361328,0.920898,0.375,15.25,10.5,-0.421194,0.0993551,-0.198702
3404,6,-7,35,115,71,41,-23,-2,-0.0849609,-0.361328,0.920898,0.375,15.25,10.5,-0.421194,0.0993551,-0.198702
3404,19,9,6,-64,-21,-20,4,0,-0.0849609,-0.361328,0.920898,0.375,15.25,10.5,-0.421194,0.0993551,-0.198702
3432,-32,1,44,-7,-34,-43,-30,-3,-0.0458984,-0.377441,0.912109,0.625,11.25,11.0625,-0.420078,0.103139,-0.196685
3432,-22,-19,-31,-74,-28,1,10,-9,-0.0458984,-0.377441,0.912109,0.625,11.25,11.0625,-0.420078,0.103139,-0.196685
3433,8,11,19,-16,46,-11,8,-6,-0.0458984,-0.377441,0.912109,0.625,11.25,11.0625,-0.420078,0.103139,-0.196685
3433,5,-8,-6,-23,-45,48,9,19,-0.0458984,-0.377441,0.912109,0.625,11.25,11.0625,-0.420078,0.103139,-0.196685
3455,-4,-7,8,61,79,64,20,1,-0.0927734,-0.375488,0.862793,-4.1875,10.125,5.0625,-0.421231,0.106976,-0.196477
3455,27,15,100,78,17,-7,35,14,-0.0927734,-0.375488,0.862793,-4.1875,10.125,5.0625,-0.421231,0.106976,-0.196477
3455,-11,-4,-49,-40,-64,-33,-60,-9,-0.0927734,-0.375488,0.862793,-4.1875,10.125,5.0625,-0.421231,0.106976,-0.196477
3455,-44,-2,59,-64,-2,-45,-24,-13,-0.0927734,-0.375488,0.862793,-4.1875,10.125,5.0625,-0.421231,0.106976,-0.196477
3469,-8,-19,-69,13,-1,8,0,3,-0.0415039,-0.415039,0.849121,-2.5625,1.0625,4.5625,-0.422725,0.106484,-0.195229
3469,26,22,32,16,73,14,-3,3,-0.0415039,-0.415039,0.849121,-2.5625,1.0625,4.5625,-0.422725,0.106484,-0.195229
3470,3,-13,-6,66,17,24,-5,-2,-0.0415039,-0.415039,0.849121,-2.5625,1.0625,4.5625,-0.422725,0.106484,-0.195229
3470,-35,-5,-29,-9,11,-24,13,-16,-0.0415039,-0.415039,0.849121,-2.5625,1.0625,4.5625,-0.422725,0.106484,-0.195229
3485,-10,-9,-54,-124,-88,-19,-30,-11,-0.046875,-0.421387,0.854492,0.4375,-5.625,4.9375,-0.423048,0.104155,-0.192981
3485,18,2,8,41,29,-43,-12,12,-0.046875,-0.421387,0.854492,0.4375,-5.625,4.9375,-0.423048,0.104155,-0.192981
3485,-11,19,27,-16,-51,36,31,-5,-0.046875,-0.421387,0.854492,0.4375,-5.625,4.9375,-0.423048,0.104155,-0.192981
3485,-3,-22,-23,-22,16,7,24,-7,-0.046875,-0.421387,0.854492,0.4375,-5.625,4.9375,-0.423048,0.104155,-0.192981
3499,4,1,10,32,10,-4,9,0,-0.065918,-0.38916,0.848633,-2.625,-7.75,1.875,-0.423999,0.101173,-0.191269
3499,22,2,-69,-25,42,-4,-4,16,-0.065918,-0.38916,0.848633,-2.625,-7.75,1.875,-0.423999,0.101173,-0.191269
3500,7,6,69,88,5,38,5,-4,-0.065918,-0.38916,0.848633,-2.625,-7.75,1.875,-0.423999,0.101173,-0.191269
3500,11,6,20,7,-91,-11,24,19,-0.065918,-0.38916,0.848633,-2.625,-7.75,1.875,-0.423999,0.101173,-0.191269
3521,2,-2,61,-11,40,-80,-45,-29,-0.034668,-0.411133,0.833984,-7.1875,-9.125,-3.625,-0.427135,0.0965421,-0.191096
3521,-41,-10,-36,-59,-115,62,3,-1,-0.034668,-0.411133,0.833984,-7.1875,-9.125,-3.625,-0.427135,0.0965421,-0.191096
3522,-1,-24,-39,-85,81,-28,-36,-6,-0.034668,-0.411133,0.833984,-7.1875,-9.125,-3.625,-0.427135,0.0965421,-0.191096
3522,10,30,111,127,27,20,26,15,-0.034668,-0.411133,0.833984,-7.1875,-9.125,-3.625,-0.427135,0.0965421,-0.191096
3537,-25,-3,-20,-114,-73,7,-17,-7,-0.065918,-0.417969,0.853516,-4.5625,-11.5,-6,-0.429381,0.0915081,-0.191387
3537,31,-2,18,80,68,-25,-25,-4,-0.065918,-0.417969,0.853516,-4.5625,-11.5,-6,-0.429381,0.0915081,-0.191387
3544,-52,13,20,106,41,38,22,-13,-0.065918,-0.417969,0.853516,-4.5625,-11.5,-6,-0.429381,0.0915081,-0.191387
3544,14,-13,-41,-83,-40,-35,-47,1,-0.065918,-0.417969,0.853516,-4.5625,-11.5,-6,-0.429381,0.0915081,-0.191387
3559,38,4,51,-102,-89,-91,4,14,-0.0761719,-0.438965,0.86377,-7.0625,-14.6875,-5.5,-0.432645,0.0858738,-0.191093
3559,-42,-22,-98,-48,86,49,-52,-22,-0.0761719,-0.438965,0.86377,-7.0625,-14.6875,-5.5,-0.432645,0.0858738,-0.191093
3560,27,-3,-7,68,43,74,25,5,-0.0761719,-0.438965,0.86377,-7.0625,-14.6875,-5.5,-0.432645,0.0858738,-0.191093
3560,11,24,68,-42,25,-74,-31,2,-0.0761719,-0.438965,0.86377,-7.0625,-14.6875,-5.5,-0.432645,0.0858738,-0.191093
3581,-1,-2,-10,36,0,14,-11,6,-0.0795898,-0.443848,0.891602,-10.875,-16.1875,-1.9375,-0.436861,0.0803525,-0.189364
3581,0,7,33,-16,-63,69,6,-5,-0.0795898,-0.443848,0.891602,-10.875,-16.1875,-1.9375,-0.436861,0.0803525,-0.189364
3589,37,8,-20,-23,-2,-11,125,30,-0.0795898,-0.443848,0.891602,-10.875,-16.1875,-1.9375,-0.436861,0.0803525,-0.189364
3589,-16,4,25,36,2,27,-9,-8,-0.0795898,-0.443848,0.891602,-10.875,-16.1875,-1.9375,-0.436861,0.0803525,-0.189364
3596,17,-12,-47,-40,-74,-42,-17,14,-0.0610352,-0.437012,0.905762,-8.8125,-14.5625,-5.875,-0.440156,0.0746148,-0.189021
3596,-35,-8,-61,-74,48,-15,-26,-42,-0.0610352,-0.437012,0.905762,-8.8125,-14.5625,-5.875,-0.440156,0.0746148,-0.189021
3604,33,17,63,64,32,14,5,17,-0.0610352,-0.437012,0.905762,-8.8125,-14.5625,-5.875,-0.440156,0.0746148,-0.189021
3604,-18,1,-19,102,10,2,6,-14,-0.0610352,-0.437012,0.905762,-8.8125,-14.5625,-5.875,-0.440156,0.0746148,-0.189021
3619,17,-1,-66,-33,-2,33,40,-4,-0.105957,-0.385254,0.865234,-5.5,-14.5,-9.875,-0.441556,0.0695016,-0.189946
3619,-13,-4,40,8,-34,-37,-15,11,-0.105957,-0.385254,0.865234,-5.5,-14.5,-9.875,-0.441556,0.0695016,-0.189946
3619,31,-14,-38,-94,-76,-36,-48,-14,-0.105957,-0.385254,0.865234,-5.5,-14.5,-9.875,-0.441556,0.0695016,-0.189946
3619,-52,-28,-43,23,74,23,-38,-17,-0.105957,-0.385254,0.865234,-5.5,-14.5,-9.875,-0.441556,0.0695016,-0.189946
3643,44,24,48,51,10,7,14,20,-0.0458984,-0.399902,0.88916,-2.8125,-19.1875,-8.125,-0.442153,0.0619672,-0.189647
3643,-27,-7,-4,-43,-53,-2,-5,-27,-0.0458984,-0.399902,0.88916,-2.8125,-19.1875,-8.125,-0.442153,0.0619672,-0.189647
3643,-21,-7,2,-54,-12,-40,80,2,-0.0458984,-0.399902,0.88916,-2.8125,-19.1875,-8.125,-0.442153,0.0619672,-0.189647
3643,22,13,46,88,24,38,76,11,-0.0458984,-0.399902,0.88916,-2.8125,-19.1875,-8.125,-0.442153,0.0619672,-0.189647
3680,-25,-9,-3,-6,40,9,-1,-12,-0.00439453,-0.423828,0.911133,-7.4375,-18.8125,-8.9375,-0.444417,0.0534719,-0.189579
3680,24,12,27,-21,-87,-62,-45,18,-0.00439453,-0.423828,0.911133,-7.4375,-18.8125,-8.9375,-0.444417,0.0534719,-0.189579
3680,-14,-19,-54,-128,-66,-45,-50,-12,-0.00439453,-0.423828,0.911133,-7.4375,-18.8125,-8.9375,-0.444417,0.0534719,-0.189579
3680,-4,-9,-62,67,109,-15,-44,-7,-0.00439453,-0.423828,0.911133,-7.4375,-18.8125,-8.9375,-0.444417,0.0534719,-0.189579
3693,18,21,18,20,0,124,126,14,-0.0732422,-0.447754,0.895996,-8.8125,-15.75,-12.125,-0.447887,0.0472847,-0.19109
3693,13,-1,32,-59,-81,-43,7,1,-0.0732422,-0.447754,0.895996,-8.8125,-15.75,-12.125,-0.447887,0.0472847,-0.19109
3710,-67,-18,-22,85,112,-10,-50,-19,-0.0732422,-0.447754,0.895996,-8.8125,-15.75,-12.125,-0.447887,0.0472847,-0.19109
3710,19,22,92,-5,-9,-21,-12,3,-0.0732422,-0.447754,0.895996,-8.8125,-15.75,-12.125,-0.447887,0.0472847,-0.19109
3726,5,4,-5,-25,-30,-17,39,2,-0.10498,-0.429688,0.839355,-3.5625,-15.5625,-11.375,-0.449834,0.0423063,-0.192296
3726,25,3,-13,-60,3,-10,-38,15,-0.10498,-0.429688,0.839355,-3.5625,-15.5625,-11.375,-0.449834,0.0423063,-0.192296
3727,-9,-9,-72,38,-47,0,-20,-8,-0.10498,-0.429688,0.839355,-3.5625,-15.5625,-11.375,-0.449834,0.0423063,-0.192296
3727,-3,-26,-23,-111,-115,-24,12,-12,-0.10498,-0.429688,0.839355,-3.5625,-15.5625,-11.375,-0.449834,0.0423063,-0.192296
3728,-13,21,22,39,48,-40,-46,-3,-0.126465,-0.438477,0.850098,-2.0625,-17.875,-3.25,-0.451005,0.0384363,-0.190571
3728,20,-3,31,127,109,70,115,-3,-0.126465,-0.438477,0.850098,-2.0625,-17.875,-3.25,-0.451005,0.0384363,-0.190571
3732,-2,3,8,-3,46,6,24,29,-0.126465,-0.438477,0.850098,-2.0625,-17.875,-3.25,-0.451005,0.0384363,-0.190571
3732,30,17,-5,50,12,81,9,8,-0.126465,-0.438477,0.850098,-2.0625,-17.875,-3.25,-0.451005,0.0384363,-0.190571
3739,-11,-9,-11,-84,-66,-39,-41,-7,-0.09375,-0.436523,0.847168,-7.4375,-16.125,-1.375,-0.453939,0.0346044,-0.188542
3739,-16,1,17,-76,-24,-36,-15,-8,-0.09375,-0.436523,0.847168,-7.4375,-16.125,-1.375,-0.453939,0.0346044,-0.188542
3740,3,-13,-33,66,60,12,68,-5,-0.09375,-0.436523,0.847168,-7.4375,-16.125,-1.375,-0.453939,0.0346044,-0.188542
3740,18,-4,-44,-107,-25,-33,-72,-5,-0.09375,-0.436523,0.847168,-7.4375,-16.125,-1.375,-0.453939,0.0346044,-0.188542
3762,-17,-19,14,70,6,60,75,-2,-0.0585938,-0.438477,0.857422,-7,-9.1875,-5.75,-0.456797,0.031602,-0.188956
3762,-14,29,52,67,63,13,7,24,-0.0585938,-0.438477,0.857422,-7,-9.1875,-5.75,-0.456797,0.031602,-0.188956
3763,0,-6,-46,-23,-39,1,-51,-5,-0.0585938,-0.438477,0.857422,-7,-9.1875,-5.75,-0.456797,0.031602,-0.188956
3763,-8,8,50,-47,-128,-61,-15,3,-0.0585938,-0.438477,0.857422,-7,-9.1875,-5.75,-0.456797,0.031602,-0.188956
3793,-35,-22,-56,-34,88,1,-10,-24,-0.0737305,-0.425781,0.878418,-4.4375,-3.75,-6.375,-0.458273,0.0305103,-0.190398
3793,16,2,18,95,9,6,-9,9,-0.0737305,-0.425781,0.878418,-4.4375,-3.75,-6.375,-0.458273,0.0305103,-0.190398
3793,-12,4,13,-88,-108,-30,-31,-14,-0.0737305,-0.425781,0.878418,-4.4375,-3.75,-6.375,-0.458273,0.0305103,-0.190398
3793,14,6,-1,-24,87,-31,-24,6,-0.0737305,-0.425781,0.878418,-4.4375,-3.75,-6.375,-0.458273,0.0305103,-0.190398
3799,3,-11,0,102,68,46,-5,-9,-0.0571289,-0.433594,0.912598,-4.5625,-2.5625,-1.75,-0.459354,0.0301072,-0.190589
3799,-20,-8,8,19,-15,1,30,-8,-0.0571289,-0.433594,0.912598,-4.5625,-2.5625,-1.75,-0.459354,0.0301072,-0.190589
3799,5,16,49,-101,-76,-74,-68,-5,-0.0571289,-0.433594,0.912598,-4.5625,-2.5625,-1.75,-0.459354,0.0301072,-0.190589
3799,-36,-38,-86,71,56,84,17,-10,-0.0571289,-0.433594,0.912598,-4.5625,-2.5625,-1.75,-0.459354,0.0301072,-0.190589
3830,24,17,42,-27,-96,-27,37,9,-0.0307617,-0.457031,0.934082,-6.625,1.0625,-0.8125,-0.461537,0.0303225,-0.190976
3830,-15,-21,-52,-37,-9,11,-46,-20,-0.0307617,-0.457031,0.934082,-6.625,1.0625,-0.8125,-0.461537,0.0303225,-0.190976
3830,23,20,108,103,76,56,36,15,-0.0307617,-0.457031,0.934082,-6.625,1.0625,-0.8125,-0.461537,0.0303225,-0.190976
3830,-14,-5,-42,-125,-94,-65,-24,-1,-0.0307617,-0.457031,0.934082,-6.625,1.0625,-0.8125,-0.461537,0.0303225,-0.190976
3845,-5,1,-12,-47,-1,9,-2,6,-0.0634766,-0.415039,0.906738,-3,6,-2.8125,-0.461844,0.0325274,-0.192775
3845,7,-12,-90,90,55,-12,-15,-1,-0.0634766,-0.415039,0.906738,-3,6,-2.8125,-0.461844,0.0325274,-0.192775
3846,-3,-10,19,-65,-102,-36,5,-1,-0.0634766,-0.415039,0.906738,-3,6,-2.8125,-0.461844,0.0325274,-0.192775
3846,-13,-10,-27,-49,51,13,0,-23,-0.0634766,-0.415039,0.906738,-3,6,-2.8125,-0.461844,0.0325274,-0.192775
3859,-8,5,33,102,46,-8,-44,4,-0.0629883,-0.415527,0.907227,3.875,5.6875,1.6875,-0.459723,0.0352914,-0.193085
3859,8,4,-8,-56,-46,-13,12,13,-0.0629883,-0.415527,0.907227,3.875,5.6875,1.6875,-0.459723,0.0352914,-0.193085
3860,-10,2,1,-67,48,21,-1,-3,-0.0629883,-0.415527,0.907227,3.875,5.6875,1.6875,-0.459723,0.0352914,-0.193085
3860,3,-8,-8,96,46,-13,25,0,-0.0629883,-0.415527,0.907227,3.875,5.6875,1.6875,-0.459723,0.0352914,-0.193085
3890,15,9,6,-35,13,26,-6,6,-0.0405273,-0.42041,0.90332,2.5625,1.3125,6.5625,-0.458175,0.0367528,-0.191232
3890,-2,4,60,-30,32,1,-13,-4,-0.0405273,-0.42041,0.90332,2.5625,1.3125,6.5625,-0.458175,0.0367528,-0.191232
3891,12,9,-14,49,-10,-12,-31,-16,-0.0405273,-0.42041,0.90332,2.5625,1.3125,6.5625,-0.458175,0.0367528,-0.191232
3891,5,-9,-1,-52,-82,-14,60,15,-0.0405273,-0.42041,0.90332,2.5625,1.3125,6.5625,-0.458175,0.0367528,-0.191232
3905,-10,-7,-54,-67,-32,-19,3,-5,-0.0297852,-0.427246,0.892578,-0.9375,1,6.4375,-0.45821,0.0379341,-0.189368
3905,13,1,6,-50,-66,-30,-36,-10,-0.0297852,-0.427246,0.892578,-0.9375,1,6.4375,-0.45821,0.0379341,-0.189368
3906,12,0,-16,65,102,94,88,16,-0.0297852,-0.427246,0.892578,-0.9375,1,6.4375,-0.45821,0.0379341,-0.189368
3906,9,18,34,0,-12,-31,-5,7,-0.0297852,-0.427246,0.892578,-0.9375,1,6.4375,-0.45821,0.0379341,-0.189368
3935,2,14,97,97,40,24,10,3,-0.0341797,-0.432617,0.856445,-0.875,3.1875,0.875,-0.458698,0.0389906,-0.18951
3935,6,5,-79,-24,-34,-13,2,2,-0.0341797,-0.432617,0.856445,-0.875,3.1875,0.875,-0.458698,0.0389906,-0.18951
3936,6,-19,17,-48,-116,-82,-58,1,-0.0341797,-0.432617,0.856445,-0.875,3.1875,0.875,-0.458698,0.0389906,-0.18951
3936,-33,-3,-21,-83,-90,-5,-4,-1,-0.0341797,-0.432617,0.856445,-0.875,3.1875,0.875,-0.458698,0.0389906,-0.18951
3950,-26,-16,-69,66,95,14,-31,-19,-0.0517578,-0.431152,0.838379,3,3,-1.0625,-0.457971,0.0401184,-0.190377
3950,23,14,3,39,-8,0,41,17,-0.0517578,-0.431152,0.838379,3,3,-1.0625,-0.457971,0.0401184,-0.190377
3950,-10,4,-8,-62,-47,-4,-24,-5,-0.0517578,-0.431152,0.838379,3,3,-1.0625,-0.457971,0.0401184,-0.190377
3950,14,-8,-5,27,65,16,-24,-2,-0.0517578,-0.431152,0.838379,3,3,-1.0625,-0.457971,0.0401184,-0.190377
3966,10,2,-1,-55,-57,-33,-21,4,-0.0600586,-0.459473,0.854004,0.3125,0.3125,3,-0.458671,0.041254,-0.189538
3966,-16,-15,-5,-63,-48,-54,13,-8,-0.0600586,-0.459473,0.854004,0.3125,0.3125,3,-0.458671,0.041254,-0.189538
3966,2,3,-7,0,34,67,16,0,-0.0600586,-0.459473,0.854004,0.3125,0.3125,3,-0.458671,0.041254,-0.189538
3966,8,5,2,78,64,51,23,-4,-0.0600586,-0.459473,0.854004,0.3125,0.3125,3,-0.458671,0.041254,-0.189538
3987,7,-3,3,23,-17,-38,-67,-2,-0.0615234,-0.464355,0.865723,-2.5,2.4375,1.8125,-0.460324,0.0427879,-0.18934
3987,10,20,54,37,24,65,-22,14,-0.0615234,-0.464355,0.865723,-2.5,2.4375,1.8125,-0.460324,0.0427879,-0.18934
3987,-23,-24,-24,-11,-12,6,28,-19,-0.0615234,-0.464355,0.865723,-2.5,2.4375,1.8125,-0.460324,0.0427879,-0.18934
3987,18,14,18,-33,-55,-19,-4,6,-0.0615234,-0.464355,0.865723,-2.5,2.4375,1.8125,-0.460324,0.0427879,-0.18934
4002,-10,-6,43,42,21,-23,-20,-5,-0.0751953,-0.444824,0.837891,-2.25,5.0625,-1.4375,-0.461733,0.0449075,-0.190538
4002,7,-7,-35,-12,43,21,38,1,-0.0751953,-0.444824,0.837891,-2.25,5.0625,-1.4375,-0.461733,0.0449075,-0.190538
4002,-22,0,50,-18,-12,-40,-44,-11,-0.0751953,-0.444824,0.837891,-2.25,5.0625,-1.4375,-0.461733,0.0449075,-0.190538
4002,4,-9,-4,-80,-77,-21,-14,4,-0.0751953,-0.444824,0.837891,-2.25,5.0625,-1.4375,-0.461733,0.0449075,-0.190538
4024,-5,5,50,74,87,36,5,-4,-0.0688477,-0.42627,0.844727,-0.75,3.0625,1.5,-0.462171,0.0467401,-0.190613
4024,8,5,17,2,-48,-32,7,7,-0.0688477,-0.42627,0.844727,-0.75,3.0625,1.5,-0.462171,0.0467401,-0.190613
4025,-4,-4,-9,-68,-5,-9,-13,-1,-0.0688477,-0.42627,0.844727,-0.75,3.0625,1.5,-0.462171,0.0467401,-0.190613
4025,1,6,41,127,116,31,26,1,-0.0688477,-0.42627,0.844727,-0.75,3.0625,1.5,-0.462171,0.0467401,-0.190613
4040,2,9,-18,-19,-25,-20,18,5,-0.0537109,-0.430664,0.875,-3.875,3.125,2.9375,-0.463319,0.0483771,-0.190173
4040,-15,-36,-56,-83,-40,-40,-51,-15,-0.0537109,-0.430664,0.875,-3.875,3.125,2.9375,-0.463319,0.0483771,-0.190173
4040,7,26,47,127,127,29,39,0,-0.0537109,-0.430664,0.875,-3.875,3.125,2.9375,-0.463319,0.0483771,-0.190173
4040,9,2,-10,-69,-128,-27,-90,1,-0.0537109,-0.430664,0.875,-3.875,3.125,2.9375,-0.463319,0.0483771,-0.190173
4062,-10,-22,-64,-89,93,47,65,7,-0.0292969,-0.441406,0.904785,-5.375,6.125,0.125,-0.464881,0.0497851,-0.191083
4062,2,14,75,127,111,29,36,10,-0.0292969,-0.441406,0.904785,-5.375,6.125,0.125,-0.464881,0.0497851,-0.191083
4062,7,-3,-16,-99,-115,-29,-47,-11,-0.0292969,-0.441406,0.904785,-5.375,6.125,0.125,-0.464881,0.0497851,-0.191083
4062,-17,-6,11,-17,28,5,-37,-15,-0.0292969,-0.441406,0.904785,-5.375,6.125,0.125,-0.464881,0.0497851,-0.191083
4084,9,8,-27,42,-8,-2,6,11,-0.0292969,-0.42041,0.894043,-4.5,6.625,-1.6875,-0.465842,0.0511119,-0.192579
4084,-17,-9,17,-65,-56,-43,-82,-23,-0.0292969,-0.42041,0.894043,-4.5,6.625,-1.6875,-0.465842,0.0511119,-0.192579
4085,0,-6,-32,113,95,35,62,19,-0.0292969,-0.42041,0.894043,-4.5,6.625,-1.6875,-0.465842,0.0511119,-0.192579
4085,7,-3,12,-31,-46,-22,43,7,-0.0292969,-0.42041,0.894043,-4.5,6.625,-1.6875,-0.465842,0.0511119,-0.192579
4099,-26,11,-2,-128,-115,-25,-35,-29,-0.102539,-0.434082,0.893555,-0.875,5.6875,2.4375,-0.465808,0.0543616,-0.192728
4099,-11,-46,-58,66,120,50,3,-3,-0.102539,-0.434082,0.893555,-0.875,5.6875,2.4375,-0.465808,0.0543616,-0.192728
4099,20,18,8,24,-34,-36,-54,13,-0.102539,-0.434082,0.893555,-0.875,5.6875,2.4375,-0.465808,0.0543616,-0.192728
4099,-10,0,-1,-63,-46,-2,-1,-4,-0.102539,-0.434082,0.893555,-0.875,5.6875,2.4375,-0.465808,0.0543616,-0.192728
4122,-15,-15,-34,44,-50,-55,-59,-12,-0.0615234,-0.435547,0.919922,1.125,7.3125,4.875,-0.46486,0.0575722,-0.192315
4122,3,25,33,-9,39,70,64,8,-0.0615234,-0.435547,0.919922,1.125,7.3125,4.875,-0.46486,0.0575722,-0.192315
4122,-4,-20,-12,8,-24,7,-19,-22,-0.0615234,-0.435547,0.919922,1.125,7.3125,4.875,-0.46486,0.0575722,-0.192315
4122,17,8,-1,108,127,18,2,19,-0.0615234,-0.435547,0.919922,1.125,7.3125,4.875,-0.46486,0.0575722,-0.192315
4145,15,3,37,41,2,2,-68,2,-0.0541992,-0.459473,0.910156,-1.4375,6.8125,4.75,-0.465362,0.060282,-0.191854
4145,-11,10,-2,-92,-89,-77,6,-15,-0.0541992,-0.459473,0.910156,-1.4375,6.8125,4.75,-0.465362,0.060282,-0.191854
4146,-2,-7,34,68,98,12,-4,7,-0.0541992,-0.459473,0.910156,-1.4375,6.8125,4.75,-0.465362,0.060282,-0.191854
4146,7,20,-45,43,48,29,31,-3,-0.0541992,-0.459473,0.910156,-1.4375,6.8125,4.75,-0.465362,0.060282,-0.191854
4159,9,-9,-28,-97,-88,-42,-21,0,-0.0654297,-0.39502,0.847656,1.375,1.3125,2.5625,-0.464185,0.0612831,-0.191279
4159,5,7,61,52,37,10,3,2,-0.0654297,-0.39502,0.847656,1.375,1.3125,2.5625,-0.464185,0.0612831,-0.191279
4159,-3,-24,-110,-128,-128,-36,-6,4,-0.0654297,-0.39502,0.847656,1.375,1.3125,2.5625,-0.464185,0.0612831,-0.191279
4159,-15,-9,7,-55,-18,-96,-30,-13,-0.0654297,-0.39502,0.847656,1.375,1.3125,2.5625,-0.464185,0.0612831,-0.191279
4182,8,8,39,112,88,65,-16,1,-0.0644531,-0.414551,0.856445,2.5,-1.6875,2.375,-0.462993,0.0612616,-0.190203
4182,-4,-6,-33,-40,-39,76,108,7,-0.0644531,-0.414551,0.856445,2.5,-1.6875,2.375,-0.462993,0.0612616,-0.190203
4182,-2,13,54,98,78,15,-54,-9,-0.0644531,-0.414551,0.856445,2.5,-1.6875,2.375,-0.462993,0.0612616,-0.190203
4182,-2,0,9,-17,-17,2,-2,-5,-0.0644531,-0.414551,0.856445,2.5,-1.6875,2.375,-0.462993,0.0612616,-0.190203
4205,3,-12,-51,-107,-81,-62,7,2,-0.0273438,-0.426758,0.862793,-0.625,-2.4375,-1.8125,-0.463073,0.0594435,-0.190405
4205,-7,3,26,6,51,12,-63,-9,-0.0273438,-0.426758,0.862793,-0.625,-2.4375,-1.8125,-0.463073,0.0594435,-0.190405
4205,11,8,-28,87,96,-4,30,11,-0.0273438,-0.426758,0.862793,-0.625,-2.4375,-1.8125,-0.463073,0.0594435,-0.190405
4205,5,2,12,5,-36,74,47,9,-0.0273438,-0.426758,0.862793,-0.625,-2.4375,-1.8125,-0.463073,0.0594435,-0.190405
4244,-8,-4,-30,-115,-31,-7,9,-7,-0.0341797,-0.470215,0.859375,-2.875,-4.125,-4.6875,-0.465003,0.0569218,-0.191288
4244,2,0,21,6,-117,-78,-36,-1,-0.0341797,-0.470215,0.859375,-2.875,-4.125,-4.6875,-0.465003,0.0569218,-0.191288
4244,-12,-8,-39,-87,-56,-14,20,-11,-0.0341797,-0.470215,0.859375,-2.875,-4.125,-4.6875,-0.465003,0.0569218,-0.191288
4244,14,-7,25,121,115,55,0,11,-0.0341797,-0.470215,0.859375,-2.875,-4.125,-4.6875,-0.465003,0.0569218,-0.191288
4246,-10,-1,1,-23,-58,-7,40,0,-0.050293,-0.447266,0.848145,0.875,-2.1875,-2.5,-0.465148,0.0558084,-0.191655
4246,10,-1,21,-78,-2,32,33,10,-0.050293,-0.447266,0.848145,0.875,-2.1875,-2.5,-0.465148,0.0558084,-0.191655
4249,0,19,25,21,-76,-79,-51,1,-0.050293,-0.447266,0.848145,0.875,-2.1875,-2.5,-0.465148,0.0558084,-0.191655
4249,-9,-25,-46,-6,-10,37,57,-4,-0.050293,-0.447266,0.848145,0.875,-2.1875,-2.5,-0.465148,0.0558084,-0.191655
4264,-11,-5,21,56,10,13,-68,-11,-0.0693359,-0.441406,0.838867,-2.5,-3.4375,-2,-0.466464,0.0548859,-0.191883
4264,4,9,32,58,94,33,63,13,-0.0693359,-0.441406,0.838867,-2.5,-3.4375,-2,-0.466464,0.0548859,-0.191883
4265,-6,-7,-28,-107,-100,-4,-7,-11,-0.0693359,-0.441406,0.838867,-2.5,-3.4375,-2,-0.466464,0.0548859,-0.191883
4265,2,17,17,-40,26,-26,-14,-3,-0.0693359,-0.441406,0.838867,-2.5,-3.4375,-2,-0.466464,0.0548859,-0.191883
4280,5,2,56,74,108,25,35,11,-0.0205078,-0.46582,0.853027,-2.9375,-5.1875,-3.75,-0.468189,0.0519827,-0.192274
4280,2,6,-8,23,-61,-46,-9,-5,-0.0205078,-0.46582,0.853027,-2.9375,-5.1875,-3.75,-0.468189,0.0519827,-0.192274
4280,-3,-13,-51,-128,-57,0,8,6,-0.0205078,-0.46582,0.853027,-2.9375,-5.1875,-3.75,-0.468189,0.0519827,-0.192274
4280,-9,-8,-10,77,71,20,-11,-5,-0.0205078,-0.46582,0.853027,-2.9375,-5.1875,-3.75,-0.468189,0.0519827,-0.192274
4302,15,6,17,68,2,-7,56,4,-0.0507812,-0.436523,0.868652,-2.75,-3.625,-5,-0.469181,0.0500286,-0.193242
4302,9,6,-33,-77,-80,-48,-61,-1,-0.0507812,-0.436523,0.868652,-2.75,-3.625,-5,-0.469181,0.0500286,-0.193242
4302,-36,-7,20,-13,86,26,87,-2,-0.0507812,-0.436523,0.868652,-2.75,-3.625,-5,-0.469181,0.0500286,-0.193242
4302,14,17,24,43,22,62,-34,4,-0.0507812,-0.436523,0.868652,-2.75,-3.625,-5,-0.469181,0.0500286,-0.193242
4332,-5,-8,-37,-103,-71,-41,13,3,-0.0385742,-0.426758,0.872559,-4.4375,-2,-6,-0.470318,0.0482942,-0.194762
4332,-10,1,-12,42,82,10,-6,-15,-0.0385742,-0.426758,0.872559,-4.4375,-2,-6,-0.470318,0.0482942,-0.194762
4333,27,2,30,-34,-36,8,-2,20,-0.0385742,-0.426758,0.872559,-4.4375,-2,-6,-0.470318,0.0482942,-0.194762
4333,-9,3,-22,-77,-15,-75,-27,-9,-0.0385742,-0.426758,0.872559,-4.4375,-2,-6,-0.470318,0.0482942,-0.194762
4339,-5,10,36,40,47,65,0,-5,-0.0449219,-0.431641,0.866211,-2,-2.75,-6.3125,-0.470965,0.0464951,-0.196251
4339,10,-11,-24,19,-19,11,52,11,-0.0449219,-0.431641,0.866211,-2,-2.75,-6.3125,-0.470965,0.0464951,-0.196251
4355,-3,2,32,-18,-24,-43,-71,-16,-0.0449219,-0.431641,0.866211,-2,-2.75,-6.3125,-0.470965,0.0464951,-0.196251
4355,-1,-10,-36,-8,-4,38,5,-3,-0.0449219,-0.431641,0.866211,-2,-2.75,-6.3125,-0.470965,0.0464951,-0.196251
4371,7,-2,-14,-86,-126,-110,-120,8,-0.0576172,-0.449707,0.871582,-2.3125,-3.8125,-4.3125,-0.471853,0.0449882,-0.196938
4371,-5,-5,6,44,101,79,56,4,-0.0576172,-0.449707,0.871582,-2.3125,-3.8125,-4.3125,-0.471853,0.0449882,-0.196938
4373,16,18,22,76,66,27,42,16,-0.0576172,-0.449707,0.871582,-2.3125,-3.8125,-4.3125,-0.471853,0.0449882,-0.196938
4373,-14,-5,-6,-48,-98,-66,-17,-23,-0.0576172,-0.449707,0.871582,-2.3125,-3.8125,-4.3125,-0.471853,0.0449882,-0.196938
4385,-16,-2,22,0,49,28,-9,-15,-0.0537109,-0.450195,0.880371,-3.4375,-2.8125,-5.875,-0.473153,0.043391,-0.19838
4385,10,-5,-29,12,-65,-28,-44,7,-0.0537109,-0.450195,0.880371,-3.4375,-2.8125,-5.875,-0.473153,0.043391,-0.19838
4385,-5,2,-29,3,5,6,5,0,-0.0537109,-0.450195,0.880371,-3.4375,-2.8125,-5.875,-0.473153,0.043391,-0.19838
4385,-5,-11,-53,-42,-15,-43,18,0,-0.0537109,-0.450195,0.880371,-3.4375,-2.8125,-5.875,-0.473153,0.043391,-0.19838
4399,3,-4,-14,-54,5,21,8,0,-0.0332031,-0.433594,0.868652,2.8125,-1.25,-5.0625,-0.471928,0.0420664,-0.19964
4399,2,4,-16,91,-57,-36,-27,1,-0.0332031,-0.433594,0.868652,2.8125,-1.25,-5.0625,-0.471928,0.0420664,-0.19964
4407,6,6,-9,39,127,45,11,-1,-0.0332031,-0.433594,0.868652,2.8125,-1.25,-5.0625,-0.471928,0.0420664,-0.19964
4407,-4,-2,13,-81,-79,-27,0,-3,-0.0332031,-0.433594,0.868652,2.8125,-1.25,-5.0625,-0.471928,0.0420664,-0.19964
4422,4,17,4,49,30,-76,-8,6,-0.0512695,-0.427734,0.879883,4.0625,-2.5625,-0.375,-0.470107,0.0415354,-0.199433
4422,-5,-8,3,-19,54,89,-59,-4,-0.0512695,-0.427734,0.879883,4.0625,-2.5625,-0.375,-0.470107,0.0415354,-0.199433
4422,3,-5,-16,13,-62,29,37,11,-0.0512695,-0.427734,0.879883,4.0625,-2.5625,-0.375,-0.470107,0.0415354,-0.199433
4422,11,16,20,13,17,-45,-76,8,-0.0512695,-0.427734,0.879883,4.0625,-2.5625,-0.375,-0.470107,0.0415354,-0.199433
4445,3,3,13,30,39,36,57,6,-0.0561523,-0.460449,0.882324,-3.0625,-1.625,0.125,-0.471312,0.0413734,-0.199061
4445,-1,-9,16,-86,-94,-89,-8,-5,-0.0561523,-0.460449,0.882324,-3.0625,-1.625,0.125,-0.471312,0.0413734,-0.199061
4446,-18,-8,-25,-65,81,44,-51,-20,-0.0561523,-0.460449,0.882324,-3.0625,-1.625,0.125,-0.471312,0.0413734,-0.199061
4446,23,12,80,101,115,52,8,21,-0.0561523,-0.460449,0.882324,-3.0625,-1.625,0.125,-0.471312,0.0413734,-0.199061
4459,0,-11,-18,49,-13,3,5,-1,-0.0610352,-0.444824,0.875977,-0.8125,1.9375,-3.9375,-0.471704,0.0418636,-0.200592
4459,-19,4,14,24,43,13,21,-3,-0.0610352,-0.444824,0.875977,-0.8125,1.9375,-3.9375,-0.471704,0.0418636,-0.200592
4474,0,-1,-5,-71,-107,-29,0,-4,-0.0610352,-0.444824,0.875977,-0.8125,1.9375,-3.9375,-0.471704,0.0418636,-0.200592
4474,-15,4,-26,-21,7,-9,27,-6,-0.0610352,-0.444824,0.875977,-0.8125,1.9375,-3.9375,-0.471704,0.0418636,-0.200592
4481,13,-10,-64,28,13,-5,-11,6,-0.0507812,-0.433105,0.879883,2.4375,3.9375,-2.75,-0.470487,0.042895,-0.202046
4481,-8,-12,-36,-48,26,0,1,-13,-0.0507812,-0.433105,0.879883,2.4375,3.9375,-2.75,-0.470487,0.042895,-0.202046
4482,2,10,9,61,41,18,12,4,-0.0507812,-0.433105,0.879883,2.4375,3.9375,-2.75,-0.470487,0.042895,-0.202046
4482,5,2,-2,42,18,-12,11,8,-0.0507812,-0.433105,0.879883,2.4375,3.9375,-2.75,-0.470487,0.042895,-0.202046
4504,-10,0,26,-87,-71,35,5,-12,-0.0522461,-0.472168,0.870117,-1,1.75,0.0625,-0.471464,0.043604,-0.20239
4504,9,-1,-20,24,25,-13,-44,11,-0.0522461,-0.472168,0.870117,-1,1.75,0.0625,-0.471464,0.043604,-0.20239
4511,2,4,9,16,-12,-22,89,10,-0.0522461,-0.472168,0.870117,-1,1.75,0.0625,-0.471464,0.043604,-0.20239
4511,-11,-15,-22,-43,-98,-23,4,-18,-0.0522461,-0.472168,0.870117,-1,1.75,0.0625,-0.471464,0.043604,-0.20239
4519,5,4,24,37,118,32,-68,0,-0.0810547,-0.478027,0.867188,-1.5,1.4375,0.25,-0.472753,0.0450784,-0.202551
4519,8,-3,2,1,-12,-5,51,15,-0.0810547,-0.478027,0.867188,-1.5,1.4375,0.25,-0.472753,0.0450784,-0.202551
4543,1,-5,-1,47,21,49,-17,-10,-0.0810547,-0.478027,0.867188,-1.5,1.4375,0.25,-0.472753,0.0450784,-0.202551
4543,8,0,26,-5,-11,-1,4,8,-0.0810547,-0.478027,0.867188,-1.5,1.4375,0.25,-0.472753,0.0450784,-0.202551
4544,-16,-19,-31,-128,-128,-88,-15,-15,-0.065918,-0.431641,0.865234,0.125,2.25,-0.5,-0.472523,0.0462384,-0.203074
4544,-23,-3,-3,78,116,13,-15,-19,-0.065918,-0.431641,0.865234,0.125,2.25,-0.5,-0.472523,0.0462384,-0.203074
4545,14,17,54,127,68,13,-21,13,-0.065918,-0.431641,0.865234,0.125,2.25,-0.5,-0.472523,0.0462384,-0.203074
4545,-14,-17,-21,-89,-98,-31,-11,-11,-0.065918,-0.431641,0.865234,0.125,2.25,-0.5,-0.472523,0.0462384,-0.203074
4565,-4,0,1,20,20,19,-1,-4,-0.0800781,-0.421875,0.855957,0.8125,3.5625,-0.6875,-0.471871,0.048041,-0.203735
4565,8,8,11,10,87,29,8,2,-0.0800781,-0.421875,0.855957,0.8125,3.5625,-0.6875,-0.471871,0.048041,-0.203735
4565,1,-12,-8,-109,-102,-58,-26,-2,-0.0800781,-0.421875,0.855957,0.8125,3.5625,-0.6875,-0.471871,0.048041,-0.203735
4565,-10,-5,5,61,86,11,41,0,-0.0800781,-0.421875,0.855957,0.8125,3.5625,-0.6875,-0.471871,0.048041,-0.203735
4579,-2,9,17,33,-24,-29,15,-8,-0.0610352,-0.436523,0.874023,1.3125,2,1.1875,-0.47124,0.0492356,-0.20374
4579,-1,-2,5,-84,-76,41,6,-14,-0.0610352,-0.436523,0.874023,1.3125,2,1.1875,-0.47124,0.0492356,-0.20374
4587,-2,-1,28,33,59,-17,-6,-4,-0.0610352,-0.436523,0.874023,1.3125,2,1.1875,-0.47124,0.0492356,-0.20374
4587,20,-3,-18,14,4,37,12,11,-0.0610352,-0.436523,0.874023,1.3125,2,1.1875,-0.47124,0.0492356,-0.20374
4610,-2,3,11,-50,11,-66,-56,-1,-0.0473633,-0.470215,0.88916,-2.25,3.3125,1.5,-0.472381,0.0503717,-0.203822
4610,-13,-10,-21,86,-24,50,51,-11,-0.0473633,-0.470215,0.88916,-2.25,3.3125,1.5,-0.472381,0.0503717,-0.203822
4610,1,-11,-74,-115,-23,-9,-30,-6,-0.0473633,-0.470215,0.88916,-2.25,3.3125,1.5,-0.472381,0.0503717,-0.203822
4610,2,14,51,112,68,0,7,4,-0.0473633,-0.470215,0.88916,-2.25,3.3125,1.5,-0.472381,0.0503717,-0.203822
4625,15,4,41,41,-15,26,26,9,-0.0595703,-0.443848,0.874023,0.0625,3.3125,0.8125,-0.472284,0.0517233,-0.204019
4625,-4,4,32,-86,-9,-51,-42,-3,-0.0595703,-0.443848,0.874023,0.0625,3.3125,0.8125,-0.472284,0.0517233,-0.204019
4625,-4,-6,13,84,35,27,4,1,-0.0595703,-0.443848,0.874023,0.0625,3.3125,0.8125,-0.472284,0.0517233,-0.204019
4625,-8,-12,-67,-75,0,1,5,3,-0.0595703,-0.443848,0.874023,0.0625,3.3125,0.8125,-0.472284,0.0517233,-0.204019
4648,-1,2,-2,15,35,21,23,-2,-0.0517578,-0.418945,0.86377,4.25,1.4375,2.125,-0.470347,0.0526325,-0.203638
4648,5,6,-8,-22,-72,-33,-31,0,-0.0517578,-0.418945,0.86377,4.25,1.4375,2.125,-0.470347,0.0526325,-0.203638
4649,-9,-17,7,-71,-98,-43,26,-1,-0.0517578,-0.418945,0.86377,4.25,1.4375,2.125,-0.470347,0.0526325,-0.203638
4649,-17,1,-6,-16,53,-75,-20,-17,-0.0517578,-0.418945,0.86377,4.25,1.4375,2.125,-0.470347,0.0526325,-0.203638
4662,7,-2,-15,90,57,122,1,6,-0.0649414,-0.422363,0.871094,1.0625,1.8125,1.5,-0.469453,0.0537934,-0.20337
4662,-6,-10,-9,-56,-65,-69,69,2,-0.0649414,-0.422363,0.871094,1.0625,1.8125,1.5,-0.469453,0.0537934,-0.20337
4662,-2,9,26,34,5,5,-30,-11,-0.0649414,-0.422363,0.871094,1.0625,1.8125,1.5,-0.469453,0.0537934,-0.20337
4662,-8,-17,-37,-86,-90,-46,-31,2,-0.0649414,-0.422363,0.871094,1.0625,1.8125,1.5,-0.469453,0.0537934,-0.20337
4692,11,5,-20,-76,-3,30,53,4,-0.0698242,-0.450195,0.879395,-2.25,2.0625,0,-0.470334,0.0547502,-0.203773
4692,10,26,35,127,114,33,19,7,-0.0698242,-0.450195,0.879395,-2.25,2.0625,0,-0.470334,0.0547502,-0.203773
4693,-9,-8,-17,-96,-63,-40,-36,-10,-0.0698242,-0.450195,0.879395,-2.25,2.0625,0,-0.470334,0.0547502,-0.203773
4693,-3,9,74,35,30,34,-10,-1,-0.0698242,-0.450195,0.879395,-2.25,2.0625,0,-0.470334,0.0547502,-0.203773
4709,-2,-5,-80,127,109,-6,11,1,-0.059082,-0.45752,0.860352,3,3.3125,-1.75,-0.46986,0.0556758,-0.204855
4709,10,9,19,-47,-40,4,-13,0,-0.059082,-0.45752,0.860352,3,3.3125,-1.75,-0.46986,0.0556758,-0.204855
4709,-2,-3,10,-23,-40,-41,-4,0,-0.059082,-0.45752,0.860352,3,3.3125,-1.75,-0.46986,0.0556758,-0.204855
4709,-8,-12,11,-56,-51,25,-30,-12,-0.059082,-0.45752,0.860352,3,3.3125,-1.75,-0.46986,0.0556758,-0.204855
4722,-17,-4,20,-43,-35,-7,-6,-1,-0.0668945,-0.435547,0.852539,3.875,-1.25,2.75,-0.468446,0.0560704,-0.203737
4722,-10,-8,-19,-18,-13,-17,-26,-9,-0.0668945,-0.435547,0.852539,3.875,-1.25,2.75,-0.468446,0.0560704,-0.203737
4722,6,-1,-27,-51,-11,-24,-10,4,-0.0668945,-0.435547,0.852539,3.875,-1.25,2.75,-0.468446,0.0560704,-0.203737
4722,3,4,25,43,27,63,0,6,-0.0668945,-0.435547,0.852539,3.875,-1.25,2.75,-0.468446,0.0560704,-0.203737
4744,-9,-5,15,13,-16,-48,69,-5,-0.0576172,-0.445312,0.858887,1.5625,1.625,3.5,-0.468013,0.057173,-0.202969
4744,-2,-7,-21,-89,-28,2,-46,-11,-0.0576172,-0.445312,0.858887,1.5625,1.625,3.5,-0.468013,0.057173,-0.202969
4745,13,7,50,127,120,39,59,20,-0.0576172,-0.445312,0.858887,1.5625,1.625,3.5,-0.468013,0.057173,-0.202969
4745,14,15,3,40,40,50,21,13,-0.0576172,-0.445312,0.858887,1.5625,1.625,3.5,-0.468013,0.057173,-0.202969
4768,-6,-2,-4,-103,-80,-49,-45,-6,-0.0703125,-0.441895,0.871094,-1.1875,3.5625,0.375,-0.468585,0.0586716,-0.203364
4768,2,-6,-8,91,18,3,2,6,-0.0703125,-0.441895,0.871094,-1.1875,3.5625,0.375,-0.468585,0.0586716,-0.203364
4768,16,13,9,-50,-31,-18,-19,-2,-0.0703125,-0.441895,0.871094,-1.1875,3.5625,0.375,-0.468585,0.0586716,-0.203364
4768,-17,-16,15,70,12,-4,18,-3,-0.0703125,-0.441895,0.871094,-1.1875,3.5625,0.375,-0.468585,0.0586716,-0.203364
4782,-1,-6,-13,15,-21,-8,-9,2,-0.0512695,-0.447266,0.853027,2.75,4.25,-1.875,-0.467994,0.0595537,-0.20468
4782,-2,-7,-36,-118,-52,-36,-21,-9,-0.0512695,-0.447266,0.853027,2.75,4.25,-1.875,-0.467994,0.0595537,-0.20468
4782,-11,-5,-16,95,29,56,-2,-5,-0.0512695,-0.447266,0.853027,2.75,4.25,-1.875,-0.467994,0.0595537,-0.20468
4782,2,2,-17,-127,-94,-49,1,-4,-0.0512695,-0.447266,0.853027,2.75,4.25,-1.875,-0.467994,0.0595537,-0.20468
4805,1,-5,10,60,90,-16,-42,-8,-0.0571289,-0.446777,0.864746,1.375,0.75,1,-0.467647,0.0598865,-0.204491
4805,-1,6,14,27,12,27,49,6,-0.0571289,-0.446777,0.864746,1.375,0.75,1,-0.467647,0.0598865,-0.204491
4805,-5,-4,0,6,39,-18,-23,-9,-0.0571289,-0.446777,0.864746,1.375,0.75,1,-0.467647,0.0598865,-0.204491
4805,1,-5,-23,5,-54,-42,-16,-7,-0.0571289,-0.446777,0.864746,1.375,0.75,1,-0.467647,0.0598865,-0.204491
4828,3,6,13,-64,-24,-46,-39,3,-0.0546875,-0.462402,0.87793,-1.9375,0.125,1.125,-0.468773,0.0599739,-0.204194
4828,0,15,37,33,66,74,33,-5,-0.0546875,-0.462402,0.87793,-1.9375,0.125,1.125,-0.468773,0.0599739,-0.204194
4828,-2,-14,-27,-32,16,-7,36,2,-0.0546875,-0.462402,0.87793,-1.9375,0.125,1.125,-0.468773,0.0599739,-0.204194
4828,-5,0,33,77,62,51,15,-5,-0.0546875,-0.462402,0.87793,-1.9375,0.125,1.125,-0.468773,0.0599739,-0.204194
4850,10,6,30,-47,-101,-18,-1,13,-0.0512695,-0.444336,0.883789,-1.375,1.5625,-2.375,-0.469212,0.0599751,-0.205105
4850,0,-3,-39,-1,50,-41,-11,1,-0.0512695,-0.444336,0.883789,-1.375,1.5625,-2.375,-0.469212,0.0599751,-0.205105
4850,-2,6,17,68,61,55,-11,-1,-0.0512695,-0.444336,0.883789,-1.375,1.5625,-2.375,-0.469212,0.0599751,-0.205105
4850,14,15,5,-13,-58,-24,6,9,-0.0512695,-0.444336,0.883789,-1.375,1.5625,-2.375,-0.469212,0.0599751,-0.205105
4865,-2,4,-7,-36,-26,25,20,-8,-0.0488281,-0.429688,0.881348,0.1875,-0.75,-1.1875,-0.468763,0.0593058,-0.205418
4865,-15,-20,-28,-128,-128,-37,-17,-1,-0.0488281,-0.429688,0.881348,0.1875,-0.75,-1.1875,-0.468763,0.0593058,-0.205418
4865,-6,-3,-7,43,41,-20,-15,-10,-0.0488281,-0.429688,0.881348,0.1875,-0.75,-1.1875,-0.468763,0.0593058,-0.205418
4865,17,10,48,6,-12,3,-5,11,-0.0488281,-0.429688,0.881348,0.1875,-0.75,-1.1875,-0.468763,0.0593058,-0.205418
4888,-16,-12,-67,-87,-64,15,13,-9,-0.0302734,-0.429688,0.871094,4.4375,-1.8125,2.6875,-0.466858,0.0585074,-0.204244
4888,11,12,29,91,56,-51,-77,5,-0.0302734,-0.429688,0.871094,4.4375,-1.8125,2.6875,-0.466858,0.0585074,-0.204244
4888,-11,-23,-32,-47,-10,58,74,-1,-0.0302734,-0.429688,0.871094,4.4375,-1.8125,2.6875,-0.466858,0.0585074,-0.204244
4888,14,12,7,24,35,-19,-21,2,-0.0302734,-0.429688,0.871094,4.4375,-1.8125,2.6875,-0.466858,0.0585074,-0.204244
4902,17,20,35,97,96,95,28,18,-0.0727539,-0.467773,0.885254,-3.1875,-0.9375,2.9375,-0.468368,0.0589929,-0.203181
4902,-27,-20,1,-100,-86,-56,-22,-13,-0.0727539,-0.467773,0.885254,-3.1875,-0.9375,2.9375,-0.468368,0.0589929,-0.203181
4902,-5,4,5,0,-26,-40,-36,-8,-0.0727539,-0.467773,0.885254,-3.1875,-0.9375,2.9375,-0.468368,0.0589929,-0.203181
4902,-6,3,-3,-61,33,27,-18,-3,-0.0727539,-0.467773,0.885254,-3.1875,-0.9375,2.9375,-0.468368,0.0589929,-0.203181
4925,2,-21,1,62,-19,-72,36,6,-0.0405273,-0.464355,0.870605,2.375,0.3125,-0.5,-0.468076,0.0585767,-0.203441
4925,0,9,18,62,47,45,6,-3,-0.0405273,-0.464355,0.870605,2.375,0.3125,-0.5,-0.468076,0.0585767,-0.203441
4925,12,16,-31,-42,-64,-6,-4,10,-0.0405273,-0.464355,0.870605,2.375,0.3125,-0.5,-0.468076,0.0585767,-0.203441
4925,-18,-29,-30,-128,-78,-31,-20,-16,-0.0405273,-0.464355,0.870605,2.375,0.3125,-0.5,-0.468076,0.0585767,-0.203441
4946,-6,0,-47,80,114,13,-15,-3,-0.0600586,-0.414062,0.844238,4.9375,-0.8125,1.1875,-0.46603,0.0586561,-0.202844
4946,-1,19,93,83,12,2,7,9,-0.0600586,-0.414062,0.844238,4.9375,-0.8125,1.1875,-0.46603,0.0586561,-0.202844
4954,-7,-20,-17,-123,-110,-20,-15,-10,-0.0600586,-0.414062,0.844238,4.9375,-0.8125,1.1875,-0.46603,0.0586561,-0.202844
4954,-9,6,-18,76,80,-24,-7,-2,-0.0600586,-0.414062,0.844238,4.9375,-0.8125,1.1875,-0.46603,0.0586561,-0.202844
4961,1,-8,-7,29,34,91,51,-11,-0.0830078,-0.441895,0.867188,0,-1.3125,3.625,-0.46605,0.0594688,-0.201528
4961,14,-2,-10,-47,-89,-87,13,3,-0.0830078,-0.441895,0.867188,0,-1.3125,3.625,-0.46605,0.0594688,-0.201528
4962,-33,-19,-45,-107,-38,3,39,-13,-0.0830078,-0.441895,0.867188,0,-1.3125,3.625,-0.46605,0.0594688,-0.201528
4962,-1,-2,-28,-64,44,74,-11,-1,-0.0830078,-0.441895,0.867188,0,-1.3125,3.625,-0.46605,0.0594688,-0.201528
5008,0,9,72,76,38,14,0,-4,-0.0546875,-0.454102,0.875,2.8125,2,2.125,-0.465386,0.0603696,-0.201209
5008,10,1,-18,27,34,-35,-29,11,-0.0546875,-0.454102,0.875,2.8125,2,2.125,-0.465386,0.0603696,-0.201209
5009,10,13,43,-51,-14,53,-14,-7,-0.0546875,-0.454102,0.875,2.8125,2,2.125,-0.465386,0.0603696,-0.201209
5009,-14,-14,-2,9,-70,-39,12,-5,-0.0546875,-0.454102,0.875,2.8125,2,2.125,-0.465386,0.0603696,-0.201209
5010,-7,-10,-71,-28,-120,-36,-17,-6,-0.101562,-0.429199,0.873047,1.8125,1.375,-1.625,-0.464652,0.061521,-0.201943
5010,17,3,-30,34,100,42,0,7,-0.101562,-0.429199,0.873047,1.8125,1.375,-1.625,-0.464652,0.061521,-0.201943
5014,6,13,58,18,-24,-41,-40,1,-0.101562,-0.429199,0.873047,1.8125,1.375,-1.625,-0.464652,0.061521,-0.201943
5014,5,8,-6,70,76,56,39,10,-0.101562,-0.429199,0.873047,1.8125,1.375,-1.625,-0.464652,0.061521,-0.201943
5037,18,0,-2,-21,-52,-8,8,10,-0.0947266,-0.416504,0.861816,2.5625,-0.875,0.75,-0.463459,0.0622359,-0.201549
5037,-13,-7,-27,-59,-83,-80,-11,-7,-0.0947266,-0.416504,0.861816,2.5625,-0.875,0.75,-0.463459,0.0622359,-0.201549
5038,-6,-6,-8,69,38,-58,-80,-1,-0.0947266,-0.416504,0.861816,2.5625,-0.875,0.75,-0.463459,0.0622359,-0.201549
5038,-15,-18,-28,-19,-21,70,31,-11,-0.0947266,-0.416504,0.861816,2.5625,-0.875,0.75,-0.463459,0.0622359,-0.201549
5045,-6,-5,15,-37,27,-72,11,5,-0.0551758,-0.432129,0.864746,3.5625,-2.875,4.8125,-0.462061,0.0619283,-0.199635
5045,7,6,8,73,121,77,44,4,-0.0551758,-0.432129,0.864746,3.5625,-2.875,4.8125,-0.462061,0.0619283,-0.199635
5045,15,19,39,75,20,49,58,19,-0.0551758,-0.432129,0.864746,3.5625,-2.875,4.8125,-0.462061,0.0619283,-0.199635
5045,5,12,13,-45,-69,-57,-40,-3,-0.0551758,-0.432129,0.864746,3.5625,-2.875,4.8125,-0.462061,0.0619283,-0.199635
5075,-2,3,1,-39,-24,-9,-12,0,-0.0791016,-0.448242,0.875488,1.75,-0.0625,1.6875,-0.461591,0.0626174,-0.199015
5075,-20,-23,-39,-122,-50,-42,-32,-15,-0.0791016,-0.448242,0.875488,1.75,-0.0625,1.6875,-0.461591,0.0626174,-0.199015
5075,1,3,29,79,45,51,44,0,-0.0791016,-0.448242,0.875488,1.75,-0.0625,1.6875,-0.461591,0.0626174,-0.199015
5075,-10,-16,23,-19,-87,-52,9,-7,-0.0791016,-0.448242,0.875488,1.75,-0.0625,1.6875,-0.461591,0.0626174,-0.199015
5081,-16,-12,-63,-84,36,10,-36,-15,-0.0688477,-0.418945,0.849121,5.5625,3.875,-1,-0.459783,0.0639519,-0.199992
5081,14,7,-9,44,65,58,13,8,-0.0688477,-0.418945,0.849121,5.5625,3.875,-1,-0.459783,0.0639519,-0.199992
5082,3,-2,-12,62,30,-34,-26,-2,-0.0688477,-0.418945,0.849121,5.5625,3.875,-1,-0.459783,0.0639519,-0.199992
5082,27,26,15,104,107,10,19,20,-0.0688477,-0.418945,0.849121,5.5625,3.875,-1,-0.459783,0.0639519,-0.199992
5112,-3,-5,35,-24,-21,32,2,-5,-0.0693359,-0.445801,0.855469,-0.375,-2.3125,1.1875,-0.460189,0.0635641,-0.199287
5112,-5,-24,-72,-66,-80,-41,-20,-6,-0.0693359,-0.445801,0.855469,-0.375,-2.3125,1.1875,-0.460189,0.0635641,-0.199287
5113,-18,-9,-18,59,-13,-46,-28,-14,-0.0693359,-0.445801,0.855469,-0.375,-2.3125,1.1875,-0.460189,0.0635641,-0.199287
5113,1,-10,-31,-31,-37,33,-28,-3,-0.0693359,-0.445801,0.855469,-0.375,-2.3125,1.1875,-0.460189,0.0635641,-0.199287
5127,-3,11,22,-26,12,43,-17,-5,-0.0234375,-0.453125,0.856445,1.4375,-2.1875,2.6875,-0.460262,0.0624366,-0.198143
5127,4,1,4,45,79,44,44,12,-0.0234375,-0.453125,0.856445,1.4375,-2.1875,2.6875,-0.460262,0.0624366,-0.198143
5128,2,-8,-19,-42,-55,-91,-10,-2,-0.0234375,-0.453125,0.856445,1.4375,-2.1875,2.6875,-0.460262,0.0624366,-0.198143
5128,-7,6,1,-29,14,-29,-29,-8,-0.0234375,-0.453125,0.856445,1.4375,-2.1875,2.6875,-0.460262,0.0624366,-0.198143
5142,15,11,45,127,90,33,34,16,-0.0678711,-0.437988,0.871094,-2.125,-1.4375,1.9375,-0.461095,0.0624273,-0.197304
5142,1,2,-4,-59,-119,6,11,0,-0.0678711,-0.437988,0.871094,-2.125,-1.4375,1.9375,-0.461095,0.0624273,-0.197304
5142,7,3,3,-79,59,33,-26,-3,-0.0678711,-0.437988,0.871094,-2.125,-1.4375,1.9375,-0.461095,0.0624273,-0.197304
5142,-7,-10,-39,52,69,-19,10,3,-0.0678711,-0.437988,0.871094,-2.125,-1.4375,1.9375,-0.461095,0.0624273,-0.197304
5165,-9,-4,-30,-24,-86,-58,-15,-7,-0.0439453,-0.418457,0.865234,1.0625,1.1875,-2.6875,-0.460488,0.0620044,-0.198309
5165,-11,-3,-13,-16,0,16,-1,-9,-0.0439453,-0.418457,0.865234,1.0625,1.1875,-2.6875,-0.460488,0.0620044,-0.198309
5165,3,-9,20,57,24,-12,-4,5,-0.0439453,-0.418457,0.865234,1.0625,1.1875,-2.6875,-0.460488,0.0620044,-0.198309
5165,1,-7,8,24,1,26,18,-3,-0.0439453,-0.418457,0.865234,1.0625,1.1875,-2.6875,-0.460488,0.0620044,-0.198309
5188,8,3,-5,-76,-44,-18,2,7,-0.0683594,-0.421875,0.86377,-0.125,-2.5625,-1,-0.460395,0.0612933,-0.198132
5188,-16,6,43,-44,-26,-40,-26,-16,-0.0683594,-0.421875,0.86377,-0.125,-2.5625,-1,-0.460395,0.0612933,-0.198132
5189,4,-2,-22,-19,2,-9,-23,9,-0.0683594,-0.421875,0.86377,-0.125,-2.5625,-1,-0.460395,0.0612933,-0.198132
5189,-2,5,16,6,-44,-51,-23,3,-0.0683594,-0.421875,0.86377,-0.125,-2.5625,-1,-0.460395,0.0612933,-0.198132
5218,3,0,22,-32,-13,56,-20,-4,-0.0341797,-0.443359,0.878418,-0.25,-1.5,1.25,-0.460646,0.0603947,-0.197555
5218,-14,-17,12,19,61,58,91,1,-0.0341797,-0.443359,0.878418,-0.25,-1.5,1.25,-0.460646,0.0603947,-0.197555
5218,17,18,27,47,2,21,30,11,-0.0341797,-0.443359,0.878418,-0.25,-1.5,1.25,-0.460646,0.0603947,-0.197555
5218,5,3,15,91,113,-22,30,-1,-0.0341797,-0.443359,0.878418,-0.25,-1.5,1.25,-0.460646,0.0603947,-0.197555
5225,5,11,6,43,33,37,-8,1,-0.0541992,-0.442871,0.899902,-1.8125,0.5625,2.25,-0.46105,0.0608822,-0.196938
5225,8,3,-11,-34,-55,-37,-44,0,-0.0541992,-0.442871,0.899902,-1.8125,0.5625,2.25,-0.46105,0.0608822,-0.196938
5226,-1,5,61,-52,-86,-19,5,-9,-0.0541992,-0.442871,0.899902,-1.8125,0.5625,2.25,-0.46105,0.0608822,-0.196938
5226,-8,-4,-109,-104,-91,-27,-7,-7,-0.0541992,-0.442871,0.899902,-1.8125,0.5625,2.25,-0.46105,0.0608822,-0.196938
5247,-8,-11,44,-73,-105,-62,-28,-10,-0.0205078,-0.397461,0.878906,4.1875,4.6875,-0.6875,-0.458861,0.0612611,-0.19779
5247,-24,-34,-75,-51,-23,7,-10,-16,-0.0205078,-0.397461,0.878906,4.1875,4.6875,-0.6875,-0.458861,0.0612611,-0.19779
5248,4,0,-14,85,98,36,11,7,-0.0205078,-0.397461,0.878906,4.1875,4.6875,-0.6875,-0.458861,0.0612611,-0.19779
5248,9,18,81,70,61,50,14,6,-0.0205078,-0.397461,0.878906,4.1875,4.6875,-0.6875,-0.458861,0.0612611,-0.19779
5270,-11,-1,-32,8,20,-17,6,-5,-0.112305,-0.444336,0.874023,-0.9375,2.875,1.125,-0.459368,0.0635944,-0.197867
5270,10,5,-4,-42,-73,-51,-50,6,-0.112305,-0.444336,0.874023,-0.9375,2.875,1.125,-0.459368,0.0635944,-0.197867
5271,-12,-2,-18,-32,49,-31,-15,-11,-0.112305,-0.444336,0.874023,-0.9375,2.875,1.125,-0.459368,0.0635944,-0.197867
5271,3,-10,-41,-127,-44,48,15,0,-0.112305,-0.444336,0.874023,-0.9375,2.875,1.125,-0.459368,0.0635944,-0.197867
5285,6,-3,22,127,118,35,9,2,-0.0371094,-0.448242,0.868652,-1.375,1.625,0.5625,-0.460254,0.0635964,-0.19804
5285,-8,0,26,127,18,48,12,-5,-0.0371094,-0.448242,0.868652,-1.375,1.625,0.5625,-0.460254,0.0635964,-0.19804
5285,1,-6,-55,-128,-125,-86,-86,2,-0.0371094,-0.448242,0.868652,-1.375,1.625,0.5625,-0.460254,0.0635964,-0.19804
5285,-7,-4,11,59,5,-19,53,-6,-0.0371094,-0.448242,0.868652,-1.375,1.625,0.5625,-0.460254,0.0635964,-0.19804
5308,10,31,72,49,80,84,106,13,-0.065918,-0.449219,0.866211,-1.6875,0.375,1.4375,-0.461297,0.0639681,-0.197687
5308,-3,-13,19,-82,-75,-62,-47,-12,-0.065918,-0.449219,0.866211,-1.6875,0.375,1.4375,-0.461297,0.0639681,-0.197687
5308,-6,-2,-15,68,62,53,-2,-6,-0.065918,-0.449219,0.866211,-1.6875,0.375,1.4375,-0.461297,0.0639681,-0.197687
5308,-9,0,29,39,-1,-14,-15,-3,-0.065918,-0.449219,0.866211,-1.6875,0.375,1.4375,-0.461297,0.0639681,-0.197687
5322,-17,-14,-69,-101,-128,-103,-67,-3,-0.0512695,-0.466309,0.848145,0.5625,0.6875,0.5,-0.461403,0.0639507,-0.197683
5322,6,-2,15,6,45,8,18,-4,-0.0512695,-0.466309,0.848145,0.5625,0.6875,0.5,-0.461403,0.0639507,-0.197683
5337,-4,11,84,51,77,35,34,-1,-0.0512695,-0.466309,0.848145,0.5625,0.6875,0.5,-0.461403,0.0639507,-0.197683
5337,17,11,22,-95,-102,-10,-17,15,-0.0512695,-0.466309,0.848145,0.5625,0.6875,0.5,-0.461403,0.0639507,-0.197683
5353,-8,-14,-36,-81,-46,-33,-1,-10,-0.0859375,-0.428711,0.844238,-0.125,-1.5,3.125,-0.461671,0.0645932,-0.196469
5353,-3,-5,27,127,127,59,14,1,-0.0859375,-0.428711,0.844238,-0.125,-1.5,3.125,-0.461671,0.0645932,-0.196469
5353,13,4,-23,-52,-93,-58,0,10,-0.0859375,-0.428711,0.844238,-0.125,-1.5,3.125,-0.461671,0.0645932,-0.196469
5353,-12,-10,0,-60,-24,26,29,-14,-0.0859375,-0.428711,0.844238,-0.125,-1.5,3.125,-0.461671,0.0645932,-0.196469
5366,10,-4,-19,-31,1,-6,-10,2,-0.078125,-0.428223,0.845215,-4.3125,-1.0625,2.3125,-0.463188,0.0650267,-0.195651
5366,3,5,-32,-99,-40,40,9,4,-0.078125,-0.428223,0.845215,-4.3125,-1.0625,2.3125,-0.463188,0.0650267,-0.195651
5374,9,5,36,122,107,41,-5,-1,-0.078125,-0.428223,0.845215,-4.3125,-1.0625,2.3125,-0.463188,0.0650267,-0.195651
5374,5,12,4,-27,-61,7,26,13,-0.078125,-0.428223,0.845215,-4.3125,-1.0625,2.3125,-0.463188,0.0650267,-0.195651
5381,-15,-14,-2,-109,30,-66,-29,-13,-0.0532227,-0.446289,0.866699,-4.6875,1.5625,-2.125,-0.465091,0.0649041,-0.196477
5381,-2,9,-68,65,110,5,-9,13,-0.0532227,-0.446289,0.866699,-4.6875,1.5625,-2.125,-0.465091,0.0649041,-0.196477
5389,-2,-15,-60,-83,-93,-29,25,-4,-0.0532227,-0.446289,0.866699,-4.6875,1.5625,-2.125,-0.465091,0.0649041,-0.196477
5389,-3,-17,-16,83,21,42,-2,-6,-0.0532227,-0.446289,0.866699,-4.6875,1.5625,-2.125,-0.465091,0.0649041,-0.196477
5405,6,14,45,16,-35,-24,-25,5,-0.0654297,-0.447266,0.881348,-0.5625,3,-1.125,-0.465482,0.0656854,-0.197319
5405,18,30,126,74,101,45,56,6,-0.0654297,-0.447266,0.881348,-0.5625,3,-1.125,-0.465482,0.0656854,-0.197319
5405,-12,-18,-80,-85,-5,-27,-41,1,-0.0654297,-0.447266,0.881348,-0.5625,3,-1.125,-0.465482,0.0656854,-0.197319
5405,-8,-5,-31,-2,-44,20,-8,-12,-0.0654297,-0.447266,0.881348,-0.5625,3,-1.125,-0.465482,0.0656854,-0.197319
5435,14,10,6,44,3,-9,19,14,-0.0830078,-0.416992,0.86377,-2.6875,2,1.25,-0.465989,0.0669142,-0.197265
5435,-1,-10,10,-34,-99,-89,-39,-6,-0.0830078,-0.416992,0.86377,-2.6875,2,1.25,-0.465989,0.0669142,-0.197265
5436,-17,-3,-2,21,71,80,30,-12,-0.0830078,-0.416992,0.86377,-2.6875,2,1.25,-0.465989,0.0669142,-0.197265
5436,3,-11,-21,-38,55,-23,-38,-1,-0.0830078,-0.416992,0.86377,-2.6875,2,1.25,-0.465989,0.0669142,-0.197265
5441,-9,6,-16,-25,-44,-46,4,-3,-0.0776367,-0.429688,0.882812,0.125,1.4375,2.5625,-0.465573,0.0681057,-0.196645
5441,11,-11,16,59,99,50,-54,-1,-0.0776367,-0.429688,0.882812,0.125,1.4375,2.5625,-0.465573,0.0681057,-0.196645
5449,7,21,67,32,27,58,79,19,-0.0776367,-0.429688,0.882812,0.125,1.4375,2.5625,-0.465573,0.0681057,-0.196645
5449,-17,1,17,-42,-55,-30,-7,-3,-0.0776367,-0.429688,0.882812,0.125,1.4375,2.5625,-0.465573,0.0681057,-0.196645
5465,3,-7,-26,-21,-50,2,31,0,-0.0654297,-0.432617,0.878906,-3.4375,-1.625,1.3125,-0.466517,0.0677963,-0.195996
5465,-3,16,-28,-58,-128,-81,-13,-1,-0.0654297,-0.432617,0.878906,-3.4375,-1.625,1.3125,-0.466517,0.0677963,-0.195996
5466,-11,-28,-22,38,-24,1,6,-15,-0.0654297,-0.432617,0.878906,-3.4375,-1.625,1.3125,-0.466517,0.0677963,-0.195996
5466,2,10,11,127,127,35,-53,1,-0.0654297,-0.432617,0.878906,-3.4375,-1.625,1.3125,-0.466517,0.0677963,-0.195996
5495,9,5,-7,-43,-69,-1,12,12,-0.0786133,-0.432617,0.85498,-1.1875,-0.0625,-0.4375,-0.466916,0.0679945,-0.196065
5495,-11,-17,-34,-115,-49,-10,10,-7,-0.0786133,-0.432617,0.85498,-1.1875,-0.0625,-0.4375,-0.466916,0.0679945,-0.196065
5495,0,8,56,42,80,32,-5,0,-0.0786133,-0.432617,0.85498,-1.1875,-0.0625,-0.4375,-0.466916,0.0679945,-0.196065
5495,14,-3,-44,-20,-55,-52,3,5,-0.0786133,-0.432617,0.85498,-1.1875,-0.0625,-0.4375,-0.466916,0.0679945,-0.196065
5501,-2,7,5,-72,-7,-20,-28,-11,-0.0795898,-0.433594,0.871094,0.3125,0.0625,1.4375,-0.466712,0.0686353,-0.19558
5501,5,4,27,103,40,53,10,0,-0.0795898,-0.433594,0.871094,0.3125,0.0625,1.4375,-0.466712,0.0686353,-0.19558
5509,11,13,-4,-55,-82,-40,-12,1,-0.0795898,-0.433594,0.871094,0.3125,0.0625,1.4375,-0.466712,0.0686353,-0.19558
5509,-9,-20,-10,-128,-111,-66,-56,1,-0.0795898,-0.433594,0.871094,0.3125,0.0625,1.4375,-0.466712,0.0686353,-0.19558
5532,-5,-4,-4,118,127,113,83,-3,-0.081543,-0.440918,0.884766,-1.5625,2,1.4375,-0.467071,0.0697569,-0.195491
5532,24,15,33,21,-77,-67,56,14,-0.081543,-0.440918,0.884766,-1.5625,2,1.4375,-0.467071,0.0697569,-0.195491
5533,-5,-6,-31,-97,32,64,-36,-13,-0.081543,-0.440918,0.884766,-1.5625,2,1.4375,-0.467071,0.0697569,-0.195491
5533,9,27,49,90,90,0,68,18,-0.081543,-0.440918,0.884766,-1.5625,2,1.4375,-0.467071,0.0697569,-0.195491
5548,5,1,82,32,-37,1,-66,-27,-0.0810547,-0.450684,0.886719,0.5625,2.4375,1.625,-0.466942,0.0710742,-0.195295
5548,-9,11,-41,49,45,3,-6,5,-0.0810547,-0.450684,0.886719,0.5625,2.4375,1.625,-0.466942,0.0710742,-0.195295
5548,-9,-15,-49,-79,-101,-49,-11,-8,-0.0810547,-0.450684,0.886719,0.5625,2.4375,1.625,-0.466942,0.0710742,-0.195295
5548,-15,-14,-30,-101,-107,-44,-3,-14,-0.0810547,-0.450684,0.886719,0.5625,2.4375,1.625,-0.466942,0.0710742,-0.195295
5561,14,-3,25,-2,61,9,-13,4,-0.059082,-0.431152,0.855957,2.75,-0.25,0.8125,-0.465892,0.0708451,-0.195051
5561,8,10,10,80,40,41,6,10,-0.059082,-0.431152,0.855957,2.75,-0.25,0.8125,-0.465892,0.0708451,-0.195051
5570,-1,4,5,-102,-128,-96,-23,4,-0.059082,-0.431152,0.855957,2.75,-0.25,0.8125,-0.465892,0.0708451,-0.195051
5570,-9,-15,-20,-38,38,44,22,-15,-0.059082,-0.431152,0.855957,2.75,-0.25,0.8125,-0.465892,0.0708451,-0.195051
5585,0,2,19,107,109,96,12,-1,-0.0419922,-0.440918,0.869629,-0.5625,-1.1875,3.375,-0.466159,0.0703585,-0.193819
5585,6,-8,-6,-13,-19,0,-7,14,-0.0419922,-0.440918,0.869629,-0.5625,-1.1875,3.375,-0.466159,0.0703585,-0.193819
