0,0,2,6,-2,-2,1,0,0,0.98584,-0.0908203,0.336914,57.6875,-13.9375,23.1875,-0.564049,-1.18246,-1.37922
0,1,0,1,-5,-1,-2,0,1,0.98584,-0.0908203,0.336914,57.6875,-13.9375,23.1875,-0.564049,-1.18246,-1.37922
5,1,-4,-3,3,0,-1,-2,-1,0.98584,-0.0908203,0.336914,57.6875,-13.9375,23.1875,-0.564049,-1.18246,-1.37922
5,1,-4,-4,2,-2,-2,-3,-1,0.98584,-0.0908203,0.336914,57.6875,-13.9375,23.1875,-0.564049,-1.18246,-1.37922
6,-1,0,-1,-2,-1,-1,-2,-1,0.98584,-0.0908203,0.336914,57.6875,-13.9375,23.1875,-0.564049,-1.18246,-1.37922
6,0,2,1,-3,-1,-1,1,-1,0.98584,-0.0908203,0.336914,57.6875,-13.9375,23.1875,-0.564049,-1.18246,-1.37922
6,-1,-1,-4,-2,1,0,-2,0,0.98584,-0.0908203,0.336914,57.6875,-13.9375,23.1875,-0.564049,-1.18246,-1.37922
6,-2,-2,-4,0,-4,-5,-1,-1,0.98584,-0.0908203,0.336914,57.6875,-13.9375,23.1875,-0.564049,-1.18246,-1.37922
11,-1,-2,-2,-5,-6,-2,-1,1,0.98584,-0.0908203,0.336914,57.6875,-13.9375,23.1875,-0.564049,-1.18246,-1.37922
11,-2,0,2,-13,-1,5,6,3,0.98584,-0.0908203,0.336914,57.6875,-13.9375,23.1875,-0.564049,-1.18246,-1.37922
20,-1,-1,6,14,8,-1,-3,-2,0.987793,-0.0961914,0.343262,65.6875,-7.9375,28.0625,-0.558307,-1.1807,-1.35929
20,1,-1,-16,4,-1,0,-1,-1,0.987793,-0.0961914,0.343262,65.6875,-7.9375,28.0625,-0.558307,-1.1807,-1.35929
26,-4,2,7,4,1,5,-3,-4,0.987793,-0.0961914,0.343262,65.6875,-7.9375,28.0625,-0.558307,-1.1807,-1.35929
26,-1,1,3,0,0,-1,0,0,0.987793,-0.0961914,0.343262,65.6875,-7.9375,28.0625,-0.558307,-1.1807,-1.35929
41,0,-2,-7,-6,-7,1,1,0,0.978027,-0.0708008,0.337891,73.0625,-4.125,29.75,-0.548411,-1.17849,-1.3415
41,0,-3,2,0,0,-3,-1,0,0.978027,-0.0708008,0.337891,73.0625,-4.125,29.75,-0.548411,-1.17849,-1.3415
50,0,-1,-1,-3,-5,-4,-1,-1,0.978027,-0.0708008,0.337891,73.0625,-4.125,29.75,-0.548411,-1.17849,-1.3415
50,-2,0,0,-4,-4,-1,-1,-2,0.978027,-0.0708008,0.337891,73.0625,-4.125,29.75,-0.548411,-1.17849,-1.3415
73,-2,-1,0,-1,0,-3,0,0,0.975098,-0.0761719,0.327148,69.125,0.5625,28.5625,-0.538001,-1.17504,-1.32548
73,-4,1,3,0,-1,-3,-3,-2,0.975098,-0.0761719,0.327148,69.125,0.5625,28.5625,-0.538001,-1.17504,-1.32548
73,0,0,-1,-1,-1,-1,1,-1,0.975098,-0.0761719,0.327148,69.125,0.5625,28.5625,-0.538001,-1.17504,-1.32548
73,0,-1,-1,-1,-4,-3,-5,-3,0.975098,-0.0761719,0.327148,69.125,0.5625,28.5625,-0.538001,-1.17504,-1.32548
87,1,-3,-3,-2,-2,1,0,-1,0.963379,-0.109375,0.338867,65.9375,4.9375,29.0625,-0.52882,-1.16969,-1.3096
87,0,1,1,-1,0,0,-3,-1,0.963379,-0.109375,0.338867,65.9375,4.9375,29.0625,-0.52882,-1.16969,-1.3096
128,-2,-2,-3,-1,0,3,-1,-1,0.923828,-0.192383,0.349121,73.8125,10.9375,27.5,-0.507446,-1.15508,-1.27818
128,-1,-2,-5,4,-2,-1,-3,-1,0.923828,-0.192383,0.349121,73.8125,10.9375,27.5,-0.507446,-1.15508,-1.27818
129,-2,0,0,-2,-3,0,-3,0,0.923828,-0.192383,0.349121,73.8125,10.9375,27.5,-0.507446,-1.15508,-1.27818
129,-5,1,1,-3,-2,-2,-1,-1,0.923828,-0.192383,0.349121,73.8125,10.9375,27.5,-0.507446,-1.15508,-1.27818
132,-1,-1,-2,-1,-2,-1,-1,-2,0.923828,-0.192383,0.349121,73.8125,10.9375,27.5,-0.507446,-1.15508,-1.27818
132,1,-2,-6,-2,0,-1,-1,0,0.923828,-0.192383,0.349121,73.8125,10.9375,27.5,-0.507446,-1.15508,-1.27818
133,0,0,-1,-1,-1,0,-1,-2,0.923828,-0.192383,0.349121,73.8125,10.9375,27.5,-0.507446,-1.15508,-1.27818
133,1,4,-1,-4,0,-1,0,-1,0.923828,-0.192383,0.349121,73.8125,10.9375,27.5,-0.507446,-1.15508,-1.27818
138,0,-2,-4,-2,-3,-1,0,0,0.922852,-0.176758,0.353516,77.25,13.75,25.125,-0.491801,-1.14708,-1.26562
138,0,-5,-4,2,-2,-2,-3,-2,0.922852,-0.176758,0.353516,77.25,13.75,25.125,-0.491801,-1.14708,-1.26562
146,-1,-2,-1,-1,2,-1,-1,-1,0.922852,-0.176758,0.353516,77.25,13.75,25.125,-0.491801,-1.14708,-1.26562
146,0,1,2,-5,0,-1,-1,0,0.922852,-0.176758,0.353516,77.25,13.75,25.125,-0.491801,-1.14708,-1.26562
163,-1,-3,0,4,2,0,0,1,0.874512,-0.163086,0.379395,72.75,14.8125,21.6875,-0.474069,-1.13883,-1.25693
163,-2,-3,-1,4,-2,-2,-2,-1,0.874512,-0.163086,0.379395,72.75,14.8125,21.6875,-0.474069,-1.13883,-1.25693
169,-3,-2,-1,-2,-2,-2,-1,0,0.874512,-0.163086,0.379395,72.75,14.8125,21.6875,-0.474069,-1.13883,-1.25693
169,-1,1,1,-3,-1,-1,-1,-1,0.874512,-0.163086,0.379395,72.75,14.8125,21.6875,-0.474069,-1.13883,-1.25693
178,0,3,-2,-2,-2,-2,-3,0,0.83252,-0.1875,0.356445,62,13.125,19.4375,-0.461617,-1.13131,-1.24689
178,-1,-1,-4,1,1,-2,0,-2,0.83252,-0.1875,0.356445,62,13.125,19.4375,-0.461617,-1.13131,-1.24689
200,-2,1,-2,1,0,-1,-2,0,0.83252,-0.1875,0.356445,62,13.125,19.4375,-0.461617,-1.13131,-1.24689
200,-1,-2,0,-1,-2,-1,-1,0,0.83252,-0.1875,0.356445,62,13.125,19.4375,-0.461617,-1.13131,-1.24689
201,-1,-2,0,-2,-1,-3,-1,0,0.839844,-0.248047,0.342285,45,7.625,16.5,-0.458294,-1.12588,-1.23378
201,-2,-3,-1,0,0,-1,-2,0,0.839844,-0.248047,0.342285,45,7.625,16.5,-0.458294,-1.12588,-1.23378
213,0,1,0,-3,-1,-3,-2,-1,0.839844,-0.248047,0.342285,45,7.625,16.5,-0.458294,-1.12588,-1.23378
213,-3,-3,1,-1,-4,-1,-1,0,0.839844,-0.248047,0.342285,45,7.625,16.5,-0.458294,-1.12588,-1.23378
229,0,0,-2,0,-2,-2,-2,-1,0.851074,-0.29248,0.348145,36.6875,2.625,11.6875,-0.458487,-1.1227,-1.22091
229,1,-1,-2,0,-3,0,-3,0,0.851074,-0.29248,0.348145,36.6875,2.625,11.6875,-0.458487,-1.1227,-1.22091
238,1,2,1,-3,1,-1,-2,-2,0.851074,-0.29248,0.348145,36.6875,2.625,11.6875,-0.458487,-1.1227,-1.22091
238,0,1,0,-3,-2,-1,0,-2,0.851074,-0.29248,0.348145,36.6875,2.625,11.6875,-0.458487,-1.1227,-1.22091
239,1,-1,-1,-1,1,0,2,-2,0.821777,-0.307129,0.32959,34.5,-2.75,8.25,-0.459915,-1.12148,-1.2074
239,-1,-1,-2,-1,-2,-1,0,-1,0.821777,-0.307129,0.32959,34.5,-2.75,8.25,-0.459915,-1.12148,-1.2074
259,-2,-1,0,0,0,1,0,-2,0.821777,-0.307129,0.32959,34.5,-2.75,8.25,-0.459915,-1.12148,-1.2074
259,-2,1,0,-2,-1,-1,1,0,0.821777,-0.307129,0.32959,34.5,-2.75,8.25,-0.459915,-1.12148,-1.2074
261,-2,-1,0,-2,-2,-4,-2,-1,0.830566,-0.267578,0.316895,30.375,-9.3125,2.5,-0.459307,-1.12384,-1.1972
261,1,-1,0,-2,-1,1,-2,-1,0.830566,-0.267578,0.316895,30.375,-9.3125,2.5,-0.459307,-1.12384,-1.1972
273,-2,0,-2,-3,-1,-2,0,0,0.830566,-0.267578,0.316895,30.375,-9.3125,2.5,-0.459307,-1.12384,-1.1972
273,1,-1,0,-1,0,0,-2,-1,0.830566,-0.267578,0.316895,30.375,-9.3125,2.5,-0.459307,-1.12384,-1.1972
282,-1,0,1,-1,-2,0,0,-2,0.837891,-0.227539,0.307129,22.4375,-15,-1.9375,-0.459163,-1.12916,-1.18942
282,-2,-1,-1,-2,-1,-1,-2,0,0.837891,-0.227539,0.307129,22.4375,-15,-1.9375,-0.459163,-1.12916,-1.18942
305,-1,-3,0,0,-1,0,-2,-1,0.837891,-0.227539,0.307129,22.4375,-15,-1.9375,-0.459163,-1.12916,-1.18942
305,0,-2,-1,-1,1,0,-1,0,0.837891,-0.227539,0.307129,22.4375,-15,-1.9375,-0.459163,-1.12916,-1.18942
306,-1,-3,-2,-1,-1,0,0,1,0.840332,-0.194824,0.318848,8.1875,-20.1875,-4.75,-0.461555,-1.13666,-1.18406
306,-2,0,-1,0,-1,-2,1,0,0.840332,-0.194824,0.318848,8.1875,-20.1875,-4.75,-0.461555,-1.13666,-1.18406
320,-1,-1,-2,-3,-3,-1,-1,-1,0.840332,-0.194824,0.318848,8.1875,-20.1875,-4.75,-0.461555,-1.13666,-1.18406
320,-3,1,0,-1,-1,-2,-1,-1,0.840332,-0.194824,0.318848,8.1875,-20.1875,-4.75,-0.461555,-1.13666,-1.18406
321,0,2,-1,0,-1,0,-2,1,0.855957,-0.1875,0.314941,-7.9375,-25.4375,-9.3125,-0.468057,-1.14658,-1.18032
321,-3,1,1,-2,-2,-2,-1,-1,0.855957,-0.1875,0.314941,-7.9375,-25.4375,-9.3125,-0.468057,-1.14658,-1.18032
333,1,1,0,-2,-2,1,-1,-2,0.855957,-0.1875,0.314941,-7.9375,-25.4375,-9.3125,-0.468057,-1.14658,-1.18032
333,-1,-1,1,-1,0,-2,0,0,0.855957,-0.1875,0.314941,-7.9375,-25.4375,-9.3125,-0.468057,-1.14658,-1.18032
342,-2,-3,1,-1,-1,0,-2,1,0.87793,-0.185547,0.316406,-19.9375,-29.6875,-13.6875,-0.477227,-1.15843,-1.17812
342,-2,-1,-2,-1,-1,-3,0,-1,0.87793,-0.185547,0.316406,-19.9375,-29.6875,-13.6875,-0.477227,-1.15843,-1.17812
357,-3,-1,2,0,-1,1,0,-2,0.87793,-0.185547,0.316406,-19.9375,-29.6875,-13.6875,-0.477227,-1.15843,-1.17812
357,-1,2,1,0,-1,1,1,-2,0.87793,-0.185547,0.316406,-19.9375,-29.6875,-13.6875,-0.477227,-1.15843,-1.17812
363,-2,0,-1,-2,-1,0,0,-1,0.90625,-0.180176,0.308594,-27.5,-32.1875,-17.375,-0.487434,-1.17158,-1.17748
363,1,-1,-2,0,0,-1,-1,-1,0.90625,-0.180176,0.308594,-27.5,-32.1875,-17.375,-0.487434,-1.17158,-1.17748
380,0,2,3,-2,-2,-1,-1,-1,0.90625,-0.180176,0.308594,-27.5,-32.1875,-17.375,-0.487434,-1.17158,-1.17748
380,0,-1,-2,-3,1,0,-2,-2,0.90625,-0.180176,0.308594,-27.5,-32.1875,-17.375,-0.487434,-1.17158,-1.17748
382,-2,-1,-2,0,0,-1,0,-2,0.924316,-0.152344,0.307129,-32.3125,-32.3125,-19.9375,-0.496044,-1.18549,-1.18017
382,-1,-1,1,1,-1,-1,-1,-1,0.924316,-0.152344,0.307129,-32.3125,-32.3125,-19.9375,-0.496044,-1.18549,-1.18017
403,0,0,0,-1,-2,-2,0,0,0.924316,-0.152344,0.307129,-32.3125,-32.3125,-19.9375,-0.496044,-1.18549,-1.18017
403,-3,-2,1,-1,-2,1,-1,-1,0.924316,-0.152344,0.307129,-32.3125,-32.3125,-19.9375,-0.496044,-1.18549,-1.18017
404,-1,-1,0,1,-3,-1,0,-1,0.944336,-0.121094,0.313965,-36,-32.5,-21.8125,-0.502394,-1.19988,-1.18646
404,-2,-2,0,0,-1,-1,1,-1,0.944336,-0.121094,0.313965,-36,-32.5,-21.8125,-0.502394,-1.19988,-1.18646
416,-1,-1,1,0,-2,0,0,-1,0.944336,-0.121094,0.313965,-36,-32.5,-21.8125,-0.502394,-1.19988,-1.18646
416,1,0,-2,-1,-2,-2,-1,-1,0.944336,-0.121094,0.313965,-36,-32.5,-21.8125,-0.502394,-1.19988,-1.18646
424,1,-2,-4,-2,1,0,-3,-3,0.963867,-0.108398,0.308105,-40.75,-31.8125,-22.625,-0.508835,-1.21438,-1.19442
424,1,1,0,0,-1,-1,0,0,0.963867,-0.108398,0.308105,-40.75,-31.8125,-22.625,-0.508835,-1.21438,-1.19442
441,-3,0,-1,-4,-4,-3,-1,0,0.963867,-0.108398,0.308105,-40.75,-31.8125,-22.625,-0.508835,-1.21438,-1.19442
441,-2,-2,-1,-1,-2,0,0,1,0.963867,-0.108398,0.308105,-40.75,-31.8125,-22.625,-0.508835,-1.21438,-1.19442
442,-2,-1,1,1,-2,-2,-1,-1,0.982422,-0.0913086,0.307617,-44.6875,-30.125,-22.875,-0.514014,-1.22836,-1.20482
442,0,-1,1,-1,-2,1,-1,0,0.982422,-0.0913086,0.307617,-44.6875,-30.125,-22.875,-0.514014,-1.22836,-1.20482
463,1,0,-1,0,-1,0,2,0,0.982422,-0.0913086,0.307617,-44.6875,-30.125,-22.875,-0.514014,-1.22836,-1.20482
463,-2,0,-1,1,-2,-1,0,-2,0.982422,-0.0913086,0.307617,-44.6875,-30.125,-22.875,-0.514014,-1.22836,-1.20482
465,2,1,3,1,-1,-1,-3,0,0.982422,-0.0776367,0.288574,-46.75,-26.8125,-22.875,-0.518357,-1.24145,-1.21684
465,0,0,-2,0,0,-2,-1,-3,0.982422,-0.0776367,0.288574,-46.75,-26.8125,-22.875,-0.518357,-1.24145,-1.21684
476,-1,-1,0,-2,1,0,0,-1,0.982422,-0.0776367,0.288574,-46.75,-26.8125,-22.875,-0.518357,-1.24145,-1.21684
476,0,-1,-1,0,0,-3,-1,1,0.982422,-0.0776367,0.288574,-46.75,-26.8125,-22.875,-0.518357,-1.24145,-1.21684
484,0,-3,-3,1,-1,-3,1,1,0.978027,-0.0766602,0.291992,-47.0625,-24.1875,-22.375,-0.520894,-1.25354,-1.23098
484,-3,0,0,-1,-2,1,-1,-3,0.978027,-0.0766602,0.291992,-47.0625,-24.1875,-22.375,-0.520894,-1.25354,-1.23098
500,0,0,0,0,-2,-2,-1,-1,0.978027,-0.0766602,0.291992,-47.0625,-24.1875,-22.375,-0.520894,-1.25354,-1.23098
500,0,-3,-2,-2,-3,0,-1,0,0.978027,-0.0766602,0.291992,-47.0625,-24.1875,-22.375,-0.520894,-1.25354,-1.23098
501,-1,-1,-1,1,-4,-2,-2,0,0.966797,-0.078125,0.282715,-42.25,-21.375,-20.625,-0.522,-1.26407,-1.24471
501,-1,-1,1,0,1,-1,-1,-1,0.966797,-0.078125,0.282715,-42.25,-21.375,-20.625,-0.522,-1.26407,-1.24471
523,0,-3,-3,1,1,0,0,-1,0.966797,-0.078125,0.282715,-42.25,-21.375,-20.625,-0.522,-1.26407,-1.24471
523,-1,0,2,-4,0,-1,-1,-2,0.966797,-0.078125,0.282715,-42.25,-21.375,-20.625,-0.522,-1.26407,-1.24471
525,-2,0,-2,-1,0,0,0,-1,0.955566,-0.0825195,0.281738,-33.0625,-19.0625,-18.5625,-0.520539,-1.27311,-1.25759
525,-1,-3,-2,-3,-3,-2,-1,-1,0.955566,-0.0825195,0.281738,-33.0625,-19.0625,-18.5625,-0.520539,-1.27311,-1.25759
537,-1,-1,0,-2,0,0,0,-1,0.955566,-0.0825195,0.281738,-33.0625,-19.0625,-18.5625,-0.520539,-1.27311,-1.25759
537,-2,-2,0,-3,-2,-2,-1,-2,0.955566,-0.0825195,0.281738,-33.0625,-19.0625,-18.5625,-0.520539,-1.27311,-1.25759
544,0,-2,-1,-2,0,-2,-1,-1,0.945801,-0.0766602,0.273438,-22.5625,-16.625,-17.125,-0.515024,-1.28149,-1.27127
544,-2,0,1,0,-1,-1,0,-1,0.945801,-0.0766602,0.273438,-22.5625,-16.625,-17.125,-0.515024,-1.28149,-1.27127
560,-1,-2,1,-1,3,-2,-1,-1,0.945801,-0.0766602,0.273438,-22.5625,-16.625,-17.125,-0.515024,-1.28149,-1.27127
560,-1,0,-2,-1,-3,-1,-1,0,0.945801,-0.0766602,0.273438,-22.5625,-16.625,-17.125,-0.515024,-1.28149,-1.27127
562,-2,2,-3,0,0,-1,-1,-2,0.939941,-0.0634766,0.273438,-15.3125,-14.3125,-16.25,-0.504963,-1.28845,-1.2865
562,0,-1,0,-3,-3,1,-1,0,0.939941,-0.0634766,0.273438,-15.3125,-14.3125,-16.25,-0.504963,-1.28845,-1.2865
582,-1,1,-2,-1,-2,-1,-1,0,0.939941,-0.0634766,0.273438,-15.3125,-14.3125,-16.25,-0.504963,-1.28845,-1.2865
582,1,0,-2,1,1,0,-1,1,0.939941,-0.0634766,0.273438,-15.3125,-14.3125,-16.25,-0.504963,-1.28845,-1.2865
583,-1,-2,-3,-1,-1,1,0,-4,0.936035,-0.0610352,0.265137,-11.875,-12,-15.375,-0.493356,-1.29486,-1.30256
583,-1,0,-1,-1,0,-1,-2,-1,0.936035,-0.0610352,0.265137,-11.875,-12,-15.375,-0.493356,-1.29486,-1.30256
597,-1,0,1,-5,-1,0,0,-1,0.936035,-0.0610352,0.265137,-11.875,-12,-15.375,-0.493356,-1.29486,-1.30256
597,0,-4,1,-1,-3,0,0,-3,0.936035,-0.0610352,0.265137,-11.875,-12,-15.375,-0.493356,-1.29486,-1.30256
604,-2,0,0,-1,-3,-3,-1,0,0.92627,-0.0527344,0.254395,-11.875,-9.75,-15.3125,-0.479724,-1.30059,-1.32066
604,0,0,-1,1,-2,-1,1,-1,0.92627,-0.0527344,0.254395,-11.875,-9.75,-15.3125,-0.479724,-1.30059,-1.32066
620,-1,-1,-1,-1,-1,-3,-1,-3,0.92627,-0.0527344,0.254395,-11.875,-9.75,-15.3125,-0.479724,-1.30059,-1.32066
620,-1,0,0,1,2,0,-2,-1,0.92627,-0.0527344,0.254395,-11.875,-9.75,-15.3125,-0.479724,-1.30059,-1.32066
622,0,-1,-1,1,0,-1,-1,0,0.920898,-0.0532227,0.246582,-15.5625,-7.4375,-16.5,-0.465156,-1.3056,-1.34094
622,-2,-2,-1,-2,-2,-2,-1,0,0.920898,-0.0532227,0.246582,-15.5625,-7.4375,-16.5,-0.465156,-1.3056,-1.34094
643,-1,-2,-4,2,-1,-1,-1,-1,0.920898,-0.0532227,0.246582,-15.5625,-7.4375,-16.5,-0.465156,-1.3056,-1.34094
643,0,-2,-1,-1,-1,0,-1,0,0.920898,-0.0532227,0.246582,-15.5625,-7.4375,-16.5,-0.465156,-1.3056,-1.34094
645,0,-3,-2,0,-1,-1,-1,0,0.917969,-0.0458984,0.26416,-22,-5,-17.9375,-0.447786,-1.30968,-1.3663
645,0,-1,-1,-4,1,0,-1,0,0.917969,-0.0458984,0.26416,-22,-5,-17.9375,-0.447786,-1.30968,-1.3663
656,-1,0,-1,-2,-2,-1,1,0,0.917969,-0.0458984,0.26416,-22,-5,-17.9375,-0.447786,-1.30968,-1.3663
656,0,-3,-2,0,2,0,0,-2,0.917969,-0.0458984,0.26416,-22,-5,-17.9375,-0.447786,-1.30968,-1.3663
673,0,0,0,0,-4,-2,0,-2,0.907715,-0.0507812,0.260742,-26.625,-3.6875,-19.1875,-0.430188,-1.31352,-1.3941
673,1,0,-1,0,-1,-2,-1,-1,0.907715,-0.0507812,0.260742,-26.625,-3.6875,-19.1875,-0.430188,-1.31352,-1.3941
680,-2,0,-3,-1,-2,-1,-2,-2,0.907715,-0.0507812,0.260742,-26.625,-3.6875,-19.1875,-0.430188,-1.31352,-1.3941
680,-2,-1,-1,-4,0,-2,0,0,0.907715,-0.0507812,0.260742,-26.625,-3.6875,-19.1875,-0.430188,-1.31352,-1.3941
681,-1,-1,1,-2,0,0,0,-3,0.902832,-0.0498047,0.258789,-30.375,-2.75,-20.5625,-0.411476,-1.31644,-1.42344
681,-1,-1,-1,0,0,-1,-1,1,0.902832,-0.0498047,0.258789,-30.375,-2.75,-20.5625,-0.411476,-1.31644,-1.42344
701,-1,0,0,-2,0,-1,-1,-2,0.902832,-0.0498047,0.258789,-30.375,-2.75,-20.5625,-0.411476,-1.31644,-1.42344
701,-1,1,-2,0,1,-2,-1,-1,0.902832,-0.0498047,0.258789,-30.375,-2.75,-20.5625,-0.411476,-1.31644,-1.42344
718,0,-1,0,-3,0,1,0,-1,0.897461,-0.0439453,0.27002,-32.25,-1.8125,-20.625,-0.392136,-1.31916,-1.45491
718,0,1,-1,0,-2,-1,-1,0,0.897461,-0.0439453,0.27002,-32.25,-1.8125,-20.625,-0.392136,-1.31916,-1.45491
719,0,-3,1,-1,-1,0,-2,0,0.897461,-0.0439453,0.27002,-32.25,-1.8125,-20.625,-0.392136,-1.31916,-1.45491
719,-1,-3,0,-3,-1,-3,0,-3,0.897461,-0.0439453,0.27002,-32.25,-1.8125,-20.625,-0.392136,-1.31916,-1.45491
725,0,0,-2,-1,-1,1,0,-2,0.899414,-0.043457,0.262695,-32.4375,-1.6875,-20.625,-0.372684,-1.32155,-1.48625
725,-1,1,-1,-2,-1,0,-1,-2,0.899414,-0.043457,0.262695,-32.4375,-1.6875,-20.625,-0.372684,-1.32155,-1.48625
740,-1,-1,-1,2,0,-2,-4,-1,0.899414,-0.043457,0.262695,-32.4375,-1.6875,-20.625,-0.372684,-1.32155,-1.48625
740,2,0,0,2,-1,-1,-2,-1,0.899414,-0.043457,0.262695,-32.4375,-1.6875,-20.625,-0.372684,-1.32155,-1.48625
741,-1,0,0,-2,2,1,-1,-1,0.897949,-0.0195312,0.250977,-34.8125,-0.875,-20.375,-0.35216,-1.32407,-1.51961
741,-2,0,-2,-3,-1,0,0,-2,0.897949,-0.0195312,0.250977,-34.8125,-0.875,-20.375,-0.35216,-1.32407,-1.51961
762,-2,-2,0,-2,-1,0,0,0,0.897949,-0.0195312,0.250977,-34.8125,-0.875,-20.375,-0.35216,-1.32407,-1.51961
762,0,0,0,0,-3,-3,0,0,0.897949,-0.0195312,0.250977,-34.8125,-0.875,-20.375,-0.35216,-1.32407,-1.51961
763,-2,-1,-1,-1,-3,-2,0,0,0.882812,-0.0102539,0.250977,-36.8125,-0.1875,-19.1875,-0.332924,-1.32585,-1.55215
763,1,-1,-1,1,-1,-2,-1,-2,0.882812,-0.0102539,0.250977,-36.8125,-0.1875,-19.1875,-0.332924,-1.32585,-1.55215
776,-1,-2,0,-1,-1,1,-1,-2,0.882812,-0.0102539,0.250977,-36.8125,-0.1875,-19.1875,-0.332924,-1.32585,-1.55215
776,0,-1,0,1,1,-1,-2,-2,0.882812,-0.0102539,0.250977,-36.8125,-0.1875,-19.1875,-0.332924,-1.32585,-1.55215
785,-1,0,0,-3,0,1,-2,-1,0.866699,-0.00878906,0.258301,-37.25,0.125,-17.8125,-0.314586,-1.32714,-1.58412
785,-3,1,1,-2,-1,0,-1,-2,0.866699,-0.00878906,0.258301,-37.25,0.125,-17.8125,-0.314586,-1.32714,-1.58412
800,1,0,0,0,1,0,2,0,0.866699,-0.00878906,0.258301,-37.25,0.125,-17.8125,-0.314586,-1.32714,-1.58412
800,0,-2,-2,0,0,2,-1,0,0.866699,-0.00878906,0.258301,-37.25,0.125,-17.8125,-0.314586,-1.32714,-1.58412
802,0,-1,-3,-3,-2,-4,-2,-1,0.851074,-0.0102539,0.272949,-33.6875,0.125,-15.75,-0.298123,-1.32759,-1.61284
802,-2,-1,-1,-1,-1,-1,-2,0,0.851074,-0.0102539,0.272949,-33.6875,0.125,-15.75,-0.298123,-1.32759,-1.61284
822,1,0,-1,-3,-2,-2,-3,0,0.851074,-0.0102539,0.272949,-33.6875,0.125,-15.75,-0.298123,-1.32759,-1.61284
822,-1,-2,-1,-1,-3,0,0,0,0.851074,-0.0102539,0.272949,-33.6875,0.125,-15.75,-0.298123,-1.32759,-1.61284
824,0,-4,0,0,-3,-2,-2,-2,0.87207,-0.0332031,0.282227,-26.1875,-1.4375,-13.4375,-0.285013,-1.32766,-1.63516
824,1,-2,0,0,0,-2,-2,-2,0.87207,-0.0332031,0.282227,-26.1875,-1.4375,-13.4375,-0.285013,-1.32766,-1.63516
836,-1,1,1,1,1,1,0,0,0.87207,-0.0332031,0.282227,-26.1875,-1.4375,-13.4375,-0.285013,-1.32766,-1.63516
836,-1,1,0,0,-1,0,-1,0,0.87207,-0.0332031,0.282227,-26.1875,-1.4375,-13.4375,-0.285013,-1.32766,-1.63516
845,0,0,1,0,2,-2,-1,-2,0.893555,-0.0205078,0.277832,-21.9375,-2.5,-12.5,-0.27115,-1.32872,-1.65744
845,1,2,-1,-2,-2,-1,-1,-1,0.893555,-0.0205078,0.277832,-21.9375,-2.5,-12.5,-0.27115,-1.32872,-1.65744
860,0,-1,-1,-2,-1,-2,0,-1,0.893555,-0.0205078,0.277832,-21.9375,-2.5,-12.5,-0.27115,-1.32872,-1.65744
860,-2,0,-2,-1,1,-3,-1,-2,0.893555,-0.0205078,0.277832,-21.9375,-2.5,-12.5,-0.27115,-1.32872,-1.65744
861,-4,-1,1,3,0,-1,-1,-2,0.894531,-0.0107422,0.294922,-20.9375,-4.25,-10.9375,-0.258111,-1.32934,-1.67756
861,-2,-2,-2,-3,-2,-1,-3,0,0.894531,-0.0107422,0.294922,-20.9375,-4.25,-10.9375,-0.258111,-1.32934,-1.67756
882,0,-2,-1,-2,-4,-1,-2,-2,0.894531,-0.0107422,0.294922,-20.9375,-4.25,-10.9375,-0.258111,-1.32934,-1.67756
882,0,1,-1,0,0,-1,-2,0,0.894531,-0.0107422,0.294922,-20.9375,-4.25,-10.9375,-0.258111,-1.32934,-1.67756
884,-1,-2,1,-3,-2,-2,0,1,0.900391,-0.0107422,0.297363,-21.3125,-6.6875,-8.875,-0.249062,-1.33069,-1.69423
884,-3,-2,-1,-1,-2,0,2,0,0.900391,-0.0107422,0.297363,-21.3125,-6.6875,-8.875,-0.249062,-1.33069,-1.69423
896,-1,0,-2,-3,-1,1,0,1,0.900391,-0.0107422,0.297363,-21.3125,-6.6875,-8.875,-0.249062,-1.33069,-1.69423
896,-1,-1,-2,-2,-1,0,1,-1,0.900391,-0.0107422,0.297363,-21.3125,-6.6875,-8.875,-0.249062,-1.33069,-1.69423
905,0,1,0,-2,-1,-1,-2,-1,0.913574,-0.0078125,0.302246,-22.125,-8.9375,-7.8125,-0.242623,-1.33258,-1.70827
905,0,-1,3,1,0,0,-1,0,0.913574,-0.0078125,0.302246,-22.125,-8.9375,-7.8125,-0.242623,-1.33258,-1.70827
920,-1,-1,-1,0,-1,-1,-3,-1,0.913574,-0.0078125,0.302246,-22.125,-8.9375,-7.8125,-0.242623,-1.33258,-1.70827
920,-1,-1,-1,-3,-1,0,0,-2,0.913574,-0.0078125,0.302246,-22.125,-8.9375,-7.8125,-0.242623,-1.33258,-1.70827
922,-1,2,0,2,2,-1,0,0,0.911621,-0.0151367,0.292969,-23.125,-10.625,-6.0625,-0.239961,-1.33513,-1.71917
922,0,-3,-5,-1,-2,-1,-2,-2,0.911621,-0.0151367,0.292969,-23.125,-10.625,-6.0625,-0.239961,-1.33513,-1.71917
942,-1,-2,0,-1,-1,0,0,-2,0.911621,-0.0151367,0.292969,-23.125,-10.625,-6.0625,-0.239961,-1.33513,-1.71917
942,-1,0,0,1,-1,-1,-1,-1,0.911621,-0.0151367,0.292969,-23.125,-10.625,-6.0625,-0.239961,-1.33513,-1.71917
943,-1,3,-2,0,-3,0,-1,-2,0.879395,0.00292969,0.273926,-22.5,-11.5,-4.125,-0.238814,-1.33793,-1.72793
943,-2,-12,-4,-3,-1,0,-2,-1,0.879395,0.00292969,0.273926,-22.5,-11.5,-4.125,-0.238814,-1.33793,-1.72793
956,1,2,-1,3,0,-2,1,-2,0.879395,0.00292969,0.273926,-22.5,-11.5,-4.125,-0.238814,-1.33793,-1.72793
956,-5,-4,-1,1,1,-1,-2,-2,0.879395,0.00292969,0.273926,-22.5,-11.5,-4.125,-0.238814,-1.33793,-1.72793
965,0,-2,-2,-1,0,-1,0,0,0.853027,0.0117188,0.255371,-25.25,-11.375,-3.375,-0.238863,-1.34103,-1.73645
965,0,4,1,0,-2,-1,0,1,0.853027,0.0117188,0.255371,-25.25,-11.375,-3.375,-0.238863,-1.34103,-1.73645
979,-3,-2,-2,-2,-1,-2,0,0,0.853027,0.0117188,0.255371,-25.25,-11.375,-3.375,-0.238863,-1.34103,-1.73645
979,-2,-3,-4,-1,-1,0,-1,0,0.853027,0.0117188,0.255371,-25.25,-11.375,-3.375,-0.238863,-1.34103,-1.73645
981,-1,-1,-1,-2,-1,-1,0,-2,0.819824,0.00634766,0.248047,-28.75,-11.3125,-0.625,-0.245021,-1.34381,-1.74025
981,0,3,0,1,-2,0,-2,-2,0.819824,0.00634766,0.248047,-28.75,-11.3125,-0.625,-0.245021,-1.34381,-1.74025
1002,0,-1,0,-1,-1,-1,-2,0,0.819824,0.00634766,0.248047,-28.75,-11.3125,-0.625,-0.245021,-1.34381,-1.74025
1002,2,9,2,1,-2,0,-2,0,0.819824,0.00634766,0.248047,-28.75,-11.3125,-0.625,-0.245021,-1.34381,-1.74025
1004,-1,-3,3,1,-2,1,-2,0,0.813477,-0.0185547,0.250488,-24.875,-12.5625,1.9375,-0.256693,-1.3463,-1.73677
1004,-2,-5,-7,-4,-3,-2,0,-1,0.813477,-0.0185547,0.250488,-24.875,-12.5625,1.9375,-0.256693,-1.3463,-1.73677
1016,-2,-2,2,-2,-1,1,-2,-1,0.813477,-0.0185547,0.250488,-24.875,-12.5625,1.9375,-0.256693,-1.3463,-1.73677
1016,0,-9,-4,-3,-2,0,0,-1,0.813477,-0.0185547,0.250488,-24.875,-12.5625,1.9375,-0.256693,-1.3463,-1.73677
1025,1,6,3,2,1,-1,-2,-1,0.830566,-0.046875,0.257324,-15.6875,-13.4375,3.625,-0.269982,-1.34882,-1.72878
1025,2,17,3,2,2,-1,2,0,0.830566,-0.046875,0.257324,-15.6875,-13.4375,3.625,-0.269982,-1.34882,-1.72878
1040,-5,-21,-14,-4,-1,-2,-1,-1,0.830566,-0.046875,0.257324,-15.6875,-13.4375,3.625,-0.269982,-1.34882,-1.72878
1040,-1,2,-3,0,-1,-2,-2,-1,0.830566,-0.046875,0.257324,-15.6875,-13.4375,3.625,-0.269982,-1.34882,-1.72878
1042,-1,-3,-2,-2,0,-1,-1,0,0.831055,-0.0375977,0.253906,-5.875,-14.25,6.75,-0.284075,-1.35095,-1.71567
1042,-3,-9,-5,-1,-2,-2,-2,-1,0.831055,-0.0375977,0.253906,-5.875,-14.25,6.75,-0.284075,-1.35095,-1.71567
1062,0,11,5,1,1,-1,0,-1,0.831055,-0.0375977,0.253906,-5.875,-14.25,6.75,-0.284075,-1.35095,-1.71567
1062,1,1,7,0,-1,-1,-1,-1,0.831055,-0.0375977,0.253906,-5.875,-14.25,6.75,-0.284075,-1.35095,-1.71567
1064,-3,-7,-8,-5,-4,-2,-2,-4,0.847656,-0.0273438,0.22998,0.6875,-15.375,8.8125,-0.29979,-1.35438,-1.69942
1064,-4,3,7,0,1,0,0,-3,0.847656,-0.0273438,0.22998,0.6875,-15.375,8.8125,-0.29979,-1.35438,-1.69942
1076,2,18,2,-2,-2,1,1,0,0.847656,-0.0273438,0.22998,0.6875,-15.375,8.8125,-0.29979,-1.35438,-1.69942
1076,1,22,10,2,-2,-2,0,0,0.847656,-0.0273438,0.22998,0.6875,-15.375,8.8125,-0.29979,-1.35438,-1.69942
1085,0,6,-9,-2,-2,0,-1,0,0.852539,-0.0517578,0.234863,4.6875,-17.5,11.125,-0.320731,-1.35779,-1.6762
1085,1,9,7,-1,0,0,-2,0,0.852539,-0.0517578,0.234863,4.6875,-17.5,11.125,-0.320731,-1.35779,-1.6762
1108,-2,-17,-14,-1,-1,-1,0,1,0.852539,-0.0517578,0.234863,4.6875,-17.5,11.125,-0.320731,-1.35779,-1.6762
1108,-1,-8,6,1,0,0,-1,-1,0.852539,-0.0517578,0.234863,4.6875,-17.5,11.125,-0.320731,-1.35779,-1.6762
1109,-2,-2,-1,-2,-2,-2,0,-1,0.86377,-0.0585938,0.219727,8.1875,-17.8125,12.6875,-0.344703,-1.36112,-1.64869
1109,-3,-17,-3,-2,0,0,1,-2,0.86377,-0.0585938,0.219727,8.1875,-17.8125,12.6875,-0.344703,-1.36112,-1.64869
1121,0,0,4,1,1,-1,-2,-1,0.86377,-0.0585938,0.219727,8.1875,-17.8125,12.6875,-0.344703,-1.36112,-1.64869
1121,2,3,-1,1,-1,-1,-1,1,0.86377,-0.0585938,0.219727,8.1875,-17.8125,12.6875,-0.344703,-1.36112,-1.64869
1130,-5,-6,-8,2,-2,-3,-1,-1,0.868164,-0.0688477,0.19043,10.75,-16.9375,12.875,-0.369796,-1.36432,-1.61876
1130,-3,-21,-13,-1,-2,-2,-1,-2,0.868164,-0.0688477,0.19043,10.75,-16.9375,12.875,-0.369796,-1.36432,-1.61876
1145,-6,-10,-8,-5,-4,-3,-1,-3,0.868164,-0.0688477,0.19043,10.75,-16.9375,12.875,-0.369796,-1.36432,-1.61876
1145,2,8,-2,1,3,1,-1,0,0.868164,-0.0688477,0.19043,10.75,-16.9375,12.875,-0.369796,-1.36432,-1.61876
1146,6,-9,-2,-1,0,2,2,1,0.869629,-0.0893555,0.197754,14.5625,-16.9375,13.75,-0.397727,-1.36756,-1.58576
1146,-9,-5,2,-7,-4,0,-3,-5,0.869629,-0.0893555,0.197754,14.5625,-16.9375,13.75,-0.397727,-1.36756,-1.58576
1167,-2,0,2,-2,-5,-2,-1,-2,0.869629,-0.0893555,0.197754,14.5625,-16.9375,13.75,-0.397727,-1.36756,-1.58576
1167,-2,-7,-8,-5,-2,-1,-1,-2,0.869629,-0.0893555,0.197754,14.5625,-16.9375,13.75,-0.397727,-1.36756,-1.58576
1168,4,4,6,4,0,1,0,1,0.915039,-0.112305,0.199707,20.375,-17.1875,13.875,-0.426078,-1.3701,-1.54965
1168,5,13,11,4,2,0,-1,1,0.915039,-0.112305,0.199707,20.375,-17.1875,13.875,-0.426078,-1.3701,-1.54965
1181,3,7,-3,-2,0,0,0,-1,0.915039,-0.112305,0.199707,20.375,-17.1875,13.875,-0.426078,-1.3701,-1.54965
1181,-4,-11,9,-3,-3,-1,-2,-4,0.915039,-0.112305,0.199707,20.375,-17.1875,13.875,-0.426078,-1.3701,-1.54965
1189,-4,-21,-19,-3,1,0,-1,-1,0.953613,-0.112793,0.160645,20,-14.25,12.8125,-0.453758,-1.37251,-1.51411
1189,-6,-10,-6,-7,-5,-5,-3,-3,0.953613,-0.112793,0.160645,20,-14.25,12.8125,-0.453758,-1.37251,-1.51411
1204,-3,-5,6,-3,-3,-2,-2,-3,0.953613,-0.112793,0.160645,20,-14.25,12.8125,-0.453758,-1.37251,-1.51411
1204,-2,-2,-3,1,0,-1,0,-1,0.953613,-0.112793,0.160645,20,-14.25,12.8125,-0.453758,-1.37251,-1.51411
1207,0,10,4,2,2,-1,-1,-1,0.970703,-0.144531,0.15625,23.8125,-15.0625,14.1875,-0.486009,-1.37446,-1.47281
1207,4,18,-10,4,2,1,3,2,0.970703,-0.144531,0.15625,23.8125,-15.0625,14.1875,-0.486009,-1.37446,-1.47281
1227,1,36,12,-2,1,0,-2,1,0.970703,-0.144531,0.15625,23.8125,-15.0625,14.1875,-0.486009,-1.37446,-1.47281
1227,-5,-20,-17,-8,-5,-3,0,1,0.970703,-0.144531,0.15625,23.8125,-15.0625,14.1875,-0.486009,-1.37446,-1.47281
1228,-2,18,6,0,-1,-1,0,0,0.991211,-0.130859,0.135254,23,-15.0625,16.0625,-0.521616,-1.37713,-1.42932
1228,5,3,15,4,-1,1,-4,-8,0.991211,-0.130859,0.135254,23,-15.0625,16.0625,-0.521616,-1.37713,-1.42932
1241,0,-10,-23,0,2,-3,-1,9,0.991211,-0.130859,0.135254,23,-15.0625,16.0625,-0.521616,-1.37713,-1.42932
1241,0,5,-3,-2,0,1,1,1,0.991211,-0.130859,0.135254,23,-15.0625,16.0625,-0.521616,-1.37713,-1.42932
1249,-3,-20,4,-4,-2,-2,-3,-5,1.01465,-0.14209,0.133789,23.0625,-15.75,16.4375,-0.559137,-1.37898,-1.38281
1249,1,1,6,-4,-3,-1,-2,-4,1.01465,-0.14209,0.133789,23.0625,-15.75,16.4375,-0.559137,-1.37898,-1.38281
1264,-1,-5,1,2,-2,-1,0,-2,1.01465,-0.14209,0.133789,23.0625,-15.75,16.4375,-0.559137,-1.37898,-1.38281
1264,-1,-11,-26,0,-3,-3,-2,0,1.01465,-0.14209,0.133789,23.0625,-15.75,16.4375,-0.559137,-1.37898,-1.38281
1272,-1,7,22,-1,-1,-1,0,-1,1.05176,-0.144043,0.131348,16.6875,-14.625,15.9375,-0.597732,-1.38038,-1.33744
1272,-1,1,3,-1,-1,2,1,1,1.05176,-0.144043,0.131348,16.6875,-14.625,15.9375,-0.597732,-1.38038,-1.33744
1287,-1,0,2,-1,0,1,-2,-5,1.05176,-0.144043,0.131348,16.6875,-14.625,15.9375,-0.597732,-1.38038,-1.33744
1287,3,13,6,7,3,1,1,4,1.05176,-0.144043,0.131348,16.6875,-14.625,15.9375,-0.597732,-1.38038,-1.33744
1289,-12,-64,-30,-13,-5,-4,-5,-7,1.06445,-0.121094,0.0961914,10.125,-13.4375,14.125,-0.634476,-1.38312,-1.2974
1289,-9,-7,24,-4,-6,-5,-2,-2,1.06445,-0.121094,0.0961914,10.125,-13.4375,14.125,-0.634476,-1.38312,-1.2974
1301,-11,-20,-15,-8,-6,-3,-3,-4,1.06445,-0.121094,0.0961914,10.125,-13.4375,14.125,-0.634476,-1.38312,-1.2974
1301,2,31,15,1,1,0,-1,-2,1.06445,-0.121094,0.0961914,10.125,-13.4375,14.125,-0.634476,-1.38312,-1.2974
1310,7,15,1,6,2,1,2,3,1.02734,-0.123535,0.103027,2.0625,-13.625,15.875,-0.676141,-1.3841,-1.25409
1310,3,1,-2,4,3,-1,2,2,1.02734,-0.123535,0.103027,2.0625,-13.625,15.875,-0.676141,-1.3841,-1.25409
1325,1,-3,2,-1,-2,-1,-1,0,1.02734,-0.123535,0.103027,2.0625,-13.625,15.875,-0.676141,-1.3841,-1.25409
1325,3,4,19,3,-1,0,-2,-1,1.02734,-0.123535,0.103027,2.0625,-13.625,15.875,-0.676141,-1.3841,-1.25409
1326,3,7,-28,1,-2,1,-3,-1,1.0166,-0.12207,0.0541992,-6.25,-11.3125,16.9375,-0.722842,-1.38483,-1.20859
1326,-6,-18,-17,-4,-2,-1,0,-2,1.0166,-0.12207,0.0541992,-6.25,-11.3125,16.9375,-0.722842,-1.38483,-1.20859
1347,3,12,14,6,1,1,0,-1,1.0166,-0.12207,0.0541992,-6.25,-11.3125,16.9375,-0.722842,-1.38483,-1.20859
1347,0,-12,10,-2,-2,0,0,-1,1.0166,-0.12207,0.0541992,-6.25,-11.3125,16.9375,-0.722842,-1.38483,-1.20859
1349,0,22,10,3,2,1,-1,1,1.00879,-0.134277,0.0683594,1.375,-9.9375,16.125,-0.763564,-1.38485,-1.16718
1349,1,0,-20,-2,-1,-1,-1,0,1.00879,-0.134277,0.0683594,1.375,-9.9375,16.125,-0.763564,-1.38485,-1.16718
1361,4,22,7,-4,0,0,2,-1,1.00879,-0.134277,0.0683594,1.375,-9.9375,16.125,-0.763564,-1.38485,-1.16718
1361,-8,8,-9,-1,-3,-4,-3,-6,1.00879,-0.134277,0.0683594,1.375,-9.9375,16.125,-0.763564,-1.38485,-1.16718
1378,8,20,22,4,0,0,2,6,1.01709,-0.123535,0.0805664,-1.375,-8.0625,12.4375,-0.794419,-1.38465,-1.13587
1378,-7,-19,-23,-6,-1,-2,-4,-2,1.01709,-0.123535,0.0805664,-1.375,-8.0625,12.4375,-0.794419,-1.38465,-1.13587
1385,1,-8,8,0,3,0,0,0,1.01709,-0.123535,0.0805664,-1.375,-8.0625,12.4375,-0.794419,-1.38465,-1.13587
1385,-2,-26,-24,-2,1,-2,-1,-1,1.01709,-0.123535,0.0805664,-1.375,-8.0625,12.4375,-0.794419,-1.38465,-1.13587
1386,-4,-27,-1,-4,-3,-3,-1,-2,1.00781,-0.115723,0.0600586,-5.4375,-7.4375,9.9375,-0.823288,-1.38556,-1.10869
1386,1,12,14,5,0,0,2,3,1.00781,-0.115723,0.0600586,-5.4375,-7.4375,9.9375,-0.823288,-1.38556,-1.10869
1408,-1,11,-41,0,0,0,-1,0,1.00781,-0.115723,0.0600586,-5.4375,-7.4375,9.9375,-0.823288,-1.38556,-1.10869
1408,-8,-60,25,-4,-5,-1,-1,-2,1.00781,-0.115723,0.0600586,-5.4375,-7.4375,9.9375,-0.823288,-1.38556,-1.10869
1408,-8,55,-18,4,-4,-4,-4,-5,1.0166,-0.112305,0.0419922,-7.8125,-6.0625,7.25,-0.849159,-1.38707,-1.08556
1408,-1,-36,9,-5,-5,-1,-3,-1,1.0166,-0.112305,0.0419922,-7.8125,-6.0625,7.25,-0.849159,-1.38707,-1.08556
1421,7,19,13,2,-1,0,2,5,1.0166,-0.112305,0.0419922,-7.8125,-6.0625,7.25,-0.849159,-1.38707,-1.08556
1421,7,-9,-1,2,0,0,-2,-3,1.0166,-0.112305,0.0419922,-7.8125,-6.0625,7.25,-0.849159,-1.38707,-1.08556
1430,-1,-21,-4,-1,1,2,0,-1,1.02393,-0.139648,0.012207,-11.875,-3.75,5.875,-0.876217,-1.38839,-1.0628
1430,1,35,5,0,1,-2,-1,-1,1.02393,-0.139648,0.012207,-11.875,-3.75,5.875,-0.876217,-1.38839,-1.0628
1445,-6,6,-2,0,-2,2,2,-1,1.02393,-0.139648,0.012207,-11.875,-3.75,5.875,-0.876217,-1.38839,-1.0628
1445,-2,10,-10,-3,1,0,-2,0,1.02393,-0.139648,0.012207,-11.875,-3.75,5.875,-0.876217,-1.38839,-1.0628
1446,3,12,20,-2,1,1,-1,-1,1.01074,-0.172363,0.0361328,-10.0625,-0.875,5.375,-0.89795,-1.3876,-1.04421
1446,0,4,-16,-4,1,1,0,2,1.01074,-0.172363,0.0361328,-10.0625,-0.875,5.375,-0.89795,-1.3876,-1.04421
1467,-1,-7,10,-1,-2,-5,-2,-2,1.01074,-0.172363,0.0361328,-10.0625,-0.875,5.375,-0.89795,-1.3876,-1.04421
1467,0,33,-5,2,2,-1,1,0,1.01074,-0.172363,0.0361328,-10.0625,-0.875,5.375,-0.89795,-1.3876,-1.04421
1475,-1,2,-8,-3,-4,-3,-2,-1,1.01221,-0.195312,0.0419922,-0.6875,-1.0625,3.125,-0.915265,-1.38707,-1.02721
1475,0,24,1,-2,2,0,-2,0,1.01221,-0.195312,0.0419922,-0.6875,-1.0625,3.125,-0.915265,-1.38707,-1.02721
1481,-5,0,-2,-2,-4,-1,-3,-3,1.01221,-0.195312,0.0419922,-0.6875,-1.0625,3.125,-0.915265,-1.38707,-1.02721
1481,-2,0,-4,-2,-4,-1,-2,-1,1.01221,-0.195312,0.0419922,-0.6875,-1.0625,3.125,-0.915265,-1.38707,-1.02721
1490,-1,0,2,2,0,1,-1,1,1.04053,-0.150879,0.0395508,5.0625,-0.875,-3.625,-0.91868,-1.38968,-1.02257
1490,5,17,21,6,3,2,1,3,1.04053,-0.150879,0.0395508,5.0625,-0.875,-3.625,-0.91868,-1.38968,-1.02257
1505,-4,4,-37,-5,0,-1,-3,-5,1.04053,-0.150879,0.0395508,5.0625,-0.875,-3.625,-0.91868,-1.38968,-1.02257
1505,-4,6,17,-2,-2,-2,-2,-2,1.04053,-0.150879,0.0395508,5.0625,-0.875,-3.625,-0.91868,-1.38968,-1.02257
1506,0,-12,-7,-1,-1,-1,-1,-1,1.0752,-0.116699,0.0244141,2.25,-0.125,-11.375,-0.912358,-1.39526,-1.02912
1506,-2,3,5,-3,-3,-2,-1,-2,1.0752,-0.116699,0.0244141,2.25,-0.125,-11.375,-0.912358,-1.39526,-1.02912
1527,9,-2,14,3,0,4,0,3,1.0752,-0.116699,0.0244141,2.25,-0.125,-11.375,-0.912358,-1.39526,-1.02912
1527,2,-5,-9,-3,-2,-1,-1,1,1.0752,-0.116699,0.0244141,2.25,-0.125,-11.375,-0.912358,-1.39526,-1.02912
1529,0,1,-10,-2,0,0,-1,-2,1.08984,-0.0991211,0.0380859,-1.25,-1.4375,-16.75,-0.89873,-1.40175,-1.04275
1529,2,8,1,2,-1,-1,0,-2,1.08984,-0.0991211,0.0380859,-1.25,-1.4375,-16.75,-0.89873,-1.40175,-1.04275
1550,6,0,18,-1,-1,2,0,0,1.08984,-0.0991211,0.0380859,-1.25,-1.4375,-16.75,-0.89873,-1.40175,-1.04275
1550,-5,6,-16,-2,-3,-3,-3,-2,1.08984,-0.0991211,0.0380859,-1.25,-1.4375,-16.75,-0.89873,-1.40175,-1.04275
1551,1,-7,12,0,-3,0,-1,-2,1.08496,-0.114258,0.000488281,-11.8125,0.625,-16.1875,-0.891295,-1.40831,-1.05489
1551,-1,3,-24,-3,1,-2,0,1,1.08496,-0.114258,0.000488281,-11.8125,0.625,-16.1875,-0.891295,-1.40831,-1.05489
1564,-1,5,30,-2,3,0,-2,-1,1.08496,-0.114258,0.000488281,-11.8125,0.625,-16.1875,-0.891295,-1.40831,-1.05489
1564,-1,-9,2,-4,-1,-1,0,-1,1.08496,-0.114258,0.000488281,-11.8125,0.625,-16.1875,-0.891295,-1.40831,-1.05489
1571,-4,-13,-13,-5,-3,-3,-2,-1,1.06641,-0.134766,-0.0107422,-13.0625,1.0625,-15.1875,-0.88823,-1.41398,-1.06314
1571,2,-10,-6,6,0,0,-1,0,1.06641,-0.134766,-0.0107422,-13.0625,1.0625,-15.1875,-0.88823,-1.41398,-1.06314
1587,-3,17,0,-4,-1,-1,0,-2,1.06641,-0.134766,-0.0107422,-13.0625,1.0625,-15.1875,-0.88823,-1.41398,-1.06314
1587,-2,-20,-19,-4,-2,-2,-1,-3,1.06641,-0.134766,-0.0107422,-13.0625,1.0625,-15.1875,-0.88823,-1.41398,-1.06314
1588,2,-2,-4,-1,-1,-3,1,-1,1.07227,-0.125488,0.00683594,-10.4375,1.875,-15.375,-0.878139,-1.41922,-1.07731
1588,-2,-1,5,-2,-4,0,-1,-2,1.07227,-0.125488,0.00683594,-10.4375,1.875,-15.375,-0.878139,-1.41922,-1.07731
1601,-7,-12,8,2,0,-1,-1,-2,1.07227,-0.125488,0.00683594,-10.4375,1.875,-15.375,-0.878139,-1.41922,-1.07731
1601,2,-3,-7,-3,0,0,-1,1,1.07227,-0.125488,0.00683594,-10.4375,1.875,-15.375,-0.878139,-1.41922,-1.07731
1610,-7,9,5,1,-3,-2,-2,-1,1.10107,-0.151855,-0.0209961,-3,-0.0625,-15.6875,-0.875049,-1.42492,-1.08197
1610,3,-9,1,-1,0,-2,-1,1,1.10107,-0.151855,-0.0209961,-3,-0.0625,-15.6875,-0.875049,-1.42492,-1.08197
1625,-2,-14,-5,-4,0,-2,-1,-2,1.10107,-0.151855,-0.0209961,-3,-0.0625,-15.6875,-0.875049,-1.42492,-1.08197
1625,2,-2,3,2,1,0,2,2,1.10107,-0.151855,-0.0209961,-3,-0.0625,-15.6875,-0.875049,-1.42492,-1.08197
1626,1,-14,-1,-5,-2,-2,-1,-2,1.10693,-0.115234,-0.0517578,-4,0.125,-15.6875,-0.871131,-1.43151,-1.08775
1626,0,3,-3,-5,-2,-1,0,0,1.10693,-0.115234,-0.0517578,-4,0.125,-15.6875,-0.871131,-1.43151,-1.08775
1648,-8,-13,-9,-1,-3,-2,-1,-7,1.10693,-0.115234,-0.0517578,-4,0.125,-15.6875,-0.871131,-1.43151,-1.08775
1648,0,-6,15,0,-2,0,-2,0,1.10693,-0.115234,-0.0517578,-4,0.125,-15.6875,-0.871131,-1.43151,-1.08775
1649,0,-10,13,3,-1,-2,-2,0,1.10059,-0.11084,-0.059082,1.875,1.6875,-13.0625,-0.867573,-1.43768,-1.09202
1649,3,4,-7,1,-1,-1,0,2,1.10059,-0.11084,-0.059082,1.875,1.6875,-13.0625,-0.867573,-1.43768,-1.09202
1661,-8,6,-11,2,-1,-3,-2,-5,1.10059,-0.11084,-0.059082,1.875,1.6875,-13.0625,-0.867573,-1.43768,-1.09202
1661,3,-27,7,7,1,1,-2,4,1.10059,-0.11084,-0.059082,1.875,1.6875,-13.0625,-0.867573,-1.43768,-1.09202
1670,7,-1,-20,0,3,0,0,2,1.09375,-0.114746,-0.0639648,12.6875,3.5,-8.25,-0.864575,-1.4408,-1.09005
1670,-8,7,11,-5,-2,-1,0,-7,1.09375,-0.114746,-0.0639648,12.6875,3.5,-8.25,-0.864575,-1.4408,-1.09005
1685,-3,14,-12,-6,-2,-2,-3,8,1.09375,-0.114746,-0.0639648,12.6875,3.5,-8.25,-0.864575,-1.4408,-1.09005
1685,1,-27,-10,-4,-1,-1,-2,-10,1.09375,-0.114746,-0.0639648,12.6875,3.5,-8.25,-0.864575,-1.4408,-1.09005
1686,-3,-18,11,-2,-3,0,-1,3,1.12842,-0.0727539,-0.0297852,15.1875,5.875,-11.6875,-0.8402,-1.44515,-1.10937
1686,6,-3,3,1,-1,1,0,4,1.12842,-0.0727539,-0.0297852,15.1875,5.875,-11.6875,-0.8402,-1.44515,-1.10937
1707,4,-1,0,6,3,2,4,-1,1.12842,-0.0727539,-0.0297852,15.1875,5.875,-11.6875,-0.8402,-1.44515,-1.10937
1707,-8,37,23,4,-1,-1,-1,0,1.12842,-0.0727539,-0.0297852,15.1875,5.875,-11.6875,-0.8402,-1.44515,-1.10937
1709,-11,-50,-18,-14,-10,-9,-9,-5,1.11279,-0.149902,-0.0288086,7.4375,6.4375,-9.0625,-0.831753,-1.44691,-1.1152
1709,1,-2,-8,0,-2,1,-1,1,1.11279,-0.149902,-0.0288086,7.4375,6.4375,-9.0625,-0.831753,-1.44691,-1.1152
1721,14,-16,6,5,2,3,3,7,1.11279,-0.149902,-0.0288086,7.4375,6.4375,-9.0625,-0.831753,-1.44691,-1.1152
1721,-13,-5,-12,-1,1,-1,0,-9,1.11279,-0.149902,-0.0288086,7.4375,6.4375,-9.0625,-0.831753,-1.44691,-1.1152
1730,3,22,-6,-3,-1,-3,-1,1,1.10986,-0.162598,0.00878906,-3,8.0625,-4.25,-0.828381,-1.44674,-1.1205
1730,0,-3,16,-4,-1,-3,-5,-2,1.10986,-0.162598,0.00878906,-3,8.0625,-4.25,-0.828381,-1.44674,-1.1205
1744,-5,-18,-10,-3,-3,-6,-2,-3,1.10986,-0.162598,0.00878906,-3,8.0625,-4.25,-0.828381,-1.44674,-1.1205
1744,10,7,-6,7,3,3,6,7,1.10986,-0.162598,0.00878906,-3,8.0625,-4.25,-0.828381,-1.44674,-1.1205
1752,-2,2,-1,2,2,1,-1,-4,1.08789,-0.183594,0.00292969,1.5625,11.5,1.1875,-0.830074,-1.44334,-1.11792
1752,0,3,3,1,2,0,1,-3,1.08789,-0.183594,0.00292969,1.5625,11.5,1.1875,-0.830074,-1.44334,-1.11792
1768,1,11,7,-2,-2,-2,0,1,1.08789,-0.183594,0.00292969,1.5625,11.5,1.1875,-0.830074,-1.44334,-1.11792
1768,-2,-5,-8,-3,-1,-2,3,0,1.08789,-0.183594,0.00292969,1.5625,11.5,1.1875,-0.830074,-1.44334,-1.11792
1769,0,18,8,5,4,1,3,-1,1.06104,-0.148926,0.00927734,-0.625,16.5625,3.625,-0.821906,-1.43934,-1.12708
1769,3,13,-3,3,1,2,1,4,1.06104,-0.148926,0.00927734,-0.625,16.5625,3.625,-0.821906,-1.43934,-1.12708
1781,-2,2,2,-1,1,2,-1,-1,1.06104,-0.148926,0.00927734,-0.625,16.5625,3.625,-0.821906,-1.43934,-1.12708
1781,-15,13,-10,-9,-8,-7,-12,-21,1.06104,-0.148926,0.00927734,-0.625,16.5625,3.625,-0.821906,-1.43934,-1.12708
1790,1,22,3,-1,-3,-3,-1,0,1.06641,-0.0546875,0.0683594,-3.5625,16.9375,0.3125,-0.790754,-1.43679,-1.16
1790,-6,8,-3,-1,2,0,-1,-3,1.06641,-0.0546875,0.0683594,-3.5625,16.9375,0.3125,-0.790754,-1.43679,-1.16
1805,0,0,-8,-1,-1,-1,-2,-3,1.06641,-0.0546875,0.0683594,-3.5625,16.9375,0.3125,-0.790754,-1.43679,-1.16
1805,12,14,9,3,1,1,0,6,1.06641,-0.0546875,0.0683594,-3.5625,16.9375,0.3125,-0.790754,-1.43679,-1.16
1811,-3,-1,10,0,0,3,-1,-5,1.0376,-0.0219727,0.138672,-14.5,15.4375,-8.875,-0.737965,-1.43594,-1.21861
1811,-5,12,-4,-6,-2,-3,0,-2,1.0376,-0.0219727,0.138672,-14.5,15.4375,-8.875,-0.737965,-1.43594,-1.21861
1827,0,20,11,-3,-4,-4,-2,0,1.0376,-0.0219727,0.138672,-14.5,15.4375,-8.875,-0.737965,-1.43594,-1.21861
1827,3,4,-6,-3,-3,-2,1,5,1.0376,-0.0219727,0.138672,-14.5,15.4375,-8.875,-0.737965,-1.43594,-1.21861
1829,-4,-19,3,1,1,1,0,-3,0.977539,-0.0839844,0.144531,-36.1875,12.75,-11.6875,-0.700966,-1.43398,-1.26772
1829,-5,33,-12,6,6,1,1,-1,0.977539,-0.0839844,0.144531,-36.1875,12.75,-11.6875,-0.700966,-1.43398,-1.26772
1849,0,-7,3,2,0,1,1,0,0.977539,-0.0839844,0.144531,-36.1875,12.75,-11.6875,-0.700966,-1.43398,-1.26772
1849,4,17,-11,3,1,2,2,2,0.977539,-0.0839844,0.144531,-36.1875,12.75,-11.6875,-0.700966,-1.43398,-1.26772
1852,-9,9,-12,-9,-8,-4,-4,-7,0.995605,-0.0908203,0.140625,-24.25,5.125,-8.25,-0.681464,-1.43354,-1.29563
1852,-2,4,4,-4,-5,-2,0,-3,0.995605,-0.0908203,0.140625,-24.25,5.125,-8.25,-0.681464,-1.43354,-1.29563
1864,-2,14,-2,-4,-1,-3,-3,-3,0.995605,-0.0908203,0.140625,-24.25,5.125,-8.25,-0.681464,-1.43354,-1.29563
1864,-3,-3,0,-4,-2,-5,-4,1,0.995605,-0.0908203,0.140625,-24.25,5.125,-8.25,-0.681464,-1.43354,-1.29563
1871,6,11,3,-3,2,4,4,3,1.06689,-0.0913086,0.0756836,-30.75,8.9375,-4.75,-0.673278,-1.43302,-1.31491
1871,-2,9,0,3,0,-2,-2,-1,1.06689,-0.0913086,0.0756836,-30.75,8.9375,-4.75,-0.673278,-1.43302,-1.31491
1888,-2,-6,-5,-2,0,-3,0,-1,1.06689,-0.0913086,0.0756836,-30.75,8.9375,-4.75,-0.673278,-1.43302,-1.31491
1888,-1,4,-7,-1,-4,-3,-3,-1,1.06689,-0.0913086,0.0756836,-30.75,8.9375,-4.75,-0.673278,-1.43302,-1.31491
1889,4,22,7,7,-1,0,0,2,1.06641,-0.130859,0.0742188,-35,14.9375,1.5625,-0.675236,-1.42913,-1.32584
1889,-4,5,-5,-11,-6,-4,-3,-4,1.06641,-0.130859,0.0742188,-35,14.9375,1.5625,-0.675236,-1.42913,-1.32584
1910,-1,-6,-2,-6,-1,-2,0,-1,1.06641,-0.130859,0.0742188,-35,14.9375,1.5625,-0.675236,-1.42913,-1.32584
1910,-4,1,1,11,6,1,-1,1,1.06641,-0.130859,0.0742188,-35,14.9375,1.5625,-0.675236,-1.42913,-1.32584
1912,5,13,-2,7,3,0,0,2,1.06104,-0.171387,0.081543,-27.5,19.4375,3.3125,-0.676122,-1.4227,-1.33486
1912,-3,-3,3,0,-2,-1,-2,-7,1.06104,-0.171387,0.081543,-27.5,19.4375,3.3125,-0.676122,-1.4227,-1.33486
1924,21,-5,-3,-4,-2,0,-1,2,1.06104,-0.171387,0.081543,-27.5,19.4375,3.3125,-0.676122,-1.4227,-1.33486
1924,-27,0,-2,-6,-1,-2,-1,-8,1.06104,-0.171387,0.081543,-27.5,19.4375,3.3125,-0.676122,-1.4227,-1.33486
1931,-5,15,-4,1,-1,1,-1,0,1.10059,-0.13916,0.081543,-19.5,24.125,2.6875,-0.663033,-1.4159,-1.35489
1931,0,1,3,-5,-4,-1,3,8,1.10059,-0.13916,0.081543,-19.5,24.125,2.6875,-0.663033,-1.4159,-1.35489
1947,15,-8,0,-5,-1,-1,-1,-2,1.10059,-0.13916,0.081543,-19.5,24.125,2.6875,-0.663033,-1.4159,-1.35489
1947,3,-5,-5,-4,-1,-1,-3,-11,1.10059,-0.13916,0.081543,-19.5,24.125,2.6875,-0.663033,-1.4159,-1.35489
1949,-20,6,7,6,0,-1,-2,1,1.12695,-0.119629,0.111328,-19.9375,31.1875,0.375,-0.635206,-1.40769,-1.39025
1949,1,-31,-5,1,0,-2,-2,0,1.12695,-0.119629,0.111328,-19.9375,31.1875,0.375,-0.635206,-1.40769,-1.39025
1970,-4,-17,-1,-2,-2,0,1,6,1.12695,-0.119629,0.111328,-19.9375,31.1875,0.375,-0.635206,-1.40769,-1.39025
1970,20,4,4,-7,-3,-1,0,8,1.12695,-0.119629,0.111328,-19.9375,31.1875,0.375,-0.635206,-1.40769,-1.39025
1971,14,-1,-5,-9,-1,0,-1,2,1.09473,-0.109375,0.13916,-23.375,36.5,4.3125,-0.608481,-1.39706,-1.4259
1971,-1,10,0,3,3,-1,1,4,1.09473,-0.109375,0.13916,-23.375,36.5,4.3125,-0.608481,-1.39706,-1.4259
1985,-13,6,5,8,1,-3,-5,-8,1.09473,-0.109375,0.13916,-23.375,36.5,4.3125,-0.608481,-1.39706,-1.4259
1985,-4,-6,-2,0,0,0,-3,-3,1.09473,-0.109375,0.13916,-23.375,36.5,4.3125,-0.608481,-1.39706,-1.4259
1991,2,-1,1,-1,0,-1,-3,-4,1.04102,-0.116699,0.17041,-26.375,37.625,7.1875,-0.588083,-1.38408,-1.45539
1991,10,-13,1,1,0,3,4,8,1.04102,-0.116699,0.17041,-26.375,37.625,7.1875,-0.588083,-1.38408,-1.45539
2007,-12,-12,-3,-4,-3,-2,0,0,1.04102,-0.116699,0.17041,-26.375,37.625,7.1875,-0.588083,-1.38408,-1.45539
2007,-5,-18,-2,-4,-3,-3,-3,-6,1.04102,-0.116699,0.17041,-26.375,37.625,7.1875,-0.588083,-1.38408,-1.45539
2009,-4,-9,1,-1,1,0,0,-10,1.0166,-0.115234,0.200195,-32.9375,38.875,6.4375,-0.570215,-1.37114,-1.48567
2009,6,-13,-2,2,1,0,-1,1,1.0166,-0.115234,0.200195,-32.9375,38.875,6.4375,-0.570215,-1.37114,-1.48567
2030,1,-1,0,2,0,1,9,25,1.0166,-0.115234,0.200195,-32.9375,38.875,6.4375,-0.570215,-1.37114,-1.48567
2030,-2,15,1,0,-1,0,-1,-13,1.0166,-0.115234,0.200195,-32.9375,38.875,6.4375,-0.570215,-1.37114,-1.48567
2032,-2,-6,-3,1,-4,-5,-1,-7,1.00049,-0.116699,0.236816,-42.375,42.75,8.5625,-0.556122,-1.35569,-1.51477
2032,-6,-12,-1,-8,-6,-4,-8,-13,1.00049,-0.116699,0.236816,-42.375,42.75,8.5625,-0.556122,-1.35569,-1.51477
2044,-4,-16,3,-2,-2,-2,-7,3,1.00049,-0.116699,0.236816,-42.375,42.75,8.5625,-0.556122,-1.35569,-1.51477
2044,8,-12,-2,0,-1,-1,-1,15,1.00049,-0.116699,0.236816,-42.375,42.75,8.5625,-0.556122,-1.35569,-1.51477
2051,-6,0,-1,-3,-1,0,5,-24,0.940918,-0.214844,0.26123,-36.25,45.3125,14.6875,-0.555856,-1.33693,-1.52821
2051,-1,-5,0,3,2,1,3,-9,0.940918,-0.214844,0.26123,-36.25,45.3125,14.6875,-0.555856,-1.33693,-1.52821
2067,-1,-4,-3,1,-2,0,0,-3,0.940918,-0.214844,0.26123,-36.25,45.3125,14.6875,-0.555856,-1.33693,-1.52821
2067,-5,-4,-4,-3,-3,-1,-3,8,0.940918,-0.214844,0.26123,-36.25,45.3125,14.6875,-0.555856,-1.33693,-1.52821
2069,-3,-3,-5,-3,0,-2,-4,-7,0.90918,-0.23584,0.261719,-25.5,45.75,19.5,-0.56014,-1.31691,-1.5332
2069,-2,-5,0,0,0,0,4,21,0.90918,-0.23584,0.261719,-25.5,45.75,19.5,-0.56014,-1.31691,-1.5332
2090,3,1,-4,2,0,-1,-1,-10,0.90918,-0.23584,0.261719,-25.5,45.75,19.5,-0.56014,-1.31691,-1.5332
2090,-4,6,0,4,-1,0,2,1,0.90918,-0.23584,0.261719,-25.5,45.75,19.5,-0.56014,-1.31691,-1.5332
2091,18,-4,1,-6,-3,0,3,13,0.918457,-0.166992,0.305176,-19.9375,45.6875,18.1875,-0.553873,-1.29804,-1.54679
2091,-26,-6,-1,-3,-2,-4,-12,-2,0.918457,-0.166992,0.305176,-19.9375,45.6875,18.1875,-0.553873,-1.29804,-1.54679
2104,-3,7,-2,5,0,-2,-4,-8,0.918457,-0.166992,0.305176,-19.9375,45.6875,18.1875,-0.553873,-1.29804,-1.54679
2104,6,11,3,2,3,3,5,1,0.918457,-0.166992,0.305176,-19.9375,45.6875,18.1875,-0.553873,-1.29804,-1.54679
2112,7,8,-3,-3,-2,-3,2,30,0.887207,-0.124023,0.306641,-16.0625,46.8125,19.75,-0.545606,-1.2793,-1.56123
2112,-9,4,1,-6,-3,-1,-4,-24,0.887207,-0.124023,0.306641,-16.0625,46.8125,19.75,-0.545606,-1.2793,-1.56123
2128,-19,4,-7,-11,-4,-5,-6,-25,0.887207,-0.124023,0.306641,-16.0625,46.8125,19.75,-0.545606,-1.2793,-1.56123
2128,2,1,-4,-8,-4,-4,-1,-3,0.887207,-0.124023,0.306641,-16.0625,46.8125,19.75,-0.545606,-1.2793,-1.56123
2129,24,6,1,16,8,8,2,14,0.861328,-0.169922,0.336426,-22,45.375,18.4375,-0.54233,-1.26004,-1.57249
2129,27,5,5,7,1,1,-1,-5,0.861328,-0.169922,0.336426,-22,45.375,18.4375,-0.54233,-1.26004,-1.57249
2150,-57,-3,-1,2,-3,-3,-4,-10,0.861328,-0.169922,0.336426,-22,45.375,18.4375,-0.54233,-1.26004,-1.57249
2150,-43,3,-6,-4,-3,-4,-2,2,0.861328,-0.169922,0.336426,-22,45.375,18.4375,-0.54233,-1.26004,-1.57249
2151,-9,1,8,-10,-7,-2,-5,0,0.891113,-0.203613,0.36377,-24.875,42.5,17.6875,-0.54266,-1.2413,-1.58089
2151,25,-3,-4,-3,-3,-2,4,22,0.891113,-0.203613,0.36377,-24.875,42.5,17.6875,-0.54266,-1.2413,-1.58089
2163,24,0,-5,0,3,3,6,-3,0.891113,-0.203613,0.36377,-24.875,42.5,17.6875,-0.54266,-1.2413,-1.58089
2163,-4,1,-3,0,0,-2,-10,-9,0.891113,-0.203613,0.36377,-24.875,42.5,17.6875,-0.54266,-1.2413,-1.58089
2172,-11,-9,0,13,2,1,5,9,0.910156,-0.245605,0.378418,-21.3125,42.125,24.875,-0.550595,-1.22161,-1.58066
2172,4,21,2,6,-2,-2,-4,-3,0.910156,-0.245605,0.378418,-21.3125,42.125,24.875,-0.550595,-1.22161,-1.58066
2187,2,1,6,3,-3,-1,0,1,0.910156,-0.245605,0.378418,-21.3125,42.125,24.875,-0.550595,-1.22161,-1.58066
2187,0,7,2,-3,-2,0,2,7,0.910156,-0.245605,0.378418,-21.3125,42.125,24.875,-0.550595,-1.22161,-1.58066
2188,15,8,0,-7,-2,-2,-5,-12,0.899902,-0.250488,0.401367,-15.4375,41.6875,28.125,-0.557582,-1.20122,-1.57888
2188,-36,5,1,17,0,0,2,-10,0.899902,-0.250488,0.401367,-15.4375,41.6875,28.125,-0.557582,-1.20122,-1.57888
2210,6,-3,1,20,2,0,-1,1,0.899902,-0.250488,0.401367,-15.4375,41.6875,28.125,-0.557582,-1.20122,-1.57888
2210,12,-2,-3,9,-1,0,-1,-3,0.899902,-0.250488,0.401367,-15.4375,41.6875,28.125,-0.557582,-1.20122,-1.57888
2211,5,0,0,2,1,3,0,-6,0.843262,-0.260742,0.421875,-2.375,39.5,30.75,-0.562669,-1.18025,-1.57396
2211,53,-9,7,-14,2,6,8,34,0.843262,-0.260742,0.421875,-2.375,39.5,30.75,-0.562669,-1.18025,-1.57396
2224,-73,18,-19,-16,-2,-7,-16,-44,0.843262,-0.260742,0.421875,-2.375,39.5,30.75,-0.562669,-1.18025,-1.57396
2224,12,5,8,-7,-2,-3,0,14,0.843262,-0.260742,0.421875,-2.375,39.5,30.75,-0.562669,-1.18025,-1.57396
2232,10,-90,-1,-10,-2,-2,-4,5,0.780762,-0.254883,0.46875,2.1875,36.3125,30.125,-0.564572,-1.15967,-1.57079
2232,6,-93,-16,-21,-7,-5,-2,-47,0.780762,-0.254883,0.46875,2.1875,36.3125,30.125,-0.564572,-1.15967,-1.57079
2247,42,-54,17,3,5,7,12,51,0.780762,-0.254883,0.46875,2.1875,36.3125,30.125,-0.564572,-1.15967,-1.57079
2247,-12,12,45,-2,4,1,-6,-13,0.780762,-0.254883,0.46875,2.1875,36.3125,30.125,-0.564572,-1.15967,-1.57079
2248,-27,56,-88,-8,-5,-7,-6,-6,0.757812,-0.313477,0.538086,18.1875,31.5,31.5625,-0.564597,-1.13832,-1.56357
2248,65,47,2,-12,-4,1,0,13,0.757812,-0.313477,0.538086,18.1875,31.5,31.5625,-0.564597,-1.13832,-1.56357
2270,26,9,-26,2,0,6,12,32,0.757812,-0.313477,0.538086,18.1875,31.5,31.5625,-0.564597,-1.13832,-1.56357
2270,-100,49,30,-7,-5,-7,7,-46,0.757812,-0.313477,0.538086,18.1875,31.5,31.5625,-0.564597,-1.13832,-1.56357
2271,25,29,39,6,5,3,1,21,0.80127,-0.395508,0.607422,33.3125,27.1875,36.125,-0.565127,-1.11618,-1.55022
2271,106,3,-9,17,14,12,6,15,0.80127,-0.395508,0.607422,33.3125,27.1875,36.125,-0.565127,-1.11618,-1.55022
2284,-57,-6,-9,0,2,7,7,-20,0.80127,-0.395508,0.607422,33.3125,27.1875,36.125,-0.565127,-1.11618,-1.55022
2284,-66,11,-13,-6,-8,-16,-28,-71,0.80127,-0.395508,0.607422,33.3125,27.1875,36.125,-0.565127,-1.11618,-1.55022
2293,-22,21,2,3,7,1,-11,-49,0.779297,-0.446777,0.697266,51.9375,10.5,51.5,-0.573378,-1.09413,-1.5207
2293,34,20,8,-32,-21,-23,-17,0,0.779297,-0.446777,0.697266,51.9375,10.5,51.5,-0.573378,-1.09413,-1.5207
2308,40,16,16,-17,-23,-14,-1,-36,0.779297,-0.446777,0.697266,51.9375,10.5,51.5,-0.573378,-1.09413,-1.5207
2308,60,-18,-47,-7,2,15,13,30,0.779297,-0.446777,0.697266,51.9375,10.5,51.5,-0.573378,-1.09413,-1.5207
2310,-42,38,40,9,6,-1,22,45,0.749023,-0.458984,1.02002,89,-17.3125,52.625,-0.569386,-1.07394,-1.48794
2310,-64,-13,-15,2,-15,-14,-30,-7,0.749023,-0.458984,1.02002,89,-17.3125,52.625,-0.569386,-1.07394,-1.48794
2330,127,-27,-32,-27,3,24,14,120,0.749023,-0.458984,1.02002,89,-17.3125,52.625,-0.569386,-1.07394,-1.48794
2330,-69,-11,48,-15,-34,-16,3,-92,0.749023,-0.458984,1.02002,89,-17.3125,52.625,-0.569386,-1.07394,-1.48794
2331,11,-26,-22,-22,-29,1,-25,67,1.02295,-0.503906,1.10449,108.688,-47.0625,26.125,-0.56031,-1.07949,-1.45487
2331,55,25,-3,36,63,17,18,81,1.02295,-0.503906,1.10449,108.688,-47.0625,26.125,-0.56031,-1.07949,-1.45487
2344,-49,-18,85,103,69,22,17,-49,1.02295,-0.503906,1.10449,108.688,-47.0625,26.125,-0.56031,-1.07949,-1.45487
2344,127,-18,-99,-33,7,-4,-9,-5,1.02295,-0.503906,1.10449,108.688,-47.0625,26.125,-0.56031,-1.07949,-1.45487
2353,63,5,41,-80,-95,-39,-33,39,2.01953,-0.179199,0.962891,138.875,-39.5625,10.5625,-0.526842,-1.08995,-1.4365
2353,-128,36,-31,-128,-128,-50,-47,-128,2.01953,-0.179199,0.962891,138.875,-39.5625,10.5625,-0.526842,-1.08995,-1.4365
2367,127,-43,89,-9,77,30,9,70,2.01953,-0.179199,0.962891,138.875,-39.5625,10.5625,-0.526842,-1.08995,-1.4365
2367,127,38,29,110,127,88,11,127,2.01953,-0.179199,0.962891,138.875,-39.5625,10.5625,-0.526842,-1.08995,-1.4365
2369,-99,81,68,-79,6,-7,-54,-113,2.58203,-0.175293,0.781738,10.3125,28.4375,43.3125,-0.538261,-1.0737,-1.41944
2369,106,56,-74,-52,-95,-81,-43,-19,2.58203,-0.175293,0.781738,10.3125,28.4375,43.3125,-0.538261,-1.0737,-1.41944
2390,-23,-36,-97,-128,-128,-128,-71,-103,2.58203,-0.175293,0.781738,10.3125,28.4375,43.3125,-0.538261,-1.0737,-1.41944
2390,48,-70,36,-107,31,44,38,92,2.58203,-0.175293,0.781738,10.3125,28.4375,43.3125,-0.538261,-1.0737,-1.41944
2391,127,25,51,120,127,107,98,105,0.719238,-0.414551,0.441895,-72.625,13,88,-0.610044,-1.04926,-1.36753
2391,-128,86,127,-54,-62,-37,12,-25,0.719238,-0.414551,0.441895,-72.625,13,88,-0.610044,-1.04926,-1.36753
2411,60,2,-102,-30,-48,1,-23,-31,-0.392578,-0.610352,-1.12598,-60.25,-41.4375,25.6875,-0.716395,-1.06099,-1.28542
2411,-35,-73,-13,-101,29,-21,-23,94,-0.392578,-0.610352,-1.12598,-60.25,-41.4375,25.6875,-0.716395,-1.06099,-1.28542
2411,89,-69,-4,91,87,51,45,22,-0.392578,-0.610352,-1.12598,-60.25,-41.4375,25.6875,-0.716395,-1.06099,-1.28542
2411,-12,33,78,108,122,105,-19,-50,-0.392578,-0.610352,-1.12598,-60.25,-41.4375,25.6875,-0.716395,-1.06099,-1.28542
2420,81,74,8,-78,-69,-54,65,97,1.96094,-0.106445,-0.878906,108.562,-56.5625,-8.25,-0.697725,-1.07772,-1.26336
2420,-45,24,-43,-110,-128,-128,-88,-95,1.96094,-0.106445,-0.878906,108.562,-56.5625,-8.25,-0.697725,-1.07772,-1.26336
2425,-38,-68,-48,-99,28,-45,-10,16,1.96094,-0.106445,-0.878906,108.562,-56.5625,-8.25,-0.697725,-1.07772,-1.26336
2425,92,-128,8,122,127,66,21,54,1.96094,-0.106445,-0.878906,108.562,-56.5625,-8.25,-0.697725,-1.07772,-1.26336
2449,18,-16,8,112,105,46,50,37,1.62012,1.0332,-0.390137,100.375,55.375,-3.25,-0.639254,-1.06341,-1.29029
2449,10,96,9,22,-83,22,13,-32,1.62012,1.0332,-0.390137,100.375,55.375,-3.25,-0.639254,-1.06341,-1.29029
2450,-100,-8,-43,-114,-128,-66,-54,-60,1.62012,1.0332,-0.390137,100.375,55.375,-3.25,-0.639254,-1.06341,-1.29029
2450,-35,-45,-43,-94,8,-23,1,-1,1.62012,1.0332,-0.390137,100.375,55.375,-3.25,-0.639254,-1.06341,-1.29029
2464,-72,1,21,-11,-16,-17,-69,-76,1.63867,0.777832,0.421387,-75.4375,61.125,1,-0.599968,-1.06818,-1.35367
2464,21,-103,12,-8,43,22,45,44,1.63867,0.777832,0.421387,-75.4375,61.125,1,-0.599968,-1.06818,-1.35367
2465,127,-10,82,123,84,39,23,-42,1.63867,0.777832,0.421387,-75.4375,61.125,1,-0.599968,-1.06818,-1.35367
2465,-79,-15,-53,-33,21,27,39,14,1.63867,0.777832,0.421387,-75.4375,61.125,1,-0.599968,-1.06818,-1.35367
2479,-83,114,-16,-72,-59,-8,-7,31,1.77832,-0.0390625,0.776855,-80.8125,80.9375,25.625,-0.592875,-1.04765,-1.38832
2479,33,-7,-19,-22,-70,-32,0,-31,1.77832,-0.0390625,0.776855,-80.8125,80.9375,25.625,-0.592875,-1.04765,-1.38832
2486,42,-51,-50,-128,-127,-60,-17,29,1.77832,-0.0390625,0.776855,-80.8125,80.9375,25.625,-0.592875,-1.04765,-1.38832
2486,127,-59,-22,55,104,25,48,47,1.77832,-0.0390625,0.776855,-80.8125,80.9375,25.625,-0.592875,-1.04765,-1.38832
2502,-39,28,27,121,63,16,-34,12,1.23926,-0.325195,0.675293,7.625,90.625,22.3125,-0.567708,-1.01739,-1.4134
2502,39,20,13,58,-13,16,21,-4,1.23926,-0.325195,0.675293,7.625,90.625,22.3125,-0.567708,-1.01739,-1.4134
2502,-45,-6,-44,-31,-13,0,-6,-18,1.23926,-0.325195,0.675293,7.625,90.625,22.3125,-0.567708,-1.01739,-1.4134
2502,-6,-1,-12,-37,-57,-4,15,3,1.23926,-0.325195,0.675293,7.625,90.625,22.3125,-0.567708,-1.01739,-1.4134
2524,96,-13,-12,-10,-25,-19,-48,-40,0.926758,-0.32373,0.549316,30.1875,92,17.5625,-0.538669,-0.986248,-1.43503
2524,-89,40,-11,-4,8,-18,-5,15,0.926758,-0.32373,0.549316,30.1875,92,17.5625,-0.538669,-0.986248,-1.43503
2525,4,-17,13,94,68,34,39,-19,0.926758,-0.32373,0.549316,30.1875,92,17.5625,-0.538669,-0.986248,-1.43503
2525,-19,-51,23,38,-13,-6,1,44,0.926758,-0.32373,0.549316,30.1875,92,17.5625,-0.538669,-0.986248,-1.43503
2540,93,-128,41,-27,-6,20,45,-9,0.677734,-0.500977,0.491211,8.875,97.75,24.1875,-0.528909,-0.948734,-1.44628
2540,-12,-34,-30,-57,-20,-20,-54,44,0.677734,-0.500977,0.491211,8.875,97.75,24.1875,-0.528909,-0.948734,-1.44628
2546,-91,-28,-63,81,-32,-30,-23,-77,0.677734,-0.500977,0.491211,8.875,97.75,24.1875,-0.528909,-0.948734,-1.44628
2546,90,11,-28,-2,-6,-4,14,50,0.677734,-0.500977,0.491211,8.875,97.75,24.1875,-0.528909,-0.948734,-1.44628
2569,17,41,33,41,8,12,11,-18,0.31543,-0.519531,0.473145,0.9375,107.125,17.5,-0.512815,-0.911244,-1.46682
2569,37,58,-28,27,46,14,-11,-15,0.31543,-0.519531,0.473145,0.9375,107.125,17.5,-0.512815,-0.911244,-1.46682
2584,54,51,-25,-52,-32,5,16,46,0.31543,-0.519531,0.473145,0.9375,107.125,17.5,-0.512815,-0.911244,-1.46682
2584,-65,49,19,-28,-42,-18,-12,-41,0.31543,-0.519531,0.473145,0.9375,107.125,17.5,-0.512815,-0.911244,-1.46682
2592,-36,3,-19,30,53,20,3,33,0.129395,-0.526855,0.453613,1.625,119.938,13.875,-0.494962,-0.86986,-1.49049
2592,83,38,42,-16,-20,17,52,15,0.129395,-0.526855,0.453613,1.625,119.938,13.875,-0.494962,-0.86986,-1.49049
2592,19,31,5,0,-44,-32,-25,-2,0.129395,-0.526855,0.453613,1.625,119.938,13.875,-0.494962,-0.86986,-1.49049
2592,-52,32,23,-1,18,-5,-30,-51,0.129395,-0.526855,0.453613,1.625,119.938,13.875,-0.494962,-0.86986,-1.49049
2607,93,62,26,-9,7,20,-25,51,0.311523,-0.455078,0.351562,4.8125,129.875,16.0625,-0.47711,-0.825887,-1.51309
2607,-89,0,9,19,-13,-16,-22,-50,0.311523,-0.455078,0.351562,4.8125,129.875,16.0625,-0.47711,-0.825887,-1.51309
2608,89,17,-16,84,52,23,17,11,0.311523,-0.455078,0.351562,4.8125,129.875,16.0625,-0.47711,-0.825887,-1.51309
2608,126,-27,-2,47,-15,27,124,127,0.311523,-0.455078,0.351562,4.8125,129.875,16.0625,-0.47711,-0.825887,-1.51309
2629,28,9,44,-23,-27,-21,-107,-65,0.383301,-0.40625,0.345703,5.6875,136.25,14.4375,-0.45935,-0.780837,-1.5364
2629,-22,-20,-28,31,-3,-27,-35,-79,0.383301,-0.40625,0.345703,5.6875,136.25,14.4375,-0.45935,-0.780837,-1.5364
2629,93,2,27,-57,-12,-7,-8,15,0.383301,-0.40625,0.345703,5.6875,136.25,14.4375,-0.45935,-0.780837,-1.5364
2629,73,-7,-3,-63,-32,-12,-16,6,0.383301,-0.40625,0.345703,5.6875,136.25,14.4375,-0.45935,-0.780837,-1.5364
2660,31,-34,-87,-40,23,16,66,33,0.232422,-0.35498,0.355469,5.8125,132.188,12.625,-0.443348,-0.736379,-1.55753
2660,8,-2,17,-14,54,10,39,18,0.232422,-0.35498,0.355469,5.8125,132.188,12.625,-0.443348,-0.736379,-1.55753
2661,-33,-5,3,8,22,0,-33,-18,0.232422,-0.35498,0.355469,5.8125,132.188,12.625,-0.443348,-0.736379,-1.55753
2661,-18,12,24,87,60,32,35,-24,0.232422,-0.35498,0.355469,5.8125,132.188,12.625,-0.443348,-0.736379,-1.55753
2667,-58,19,-20,-82,-75,-40,-69,-47,0.28125,-0.314941,0.350098,-10.4375,125.438,14.875,-0.436053,-0.694144,-1.57532
2667,-47,21,29,2,-5,1,-24,-22,0.28125,-0.314941,0.350098,-10.4375,125.438,14.875,-0.436053,-0.694144,-1.57532
2667,57,22,31,45,64,4,12,26,0.28125,-0.314941,0.350098,-10.4375,125.438,14.875,-0.436053,-0.694144,-1.57532
2667,-71,-11,12,23,-23,0,-13,-68,0.28125,-0.314941,0.350098,-10.4375,125.438,14.875,-0.436053,-0.694144,-1.57532
2698,-34,-14,-50,-55,-39,-13,35,28,0.424805,-0.32373,0.326172,-21,118,15,-0.434318,-0.655016,-1.59074
2698,112,3,-14,8,-8,-11,-5,35,0.424805,-0.32373,0.326172,-21,118,15,-0.434318,-0.655016,-1.59074
2699,-110,-10,-22,-128,-95,-23,-3,-71,0.424805,-0.32373,0.326172,-21,118,15,-0.434318,-0.655016,-1.59074
2699,13,-26,7,41,14,18,-17,9,0.424805,-0.32373,0.326172,-21,118,15,-0.434318,-0.655016,-1.59074
2712,-12,1,12,53,83,-5,-15,-26,0.378418,-0.35791,0.40625,-18.375,111.438,12.3125,-0.432822,-0.617954,-1.60554
2712,77,2,51,-6,-15,9,19,38,0.378418,-0.35791,0.40625,-18.375,111.438,12.3125,-0.432822,-0.617954,-1.60554
2713,22,15,-22,45,-14,-3,-2,14,0.378418,-0.35791,0.40625,-18.375,111.438,12.3125,-0.432822,-0.617954,-1.60554
2713,23,-22,16,-127,-101,-40,-42,3,0.378418,-0.35791,0.40625,-18.375,111.438,12.3125,-0.432822,-0.617954,-1.60554
2727,-33,-42,-14,-23,41,11,87,-19,0.21582,-0.326172,0.516113,-26.6875,101.062,9.125,-0.434466,-0.583549,-1.61951
2727,58,18,48,127,127,-4,-18,24,0.21582,-0.326172,0.516113,-26.6875,101.062,9.125,-0.434466,-0.583549,-1.61951
2728,16,2,21,-37,-24,36,-18,-30,0.21582,-0.326172,0.516113,-26.6875,101.062,9.125,-0.434466,-0.583549,-1.61951
2728,9,8,-26,-60,-29,-21,-20,10,0.21582,-0.326172,0.516113,-26.6875,101.062,9.125,-0.434466,-0.583549,-1.61951
2749,81,6,-1,-80,-73,-9,50,40,0.251953,-0.353516,0.651367,-37.3125,85.3125,8.1875,-0.442214,-0.551203,-1.63092
2749,17,-16,-41,-2,-116,-17,22,18,0.251953,-0.353516,0.651367,-37.3125,85.3125,8.1875,-0.442214,-0.551203,-1.63092
2749,21,0,57,116,110,4,7,-16,0.251953,-0.353516,0.651367,-37.3125,85.3125,8.1875,-0.442214,-0.551203,-1.63092
2749,-79,19,-16,49,39,2,-1,30,0.251953,-0.353516,0.651367,-37.3125,85.3125,8.1875,-0.442214,-0.551203,-1.63092
2772,-16,-1,39,-43,-57,-8,31,12,0.410645,-0.386719,0.681641,-30.6875,67.625,14.375,-0.450972,-0.526719,-1.63678
2772,43,-20,-86,-83,-26,9,-61,8,0.410645,-0.386719,0.681641,-30.6875,67.625,14.375,-0.450972,-0.526719,-1.63678
2773,-18,-10,-20,-117,-112,-23,7,14,0.410645,-0.386719,0.681641,-30.6875,67.625,14.375,-0.450972,-0.526719,-1.63678
2773,18,-10,-53,26,53,2,-29,-51,0.410645,-0.386719,0.681641,-30.6875,67.625,14.375,-0.450972,-0.526719,-1.63678
2787,-68,3,67,127,120,47,15,-17,0.385742,-0.333496,0.655273,-18.6875,49.25,17.3125,-0.456605,-0.508128,-1.63908
2787,84,22,13,73,-21,40,2,30,0.385742,-0.333496,0.655273,-18.6875,49.25,17.3125,-0.456605,-0.508128,-1.63908
2788,-91,-5,-32,-112,-29,-41,-9,-17,0.385742,-0.333496,0.655273,-18.6875,49.25,17.3125,-0.456605,-0.508128,-1.63908
2788,25,-2,3,36,33,-10,10,-16,0.385742,-0.333496,0.655273,-18.6875,49.25,17.3125,-0.456605,-0.508128,-1.63908
2809,54,-4,-15,-2,-26,-7,-10,45,0.344727,-0.225098,0.601562,-23.875,38,14.4375,-0.462259,-0.494076,-1.64148
2809,-81,4,50,74,73,39,73,-65,0.344727,-0.225098,0.601562,-23.875,38,14.4375,-0.462259,-0.494076,-1.64148
2809,-19,11,-4,71,23,-12,-66,13,0.344727,-0.225098,0.601562,-23.875,38,14.4375,-0.462259,-0.494076,-1.64148
2809,32,-19,-40,-109,-111,-12,9,-34,0.344727,-0.225098,0.601562,-23.875,38,14.4375,-0.462259,-0.494076,-1.64148
2831,29,-1,-14,-92,40,-3,36,33,0.431152,-0.245605,0.598145,-31.1875,31.9375,4.25,-0.46977,-0.485298,-1.6463
2831,-90,-15,-6,-82,-76,7,-63,1,0.431152,-0.245605,0.598145,-31.1875,31.9375,4.25,-0.46977,-0.485298,-1.6463
2832,63,41,56,118,127,4,66,51,0.431152,-0.245605,0.598145,-31.1875,31.9375,4.25,-0.46977,-0.485298,-1.6463
2832,-81,3,28,21,44,-23,-64,-57,0.431152,-0.245605,0.598145,-31.1875,31.9375,4.25,-0.46977,-0.485298,-1.6463
2847,-23,-4,-32,-81,-116,-21,7,13,0.459473,-0.347656,0.675293,-30.625,28.1875,-0.375,-0.47792,-0.478099,-1.65154
2847,107,1,-25,0,122,6,16,32,0.459473,-0.347656,0.675293,-30.625,28.1875,-0.375,-0.47792,-0.478099,-1.65154
2847,-114,-16,-1,71,78,44,67,-65,0.459473,-0.347656,0.675293,-30.625,28.1875,-0.375,-0.47792,-0.478099,-1.65154
2847,108,19,-31,-59,-108,-3,-19,43,0.459473,-0.347656,0.675293,-30.625,28.1875,-0.375,-0.47792,-0.478099,-1.65154
2869,47,12,10,57,46,6,-55,-17,0.349121,-0.304199,0.692383,-25.9375,22.3125,-3.8125,-0.483089,-0.470956,-1.65766
2869,-77,-20,4,36,-32,5,-7,-35,0.349121,-0.304199,0.692383,-25.9375,22.3125,-3.8125,-0.483089,-0.470956,-1.65766
2869,24,-19,-42,-108,-88,-72,-50,-12,0.349121,-0.304199,0.692383,-25.9375,22.3125,-3.8125,-0.483089,-0.470956,-1.65766
2869,39,-8,19,127,110,84,68,31,0.349121,-0.304199,0.692383,-25.9375,22.3125,-3.8125,-0.483089,-0.470956,-1.65766
2892,20,2,2,34,7,-26,11,-44,0.231934,-0.364746,0.730957,-25.375,17.125,-0.5,-0.489873,-0.46195,-1.66107
2892,9,1,24,-94,-91,-35,-33,-2,0.231934,-0.364746,0.730957,-25.375,17.125,-0.5,-0.489873,-0.46195,-1.66107
2892,51,4,4,7,35,11,15,9,0.231934,-0.364746,0.730957,-25.375,17.125,-0.5,-0.489873,-0.46195,-1.66107
2892,33,-15,-43,-128,-128,-23,74,57,0.231934,-0.364746,0.730957,-25.375,17.125,-0.5,-0.489873,-0.46195,-1.66107
2915,-120,-27,7,96,34,-17,-109,-98,0.237793,-0.375977,0.776855,-19.3125,19.0625,0.5,-0.494127,-0.451994,-1.66491
2915,97,17,40,127,127,63,46,29,0.237793,-0.375977,0.776855,-19.3125,19.0625,0.5,-0.494127,-0.451994,-1.66491
2916,10,-5,-11,-39,-123,-21,52,26,0.237793,-0.375977,0.776855,-19.3125,19.0625,0.5,-0.494127,-0.451994,-1.66491
2916,-22,5,6,-56,88,26,-24,-9,0.237793,-0.375977,0.776855,-19.3125,19.0625,0.5,-0.494127,-0.451994,-1.66491
2937,42,10,27,48,66,4,-12,16,0.125,-0.422363,0.848633,-23.4375,19.625,-1.625,-0.499435,-0.439194,-1.66957
2937,-36,3,-42,-88,-38,-43,27,-1,0.125,-0.422363,0.848633,-23.4375,19.625,-1.625,-0.499435,-0.439194,-1.66957
2938,31,6,37,-7,-53,14,5,29,0.125,-0.422363,0.848633,-23.4375,19.625,-1.625,-0.499435,-0.439194,-1.66957
2938,39,4,8,78,-32,-51,-50,52,0.125,-0.422363,0.848633,-23.4375,19.625,-1.625,-0.499435,-0.439194,-1.66957
2951,-51,-19,-52,-110,-82,-9,-17,-39,0.0932617,-0.40918,0.844727,-13.8125,25.3125,1.8125,-0.501242,-0.423727,-1.67402
2951,11,-11,-2,40,5,31,3,5,0.0932617,-0.40918,0.844727,-13.8125,25.3125,1.8125,-0.501242,-0.423727,-1.67402
2952,4,-7,-54,-74,50,20,-7,29,0.0932617,-0.40918,0.844727,-13.8125,25.3125,1.8125,-0.501242,-0.423727,-1.67402
2952,36,0,49,102,1,-11,-25,-28,0.0932617,-0.40918,0.844727,-13.8125,25.3125,1.8125,-0.501242,-0.423727,-1.67402
2966,-33,6,63,48,-24,10,21,44,0.199707,-0.427246,0.874512,-6.25,28,6.9375,-0.501137,-0.408967,-1.6774
2966,-39,3,-31,-37,-51,-30,6,-5,0.199707,-0.427246,0.874512,-6.25,28,6.9375,-0.501137,-0.408967,-1.6774
2967,-15,-14,1,-46,-2,-14,-13,-19,0.199707,-0.427246,0.874512,-6.25,28,6.9375,-0.501137,-0.408967,-1.6774
2967,28,-3,-2,81,125,46,47,13,0.199707,-0.427246,0.874512,-6.25,28,6.9375,-0.501137,-0.408967,-1.6774
2989,-28,17,41,-8,-75,7,19,-56,0.354492,-0.347656,0.838867,-2.625,27.4375,9.1875,-0.498677,-0.398502,-1.68036
2989,4,2,-79,-109,-84,-51,-38,8,0.354492,-0.347656,0.838867,-2.625,27.4375,9.1875,-0.498677,-0.398502,-1.68036
2990,12,3,16,113,38,10,-3,-27,0.354492,-0.347656,0.838867,-2.625,27.4375,9.1875,-0.498677,-0.398502,-1.68036
2990,-8,16,53,-22,-57,-18,8,19,0.354492,-0.347656,0.838867,-2.625,27.4375,9.1875,-0.498677,-0.398502,-1.68036
3011,66,-6,-14,-18,50,23,26,79,0.410645,-0.356934,0.824707,-6.125,27.5,10.3125,-0.498086,-0.389259,-1.68266
3011,-62,-23,17,105,121,0,35,-40,0.410645,-0.356934,0.824707,-6.125,27.5,10.3125,-0.498086,-0.389259,-1.68266
3012,13,3,-11,-84,-54,-30,-45,4,0.410645,-0.356934,0.824707,-6.125,27.5,10.3125,-0.498086,-0.389259,-1.68266
3012,-20,-5,-14,8,-34,-8,5,-27,0.410645,-0.356934,0.824707,-6.125,27.5,10.3125,-0.498086,-0.389259,-1.68266
3026,62,-6,-49,-38,53,57,4,13,0.441895,-0.395508,0.840332,-5.5,26.375,5.6875,-0.49742,-0.38186,-1.68614
3026,-53,8,92,73,44,-25,-16,3,0.441895,-0.395508,0.840332,-5.5,26.375,5.6875,-0.49742,-0.38186,-1.68614
3034,-65,-12,-36,23,85,11,-20,-31,0.441895,-0.395508,0.840332,-5.5,26.375,5.6875,-0.49742,-0.38186,-1.68614
3034,-6,-9,-8,-57,-17,-4,16,-3,0.441895,-0.395508,0.840332,-5.5,26.375,5.6875,-0.49742,-0.38186,-1.68614
3049,8,-8,-28,-74,-71,-36,29,-2,0.396973,-0.406738,0.858398,-1.25,24.1875,4,-0.495403,-0.374218,-1.68953
3049,40,-5,3,-80,-48,-1,-70,-28,0.396973,-0.406738,0.858398,-1.25,24.1875,4,-0.495403,-0.374218,-1.68953
3050,4,0,-15,-80,-89,9,0,10,0.396973,-0.406738,0.858398,-1.25,24.1875,4,-0.495403,-0.374218,-1.68953
3050,-8,3,28,40,91,40,-7,-3,0.396973,-0.406738,0.858398,-1.25,24.1875,4,-0.495403,-0.374218,-1.68953
3073,16,3,10,77,26,-2,-16,-3,0.361328,-0.428711,0.851074,2.125,24.1875,7.4375,-0.493354,-0.365518,-1.69173
3073,61,-2,4,30,-15,23,26,39,0.361328,-0.428711,0.851074,2.125,24.1875,7.4375,-0.493354,-0.365518,-1.69173
3074,-73,-3,18,-93,-31,-48,-3,32,0.361328,-0.428711,0.851074,2.125,24.1875,7.4375,-0.493354,-0.365518,-1.69173
3074,-27,-14,-82,10,-42,-15,-46,-56,0.361328,-0.428711,0.851074,2.125,24.1875,7.4375,-0.493354,-0.365518,-1.69173
3087,8,1,60,34,37,26,20,-4,0.359375,-0.441895,0.818359,2.4375,22.4375,7.375,-0.491936,-0.357617,-1.69318
3087,39,0,19,121,95,18,37,40,0.359375,-0.441895,0.818359,2.4375,22.4375,7.375,-0.491936,-0.357617,-1.69318
3088,28,9,-37,-56,-56,-8,-31,-20,0.359375,-0.441895,0.818359,2.4375,22.4375,7.375,-0.491936,-0.357617,-1.69318
3088,-45,3,5,64,93,4,25,13,0.359375,-0.441895,0.818359,2.4375,22.4375,7.375,-0.491936,-0.357617,-1.69318
3118,40,6,-12,-12,-40,37,26,11,0.37207,-0.455566,0.790527,5,20.1875,7.8125,-0.490676,-0.350997,-1.69397
3118,-63,-7,-21,-128,-82,-62,-55,-29,0.37207,-0.455566,0.790527,5,20.1875,7.8125,-0.490676,-0.350997,-1.69397
3118,63,13,44,66,-6,34,83,36,0.37207,-0.455566,0.790527,5,20.1875,7.8125,-0.490676,-0.350997,-1.69397
3118,-104,-22,-36,-24,59,16,-52,-67,0.37207,-0.455566,0.790527,5,20.1875,7.8125,-0.490676,-0.350997,-1.69397
3140,-22,26,70,57,32,1,27,21,0.395508,-0.438477,0.776367,4.6875,19.75,9.0625,-0.489367,-0.345224,-1.69415
3140,40,-3,-24,3,17,-18,24,0,0.395508,-0.438477,0.776367,4.6875,19.75,9.0625,-0.489367,-0.345224,-1.69415
3140,61,-6,-12,7,-43,39,-2,-4,0.395508,-0.438477,0.776367,4.6875,19.75,9.0625,-0.489367,-0.345224,-1.69415
3140,26,13,56,-93,29,-45,-18,-7,0.395508,-0.438477,0.776367,4.6875,19.75,9.0625,-0.489367,-0.345224,-1.69415
3147,-60,-9,-66,23,117,-19,-33,-32,0.375488,-0.457031,0.78125,2,19.75,8.3125,-0.489416,-0.339012,-1.69451
3147,-37,-15,-36,-3,-47,57,34,-7,0.375488,-0.457031,0.78125,2,19.75,8.3125,-0.489416,-0.339012,-1.69451
3154,18,3,6,8,21,0,-21,-3,0.375488,-0.457031,0.78125,2,19.75,8.3125,-0.489416,-0.339012,-1.69451
3154,84,1,101,40,-30,-2,70,57,0.375488,-0.457031,0.78125,2,19.75,8.3125,-0.489416,-0.339012,-1.69451
3170,-76,-21,-82,-17,-52,1,-72,-71,0.339355,-0.423828,0.797852,4.625,18.0625,7.625,-0.487541,-0.332783,-1.69526
3170,-56,7,-13,-69,17,4,5,-7,0.339355,-0.423828,0.797852,4.625,18.0625,7.625,-0.487541,-0.332783,-1.69526
3170,6,4,36,89,-33,-42,-13,-2,0.339355,-0.423828,0.797852,4.625,18.0625,7.625,-0.487541,-0.332783,-1.69526
3170,62,-1,-17,-114,-101,-45,-27,29,0.339355,-0.423828,0.797852,4.625,18.0625,7.625,-0.487541,-0.332783,-1.69526
3194,-48,-1,-15,85,44,67,-23,-12,0.353516,-0.416016,0.808105,1.9375,19.1875,6.75,-0.486235,-0.326828,-1.69647
3194,48,16,17,110,95,38,90,22,0.353516,-0.416016,0.808105,1.9375,19.1875,6.75,-0.486235,-0.326828,-1.69647
3194,44,3,10,-65,-30,-16,-102,-12,0.353516,-0.416016,0.808105,1.9375,19.1875,6.75,-0.486235,-0.326828,-1.69647
3194,-12,0,-24,-17,-37,-5,-29,3,0.353516,-0.416016,0.808105,1.9375,19.1875,6.75,-0.486235,-0.326828,-1.69647
3215,3,0,-15,-60,-127,-57,15,16,0.339355,-0.42334,0.791016,-2.875,18.875,7.375,-0.487054,-0.320713,-1.6972
3215,43,-9,-32,-120,38,19,-16,6,0.339355,-0.42334,0.791016,-2.875,18.875,7.375,-0.487054,-0.320713,-1.6972
3216,-97,-15,2,74,76,26,22,-25,0.339355,-0.42334,0.791016,-2.875,18.875,7.375,-0.487054,-0.320713,-1.6972
3216,48,31,49,127,75,29,10,11,0.339355,-0.42334,0.791016,-2.875,18.875,7.375,-0.487054,-0.320713,-1.6972
3229,72,25,0,55,54,23,15,40,0.340332,-0.428223,0.826172,-0.75,18.6875,7.375,-0.486794,-0.314686,-1.698
3229,-15,-11,17,-105,-128,-33,-17,-30,0.340332,-0.428223,0.826172,-0.75,18.6875,7.375,-0.486794,-0.314686,-1.698
3229,26,0,-82,-21,127,-11,26,20,0.340332,-0.428223,0.826172,-0.75,18.6875,7.375,-0.486794,-0.314686,-1.698
3229,4,-8,-12,-36,-3,20,-8,-9,0.340332,-0.428223,0.826172,-0.75,18.6875,7.375,-0.486794,-0.314686,-1.698
3252,-69,-7,27,50,2,-57,-9,-12,0.311523,-0.385254,0.817871,1.9375,19.25,7.5,-0.4847,-0.30804,-1.69922
3252,60,10,3,-35,-73,-37,-8,32,0.311523,-0.385254,0.817871,1.9375,19.25,7.5,-0.4847,-0.30804,-1.69922
3252,-4,-17,-39,28,85,33,16,-22,0.311523,-0.385254,0.817871,1.9375,19.25,7.5,-0.4847,-0.30804,-1.69922
3252,-44,13,36,30,-5,-13,6,-17,0.311523,-0.385254,0.817871,1.9375,19.25,7.5,-0.4847,-0.30804,-1.69922
3267,54,-14,-46,-112,-34,-10,31,28,0.269531,-0.402832,0.812988,-1.0625,20.3125,6.375,-0.484161,-0.300494,-1.70091
3267,-17,-1,61,127,127,17,-23,-8,0.269531,-0.402832,0.812988,-1.0625,20.3125,6.375,-0.484161,-0.300494,-1.70091
3267,9,12,51,26,8,30,97,31,0.269531,-0.402832,0.812988,-1.0625,20.3125,6.375,-0.484161,-0.300494,-1.70091
3267,-37,-14,-72,-103,-61,-19,-27,-22,0.269531,-0.402832,0.812988,-1.0625,20.3125,6.375,-0.484161,-0.300494,-1.70091
3297,-57,-5,41,-97,33,-5,-27,-13,0.288574,-0.427734,0.816895,-3.3125,20.3125,4.9375,-0.484746,-0.293565,-1.70275
3297,5,10,-16,46,46,22,23,17,0.288574,-0.427734,0.816895,-3.3125,20.3125,4.9375,-0.484746,-0.293565,-1.70275
3299,12,2,34,34,-30,-19,29,-32,0.288574,-0.427734,0.816895,-3.3125,20.3125,4.9375,-0.484746,-0.293565,-1.70275
3299,-16,0,38,-45,20,9,-15,15,0.288574,-0.427734,0.816895,-3.3125,20.3125,4.9375,-0.484746,-0.293565,-1.70275
3312,-15,-7,-56,7,-66,-21,-4,-9,0.311523,-0.443848,0.819336,0.25,21.875,4.5625,-0.484224,-0.28695,-1.70484
3312,-2,-4,19,-7,-68,-20,-23,-6,0.311523,-0.443848,0.819336,0.25,21.875,4.5625,-0.484224,-0.28695,-1.70484
3312,-14,4,-44,-2,28,52,-16,3,0.311523,-0.443848,0.819336,0.25,21.875,4.5625,-0.484224,-0.28695,-1.70484
3312,66,15,18,46,-61,4,66,10,0.311523,-0.443848,0.819336,0.25,21.875,4.5625,-0.484224,-0.28695,-1.70484
3326,-39,-19,-41,-111,32,-1,-44,-35,0.277344,-0.449707,0.8125,-1.8125,19.625,6.0625,-0.485019,-0.280171,-1.70614
3326,24,2,25,14,4,10,-18,-5,0.277344,-0.449707,0.8125,-1.8125,19.625,6.0625,-0.485019,-0.280171,-1.70614
3342,44,10,41,-1,-14,12,24,34,0.277344,-0.449707,0.8125,-1.8125,19.625,6.0625,-0.485019,-0.280171,-1.70614
3342,-54,-19,-33,-107,-91,-58,8,6,0.277344,-0.449707,0.8125,-1.8125,19.625,6.0625,-0.485019,-0.280171,-1.70614
3349,33,-10,15,93,50,8,5,-57,0.232422,-0.458496,0.811523,-4.125,18.125,7.375,-0.486906,-0.272666,-1.70653
3349,-88,22,53,107,76,0,11,-32,0.232422,-0.458496,0.811523,-4.125,18.125,7.375,-0.486906,-0.272666,-1.70653
3349,15,-17,-49,-128,-72,-34,-29,28,0.232422,-0.458496,0.811523,-4.125,18.125,7.375,-0.486906,-0.272666,-1.70653
3349,-14,-2,42,126,51,43,-17,-14,0.232422,-0.458496,0.811523,-4.125,18.125,7.375,-0.486906,-0.272666,-1.70653
3372,87,30,41,127,91,18,16,34,0.244629,-0.427734,0.815918,-3.5,17.625,5.0625,-0.4876,-0.266209,-1.70805
3372,-40,-12,-64,-100,-105,-23,-5,5,0.244629,-0.427734,0.815918,-3.5,17.625,5.0625,-0.4876,-0.266209,-1.70805
3373,-7,-13,-10,-9,-86,-27,-22,-6,0.244629,-0.427734,0.815918,-3.5,17.625,5.0625,-0.4876,-0.266209,-1.70805
3373,-16,2,15,-49,58,-10,-8,1,0.244629,-0.427734,0.815918,-3.5,17.625,5.0625,-0.4876,-0.266209,-1.70805
3386,36,-14,-47,-9,-107,5,58,26,0.239746,-0.413574,0.808105,-0.8125,17.625,3.125,-0.487017,-0.260204,-1.70999
3386,-16,-25,41,-72,3,-63,-99,-46,0.239746,-0.413574,0.808105,-0.8125,17.625,3.125,-0.487017,-0.260204,-1.70999
3394,-37,-3,-40,95,116,61,-5,-30,0.239746,-0.413574,0.808105,-0.8125,17.625,3.125,-0.487017,-0.260204,-1.70999
3394,9,29,35,99,114,62,22,7,0.239746,-0.413574,0.808105,-0.8125,17.625,3.125,-0.487017,-0.260204,-1.70999
3410,-12,9,61,-56,-57,-32,30,19,0.233887,-0.435059,0.839355,-3.625,17.875,3.375,-0.48751,-0.253874,-1.71211
3410,27,-7,-70,-80,-72,-23,-32,-4,0.233887,-0.435059,0.839355,-3.625,17.875,3.375,-0.48751,-0.253874,-1.71211
3416,-33,2,39,103,75,-2,5,14,0.233887,-0.435059,0.839355,-3.625,17.875,3.375,-0.48751,-0.253874,-1.71211
3416,30,-25,-46,-59,-64,-42,-47,-13,0.233887,-0.435059,0.839355,-3.625,17.875,3.375,-0.48751,-0.253874,-1.71211
3431,-14,-2,0,18,84,21,3,5,0.249023,-0.4375,0.82959,-3.375,17.1875,3.5625,-0.488146,-0.248214,-1.71385
3431,-69,9,32,101,87,53,57,7,0.249023,-0.4375,0.82959,-3.375,17.1875,3.5625,-0.488146,-0.248214,-1.71385
3432,-2,-6,-8,-101,-87,-94,-26,-1,0.249023,-0.4375,0.82959,-3.375,17.1875,3.5625,-0.488146,-0.248214,-1.71385
3432,-5,-10,-46,112,26,48,25,-5,0.249023,-0.4375,0.82959,-3.375,17.1875,3.5625,-0.488146,-0.248214,-1.71385
3446,60,-2,20,-25,13,8,-29,-15,0.248047,-0.423828,0.827148,-0.5625,15.25,6.25,-0.487853,-0.242894,-1.71458
3446,-45,-14,-44,-31,-65,-40,-19,6,0.248047,-0.423828,0.827148,-0.5625,15.25,6.25,-0.487853,-0.242894,-1.71458
3454,20,6,30,-12,20,5,-10,-5,0.248047,-0.423828,0.827148,-0.5625,15.25,6.25,-0.487853,-0.242894,-1.71458
3454,-68,-8,30,-82,-57,-42,0,-1,0.248047,-0.423828,0.827148,-0.5625,15.25,6.25,-0.487853,-0.242894,-1.71458
3469,-7,-12,-52,-99,-114,-34,-10,13,0.222168,-0.398926,0.836426,-1.0625,15.75,3.8125,-0.486919,-0.237404,-1.71624
3469,63,2,-17,79,126,74,8,-14,0.222168,-0.398926,0.836426,-1.0625,15.75,3.8125,-0.486919,-0.237404,-1.71624
3470,14,36,121,126,79,91,27,30,0.222168,-0.398926,0.836426,-1.0625,15.75,3.8125,-0.486919,-0.237404,-1.71624
3470,17,-7,-12,-128,-108,-68,29,-21,0.222168,-0.398926,0.836426,-1.0625,15.75,3.8125,-0.486919,-0.237404,-1.71624
3493,-53,-11,-45,-3,6,5,-92,-16,0.210449,-0.444336,0.845703,-4.875,14.875,2.25,-0.488059,-0.23207,-1.71806
3493,35,1,2,33,41,-13,15,10,0.210449,-0.444336,0.845703,-4.875,14.875,2.25,-0.488059,-0.23207,-1.71806
3493,-9,-12,-34,-128,-122,-52,-5,-6,0.210449,-0.444336,0.845703,-4.875,14.875,2.25,-0.488059,-0.23207,-1.71806
3493,29,-5,72,51,81,9,-11,-3,0.210449,-0.444336,0.845703,-4.875,14.875,2.25,-0.488059,-0.23207,-1.71806
3506,11,25,127,114,87,12,10,20,0.214844,-0.4375,0.836426,0.125,13.5625,2.6875,-0.487502,-0.227285,-1.71953
3506,-3,-13,-26,-28,7,7,28,-3,0.214844,-0.4375,0.836426,0.125,13.5625,2.6875,-0.487502,-0.227285,-1.71953
3514,-4,-9,-32,-40,-46,-4,-25,-8,0.214844,-0.4375,0.836426,0.125,13.5625,2.6875,-0.487502,-0.227285,-1.71953
3514,14,1,-105,-2,13,42,1,4,0.214844,-0.4375,0.836426,0.125,13.5625,2.6875,-0.487502,-0.227285,-1.71953
3529,-41,0,-50,-39,29,-3,64,-9,0.1875,-0.422852,0.828613,0.125,13.0625,3.0625,-0.48681,-0.222257,-1.72082
3529,15,0,-79,90,-28,-21,-29,0,0.1875,-0.422852,0.828613,0.125,13.0625,3.0625,-0.48681,-0.222257,-1.72082
3529,-46,-3,-43,-35,-54,-6,8,-22,0.1875,-0.422852,0.828613,0.125,13.0625,3.0625,-0.48681,-0.222257,-1.72082
3529,-17,-12,-66,-92,-97,-28,-23,0,0.1875,-0.422852,0.828613,0.125,13.0625,3.0625,-0.48681,-0.222257,-1.72082
3551,22,5,-21,75,56,15,46,30,0.199707,-0.449219,0.846191,-1.875,13.125,1.25,-0.487144,-0.217649,-1.72265
3551,28,14,54,-20,-11,-1,14,15,0.199707,-0.449219,0.846191,-1.875,13.125,1.25,-0.487144,-0.217649,-1.72265
3552,30,-13,-78,-40,-38,4,-55,-32,0.199707,-0.449219,0.846191,-1.875,13.125,1.25,-0.487144,-0.217649,-1.72265
3552,-5,3,-7,-58,-32,-21,2,8,0.199707,-0.449219,0.846191,-1.875,13.125,1.25,-0.487144,-0.217649,-1.72265
3566,122,9,17,50,33,37,-72,56,0.175293,-0.438477,0.839844,-4.5625,13.125,2.1875,-0.488152,-0.212581,-1.72409
3566,-54,6,30,-16,-42,-12,37,-49,0.175293,-0.438477,0.839844,-4.5625,13.125,2.1875,-0.488152,-0.212581,-1.72409
3574,-72,-15,-9,45,59,-23,-19,-20,0.175293,-0.438477,0.839844,-4.5625,13.125,2.1875,-0.488152,-0.212581,-1.72409
3574,-10,-4,37,-45,-40,-28,-47,-28,0.175293,-0.438477,0.839844,-4.5625,13.125,2.1875,-0.488152,-0.212581,-1.72409
3589,14,-3,-63,-60,-7,20,7,10,0.173828,-0.436035,0.834473,-4.9375,12.8125,0.875,-0.489311,-0.207806,-1.72594
3589,57,8,-12,-21,28,14,42,29,0.173828,-0.436035,0.834473,-4.9375,12.8125,0.875,-0.489311,-0.207806,-1.72594
3590,16,-1,31,4,27,-18,-40,11,0.173828,-0.436035,0.834473,-4.9375,12.8125,0.875,-0.489311,-0.207806,-1.72594
3590,14,3,-22,127,55,32,35,29,0.173828,-0.436035,0.834473,-4.9375,12.8125,0.875,-0.489311,-0.207806,-1.72594
3620,-82,-7,-81,-72,-45,-36,-5,-62,0.175293,-0.439453,0.845215,-0.6875,12.375,1.3125,-0.488948,-0.203293,-1.72768
3620,-13,3,46,-53,-47,-19,-10,-5,0.175293,-0.439453,0.845215,-0.6875,12.375,1.3125,-0.488948,-0.203293,-1.72768
3620,4,-9,-78,-43,-7,-2,36,14,0.175293,-0.439453,0.845215,-0.6875,12.375,1.3125,-0.488948,-0.203293,-1.72768
3620,18,20,-18,61,77,36,2,29,0.175293,-0.439453,0.845215,-0.6875,12.375,1.3125,-0.488948,-0.203293,-1.72768
3626,48,-8,33,36,26,9,-6,10,0.186523,-0.438965,0.84082,-3.25,11.875,2.0625,-0.489613,-0.199246,-1.72914
3626,-56,-9,-14,-71,-89,-16,-19,-31,0.186523,-0.438965,0.84082,-3.25,11.875,2.0625,-0.489613,-0.199246,-1.72914
3634,-18,-6,-8,-20,-65,-31,-27,-18,0.186523,-0.438965,0.84082,-3.25,11.875,2.0625,-0.489613,-0.199246,-1.72914
3634,-30,-7,-20,-71,69,25,-13,-6,0.186523,-0.438965,0.84082,-3.25,11.875,2.0625,-0.489613,-0.199246,-1.72914
3650,30,1,24,-46,-94,15,-3,5,0.191406,-0.44873,0.84082,-6.25,12.25,2.3125,-0.49152,-0.195144,-1.7305
3650,28,-4,-3,-89,36,6,-3,-12,0.191406,-0.44873,0.84082,-6.25,12.25,2.3125,-0.49152,-0.195144,-1.7305
3650,-8,18,127,127,105,48,17,21,0.191406,-0.44873,0.84082,-6.25,12.25,2.3125,-0.49152,-0.195144,-1.7305
3650,-45,-4,-37,-42,-74,-100,-26,-2,0.191406,-0.44873,0.84082,-6.25,12.25,2.3125,-0.49152,-0.195144,-1.7305
3672,-119,-20,37,-72,-73,-1,-4,-63,0.1875,-0.480957,0.866211,-6.4375,13.0625,2,-0.493732,-0.190652,-1.73198
3672,22,2,-23,-99,6,16,-1,32,0.1875,-0.480957,0.866211,-6.4375,13.0625,2,-0.493732,-0.190652,-1.73198
3672,31,2,64,-27,-24,-5,11,2,0.1875,-0.480957,0.866211,-6.4375,13.0625,2,-0.493732,-0.190652,-1.73198
3672,27,14,6,115,117,24,1,-12,0.1875,-0.480957,0.866211,-6.4375,13.0625,2,-0.493732,-0.190652,-1.73198
3686,3,10,78,89,18,3,2,19,0.146484,-0.458984,0.867188,-3.5625,10.5625,2.1875,-0.494514,-0.186101,-1.73303
3686,-74,-2,43,-68,-58,-9,15,-18,0.146484,-0.458984,0.867188,-3.5625,10.5625,2.1875,-0.494514,-0.186101,-1.73303
3694,-1,3,-48,62,28,-8,17,-10,0.146484,-0.458984,0.867188,-3.5625,10.5625,2.1875,-0.494514,-0.186101,-1.73303
3694,-2,-19,-17,-128,-93,-24,-21,1,0.146484,-0.458984,0.867188,-3.5625,10.5625,2.1875,-0.494514,-0.186101,-1.73303
3709,49,5,17,57,50,8,27,-2,0.190918,-0.443359,0.858887,0.5625,8,4.9375,-0.493894,-0.183056,-1.73295
3709,-14,-3,38,56,2,31,26,42,0.190918,-0.443359,0.858887,0.5625,8,4.9375,-0.493894,-0.183056,-1.73295
3709,31,14,0,61,15,-9,1,-6,0.190918,-0.443359,0.858887,0.5625,8,4.9375,-0.493894,-0.183056,-1.73295
3709,17,7,38,-25,19,-38,20,12,0.190918,-0.443359,0.858887,0.5625,8,4.9375,-0.493894,-0.183056,-1.73295
3732,-54,-10,-47,-29,-103,-29,-32,-22,0.192383,-0.427734,0.861328,-1.6875,9.8125,5.6875,-0.493845,-0.17953,-1.73285
3732,54,5,-15,-44,24,25,-39,-11,0.192383,-0.427734,0.861328,-1.6875,9.8125,5.6875,-0.493845,-0.17953,-1.73285
3732,2,-8,36,57,85,48,12,31,0.192383,-0.427734,0.861328,-1.6875,9.8125,5.6875,-0.493845,-0.17953,-1.73285
3732,-18,-9,24,34,5,9,5,-8,0.192383,-0.427734,0.861328,-1.6875,9.8125,5.6875,-0.493845,-0.17953,-1.73285
3755,15,8,-9,-72,-77,-45,3,25,0.184082,-0.468262,0.881836,3.0625,15.4375,5.3125,-0.49249,-0.174118,-1.73397
3755,18,-5,14,103,64,-3,15,-1,0.184082,-0.468262,0.881836,3.0625,15.4375,5.3125,-0.49249,-0.174118,-1.73397
3755,14,-15,-41,-51,6,7,-2,-20,0.184082,-0.468262,0.881836,3.0625,15.4375,5.3125,-0.49249,-0.174118,-1.73397
3755,5,-8,-51,29,-2,13,1,-12,0.184082,-0.468262,0.881836,3.0625,15.4375,5.3125,-0.49249,-0.174118,-1.73397
3770,6,-6,-4,-61,-6,-5,8,30,0.177734,-0.454102,0.876465,10.5625,17.9375,8.0625,-0.488448,-0.167462,-1.73434
3770,6,18,25,69,48,26,-18,0,0.177734,-0.454102,0.876465,10.5625,17.9375,8.0625,-0.488448,-0.167462,-1.73434
3771,45,18,37,-45,-15,-19,17,18,0.177734,-0.454102,0.876465,10.5625,17.9375,8.0625,-0.488448,-0.167462,-1.73434
3771,-26,-32,-11,-53,-64,-20,-19,-15,0.177734,-0.454102,0.876465,10.5625,17.9375,8.0625,-0.488448,-0.167462,-1.73434
3792,25,2,-15,-3,37,-11,41,2,0.189453,-0.445801,0.875488,12.9375,17.75,11.125,-0.483592,-0.160867,-1.73391
3792,6,-14,-17,30,39,-23,-27,-8,0.189453,-0.445801,0.875488,12.9375,17.75,11.125,-0.483592,-0.160867,-1.73391
3792,38,17,42,-35,50,48,21,20,0.189453,-0.445801,0.875488,12.9375,17.75,11.125,-0.483592,-0.160867,-1.73391
3792,-17,13,38,69,25,11,13,7,0.189453,-0.445801,0.875488,12.9375,17.75,11.125,-0.483592,-0.160867,-1.73391
3815,-14,5,-9,-42,-15,-9,14,-1,0.0869141,-0.443359,0.885742,-0.6875,12.0625,8.875,-0.483508,-0.154072,-1.73318
3815,19,-9,-24,17,6,-4,-37,-11,0.0869141,-0.443359,0.885742,-0.6875,12.0625,8.875,-0.483508,-0.154072,-1.73318
3816,-6,-21,-56,-128,-23,-35,2,29,0.0869141,-0.443359,0.885742,-0.6875,12.0625,8.875,-0.483508,-0.154072,-1.73318
3816,32,19,66,75,-2,-20,24,5,0.0869141,-0.443359,0.885742,-0.6875,12.0625,8.875,-0.483508,-0.154072,-1.73318
3829,26,-7,18,63,74,38,-61,-8,0.0693359,-0.429199,0.874512,-3.3125,11.8125,2,-0.483706,-0.148278,-1.73456
3829,39,11,-5,-52,-15,1,33,17,0.0693359,-0.429199,0.874512,-3.3125,11.8125,2,-0.483706,-0.148278,-1.73456
3829,-61,-17,-13,-5,-97,-20,-18,-34,0.0693359,-0.429199,0.874512,-3.3125,11.8125,2,-0.483706,-0.148278,-1.73456
3829,8,7,9,-111,-34,-19,-1,-8,0.0693359,-0.429199,0.874512,-3.3125,11.8125,2,-0.483706,-0.148278,-1.73456
3851,25,-11,0,91,78,30,-35,-6,0.103027,-0.436035,0.853027,0.5625,10.1875,1,-0.483111,-0.144,-1.73592
3851,8,8,11,84,-10,7,29,11,0.103027,-0.436035,0.853027,0.5625,10.1875,1,-0.483111,-0.144,-1.73592
3853,-6,14,76,-26,-46,-28,-9,-16,0.103027,-0.436035,0.853027,0.5625,10.1875,1,-0.483111,-0.144,-1.73592
3853,-55,1,-4,76,71,52,6,0,0.103027,-0.436035,0.853027,0.5625,10.1875,1,-0.483111,-0.144,-1.73592
3875,20,6,-38,-65,-3,-32,15,1,0.175781,-0.466797,0.854004,3,5.875,3.875,-0.482519,-0.142435,-1.73564
3875,-78,-27,-40,-128,-124,-16,28,11,0.175781,-0.466797,0.854004,3,5.875,3.875,-0.482519,-0.142435,-1.73564
3876,8,-10,-84,2,6,-17,-44,-10,0.175781,-0.466797,0.854004,3,5.875,3.875,-0.482519,-0.142435,-1.73564
3876,42,21,61,90,61,50,-11,-4,0.175781,-0.466797,0.854004,3,5.875,3.875,-0.482519,-0.142435,-1.73564
3889,-9,0,-33,-3,37,-10,26,2,0.141602,-0.432617,0.837891,1.6875,6,5.8125,-0.48191,-0.139962,-1.73491
3889,12,-4,-56,-66,-16,-15,-17,-13,0.141602,-0.432617,0.837891,1.6875,6,5.8125,-0.48191,-0.139962,-1.73491
3890,18,-1,-2,91,18,17,48,21,0.141602,-0.432617,0.837891,1.6875,6,5.8125,-0.48191,-0.139962,-1.73491
3890,33,8,43,15,7,4,-22,-4,0.141602,-0.432617,0.837891,1.6875,6,5.8125,-0.48191,-0.139962,-1.73491
3920,20,13,68,-11,-67,13,33,23,0.0927734,-0.432617,0.838867,-1.5,7.25,1.5625,-0.482196,-0.136491,-1.73556
3920,-1,6,-43,75,93,-9,-25,9,0.0927734,-0.432617,0.838867,-1.5,7.25,1.5625,-0.482196,-0.136491,-1.73556
3920,9,-11,-65,-5,-9,1,-4,-7,0.0927734,-0.432617,0.838867,-1.5,7.25,1.5625,-0.482196,-0.136491,-1.73556
3920,-21,9,-2,-85,-35,5,-2,-4,0.0927734,-0.432617,0.838867,-1.5,7.25,1.5625,-0.482196,-0.136491,-1.73556
3935,1,-12,-63,-94,-34,-39,4,-13,0.164062,-0.431152,0.82666,2,3.6875,-3.375,-0.481207,-0.136813,-1.73726
3935,-7,-12,14,-8,-99,-13,-15,-13,0.164062,-0.431152,0.82666,2,3.6875,-3.375,-0.481207,-0.136813,-1.73726
3936,-59,-5,67,5,44,54,5,3,0.164062,-0.431152,0.82666,2,3.6875,-3.375,-0.481207,-0.136813,-1.73726
3936,22,3,-17,26,22,-50,25,22,0.164062,-0.431152,0.82666,2,3.6875,-3.375,-0.481207,-0.136813,-1.73726
3949,6,-4,-6,-67,-38,62,-48,-14,0.146973,-0.43457,0.839355,5.8125,3.9375,0.8125,-0.4791,-0.135794,-1.73757
3949,62,25,103,109,58,6,36,15,0.146973,-0.43457,0.839355,5.8125,3.9375,0.8125,-0.4791,-0.135794,-1.73757
3950,10,-15,-77,-78,38,-20,-20,-13,0.146973,-0.43457,0.839355,5.8125,3.9375,0.8125,-0.4791,-0.135794,-1.73757
3950,-55,-14,-12,75,-37,6,-30,-2,0.146973,-0.43457,0.839355,5.8125,3.9375,0.8125,-0.4791,-0.135794,-1.73757
3973,3,-6,-12,-46,-18,-33,-2,-21,0.142578,-0.478027,0.862793,-1.8125,2.75,0.5,-0.480207,-0.135065,-1.73775
3973,6,10,86,45,33,5,13,13,0.142578,-0.478027,0.862793,-1.8125,2.75,0.5,-0.480207,-0.135065,-1.73775
3973,72,12,24,-59,-67,-13,-4,20,0.142578,-0.478027,0.862793,-1.8125,2.75,0.5,-0.480207,-0.135065,-1.73775
3973,44,14,8,64,109,61,-2,-9,0.142578,-0.478027,0.862793,-1.8125,2.75,0.5,-0.480207,-0.135065,-1.73775
3995,-89,-37,-86,22,-26,-36,-26,-14,0.160156,-0.431641,0.84375,3.5625,-1.625,0.3125,-0.47889,-0.136282,-1.73744
3995,-10,-22,-76,-70,-68,-16,1,-24,0.160156,-0.431641,0.84375,3.5625,-1.625,0.3125,-0.47889,-0.136282,-1.73744
3996,53,14,31,9,9,-28,8,17,0.160156,-0.431641,0.84375,3.5625,-1.625,0.3125,-0.47889,-0.136282,-1.73744
3996,-11,-38,-112,-55,17,51,-42,-13,0.160156,-0.431641,0.84375,3.5625,-1.625,0.3125,-0.47889,-0.136282,-1.73744
4009,-70,39,115,117,71,-8,5,-5,0.164062,-0.422852,0.84375,3.375,-3,0.8125,-0.477491,-0.137853,-1.73685
4009,17,-12,55,16,-46,-14,-9,-3,0.164062,-0.422852,0.84375,3.375,-3,0.8125,-0.477491,-0.137853,-1.73685
4010,-45,-8,-52,-59,-43,-20,-25,-9,0.164062,-0.422852,0.84375,3.375,-3,0.8125,-0.477491,-0.137853,-1.73685
4010,51,-7,-49,-128,-91,-33,25,15,0.164062,-0.422852,0.84375,3.375,-3,0.8125,-0.477491,-0.137853,-1.73685
4031,20,1,42,-5,-8,42,-28,7,0.169922,-0.423828,0.848145,-0.5625,-1.1875,-1.125,-0.477373,-0.139315,-1.73699
4031,-41,3,-35,-26,70,-12,-66,-2,0.169922,-0.423828,0.848145,-0.5625,-1.1875,-1.125,-0.477373,-0.139315,-1.73699
4032,9,6,39,127,89,46,45,-7,0.169922,-0.423828,0.848145,-0.5625,-1.1875,-1.125,-0.477373,-0.139315,-1.73699
4032,16,9,2,-76,-103,-20,17,13,0.169922,-0.423828,0.848145,-0.5625,-1.1875,-1.125,-0.477373,-0.139315,-1.73699
4055,-36,-10,25,96,66,-4,-11,-29,0.12207,-0.445801,0.876953,-2.3125,-0.5625,-1.8125,-0.477885,-0.139316,-1.73751
4055,8,5,-70,-59,-24,-22,18,2,0.12207,-0.445801,0.876953,-2.3125,-0.5625,-1.8125,-0.477885,-0.139316,-1.73751
4056,64,-7,-7,-53,-27,-14,-11,32,0.12207,-0.445801,0.876953,-2.3125,-0.5625,-1.8125,-0.477885,-0.139316,-1.73751
4056,-123,-36,-28,40,87,32,17,-60,0.12207,-0.445801,0.876953,-2.3125,-0.5625,-1.8125,-0.477885,-0.139316,-1.73751
4069,55,23,53,41,31,3,5,35,0.120605,-0.432617,0.869141,1.0625,0.5,-2.625,-0.476953,-0.139281,-1.73849
4069,3,-3,-27,7,-28,7,3,-10,0.120605,-0.432617,0.869141,1.0625,0.5,-2.625,-0.476953,-0.139281,-1.73849
4070,-29,-13,-61,-27,-32,-10,4,-14,0.120605,-0.432617,0.869141,1.0625,0.5,-2.625,-0.476953,-0.139281,-1.73849
4070,28,-11,-30,-128,-128,-49,-13,25,0.120605,-0.432617,0.869141,1.0625,0.5,-2.625,-0.476953,-0.139281,-1.73849
4091,25,7,34,12,77,0,19,6,0.09375,-0.426758,0.861816,1.0625,-2.4375,0.125,-0.476268,-0.138927,-1.73801
4091,7,4,43,127,101,25,7,-6,0.09375,-0.426758,0.861816,1.0625,-2.4375,0.125,-0.476268,-0.138927,-1.73801
4092,-50,7,4,-85,-100,-30,-25,-15,0.09375,-0.426758,0.861816,1.0625,-2.4375,0.125,-0.476268,-0.138927,-1.73801
4092,13,-6,-4,21,30,8,6,-7,0.09375,-0.426758,0.861816,1.0625,-2.4375,0.125,-0.476268,-0.138927,-1.73801
4115,-22,-3,-17,-58,-60,28,-12,-9,0.105469,-0.450195,0.880859,0.0625,-1.1875,0.3125,-0.476147,-0.138499,-1.73783
4115,15,-5,12,-42,26,22,27,17,0.105469,-0.450195,0.880859,0.0625,-1.1875,0.3125,-0.476147,-0.138499,-1.73783
4115,9,7,30,64,50,-12,-22,18,0.105469,-0.450195,0.880859,0.0625,-1.1875,0.3125,-0.476147,-0.138499,-1.73783
4115,49,21,29,-10,-9,41,-11,-2,0.105469,-0.450195,0.880859,0.0625,-1.1875,0.3125,-0.476147,-0.138499,-1.73783
4130,-37,-15,21,73,9,-24,0,-4,0.102539,-0.449219,0.876953,-0.5625,1,0.9375,-0.476334,-0.137145,-1.7377
4130,-38,-13,-83,-45,-31,-5,37,7,0.102539,-0.449219,0.876953,-0.5625,1,0.9375,-0.476334,-0.137145,-1.7377
4130,-6,13,31,-50,-102,-5,-16,-20,0.102539,-0.449219,0.876953,-0.5625,1,0.9375,-0.476334,-0.137145,-1.7377
4130,-18,-9,44,2,107,-31,-15,-7,0.102539,-0.449219,0.876953,-0.5625,1,0.9375,-0.476334,-0.137145,-1.7377
4152,48,22,46,39,28,14,11,24,0.0800781,-0.414062,0.849609,3.5625,0.5625,0.1875,-0.474516,-0.135833,-1.73774
4152,11,-10,2,-52,-100,-13,-10,1,0.0800781,-0.414062,0.849609,3.5625,0.5625,0.1875,-0.474516,-0.135833,-1.73774
4152,-29,-13,-10,98,127,46,18,-11,0.0800781,-0.414062,0.849609,3.5625,0.5625,0.1875,-0.474516,-0.135833,-1.73774
4152,5,11,92,73,3,-15,-14,8,0.0800781,-0.414062,0.849609,3.5625,0.5625,0.1875,-0.474516,-0.135833,-1.73774
4175,5,-8,-59,-128,-128,-34,10,-2,0.106445,-0.430664,0.836426,2.3125,-2,1.9375,-0.473883,-0.135532,-1.73683
4175,-19,4,-2,-31,39,-42,-25,-5,0.106445,-0.430664,0.836426,2.3125,-2,1.9375,-0.473883,-0.135532,-1.73683
4176,18,9,48,80,76,83,65,11,0.106445,-0.430664,0.836426,2.3125,-2,1.9375,-0.473883,-0.135532,-1.73683
4176,1,3,-26,-35,-2,-12,23,-21,0.106445,-0.430664,0.836426,2.3125,-2,1.9375,-0.473883,-0.135532,-1.73683
4189,-22,-7,-7,-55,-17,-4,-25,-4,0.136719,-0.466309,0.860352,-1.625,-2.3125,1.4375,-0.475121,-0.136139,-1.73584
4189,58,7,-9,17,14,0,-22,34,0.136719,-0.466309,0.860352,-1.625,-2.3125,1.4375,-0.475121,-0.136139,-1.73584
4190,-92,-16,10,-20,-56,-49,12,-33,0.136719,-0.466309,0.860352,-1.625,-2.3125,1.4375,-0.475121,-0.136139,-1.73584
4190,17,-9,-73,-83,-96,25,14,17,0.136719,-0.466309,0.860352,-1.625,-2.3125,1.4375,-0.475121,-0.136139,-1.73584
4212,29,10,32,69,72,-5,-29,-27,0.14209,-0.449707,0.842285,-1.75,0,-1.0625,-0.475978,-0.136483,-1.73617
4212,-56,-4,50,45,-40,1,-27,0,0.14209,-0.449707,0.842285,-1.75,0,-1.0625,-0.475978,-0.136483,-1.73617
4213,42,11,-62,85,104,21,5,21,0.14209,-0.449707,0.842285,-1.75,0,-1.0625,-0.475978,-0.136483,-1.73617
4213,-22,-8,2,-40,-44,-32,0,-6,0.14209,-0.449707,0.842285,-1.75,0,-1.0625,-0.475978,-0.136483,-1.73617
4235,2,-7,-26,50,-43,0,11,-7,0.141602,-0.425293,0.828613,0.625,-2.0625,-1.125,-0.475724,-0.137727,-1.73629
4235,48,11,49,-34,-4,19,10,9,0.141602,-0.425293,0.828613,0.625,-2.0625,-1.125,-0.475724,-0.137727,-1.73629
4236,-10,-13,8,-37,-2,-6,-10,-24,0.141602,-0.425293,0.828613,0.625,-2.0625,-1.125,-0.475724,-0.137727,-1.73629
4236,5,3,-13,78,7,3,-28,-13,0.141602,-0.425293,0.828613,0.625,-2.0625,-1.125,-0.475724,-0.137727,-1.73629
4249,0,3,-5,-96,-90,-34,5,17,0.150391,-0.446777,0.849609,-0.9375,-2.9375,1.1875,-0.476341,-0.138728,-1.73545
4249,19,-16,-20,-24,27,-13,0,-20,0.150391,-0.446777,0.849609,-0.9375,-2.9375,1.1875,-0.476341,-0.138728,-1.73545
4250,-47,0,12,-57,-80,15,-24,-3,0.150391,-0.446777,0.849609,-0.9375,-2.9375,1.1875,-0.476341,-0.138728,-1.73545
4250,5,-8,-11,8,113,26,17,-3,0.150391,-0.446777,0.849609,-0.9375,-2.9375,1.1875,-0.476341,-0.138728,-1.73545
4272,26,20,65,119,44,-1,83,8,0.129395,-0.425293,0.87793,-2.0625,-0.25,-0.5625,-0.476312,-0.138787,-1.73565
4272,-16,-7,-37,-24,17,-31,-25,-3,0.129395,-0.425293,0.87793,-2.0625,-0.25,-0.5625,-0.476312,-0.138787,-1.73565
4273,-10,15,2,-59,-27,12,-3,-1,0.129395,-0.425293,0.87793,-2.0625,-0.25,-0.5625,-0.476312,-0.138787,-1.73565
4273,44,2,17,-22,-25,-49,-7,10,0.129395,-0.425293,0.87793,-2.0625,-0.25,-0.5625,-0.476312,-0.138787,-1.73565
4295,-52,-33,-110,-128,-96,-18,-4,-12,0.157715,-0.418457,0.872559,-1.875,1.75,-2.8125,-0.476125,-0.139147,-1.73676
4295,-15,8,91,126,102,25,-10,-16,0.157715,-0.418457,0.872559,-1.875,1.75,-2.8125,-0.476125,-0.139147,-1.73676
4295,83,9,48,72,77,32,19,25,0.157715,-0.418457,0.872559,-1.875,1.75,-2.8125,-0.476125,-0.139147,-1.73676
4295,-75,-13,-37,-36,-64,-23,-15,-16,0.157715,-0.418457,0.872559,-1.875,1.75,-2.8125,-0.476125,-0.139147,-1.73676
4308,6,-1,-61,-64,21,1,11,-4,0.112305,-0.443359,0.879883,1.375,-1.875,0.4375,-0.475538,-0.13908,-1.73643
4308,-1,-9,-50,-128,-128,-44,-9,-8,0.112305,-0.443359,0.879883,1.375,-1.875,0.4375,-0.475538,-0.13908,-1.73643
4325,25,6,30,91,87,17,6,-2,0.112305,-0.443359,0.879883,1.375,-1.875,0.4375,-0.475538,-0.13908,-1.73643
4325,-14,21,59,48,18,22,16,15,0.112305,-0.443359,0.879883,1.375,-1.875,0.4375,-0.475538,-0.13908,-1.73643
4332,-5,-6,14,15,17,4,-8,-2,0.109863,-0.432129,0.861816,5.75,-2.125,3.8125,-0.473508,-0.138496,-1.73488
4332,-7,-18,-43,27,80,1,-17,-16,0.109863,-0.432129,0.861816,5.75,-2.125,3.8125,-0.473508,-0.138496,-1.73488
4332,1,8,10,56,14,4,-12,3,0.109863,-0.432129,0.861816,5.75,-2.125,3.8125,-0.473508,-0.138496,-1.73488
4332,69,8,-7,-46,-37,-13,-9,16,0.109863,-0.432129,0.861816,5.75,-2.125,3.8125,-0.473508,-0.138496,-1.73488
4363,-50,-10,0,25,-22,0,-27,-39,0.12793,-0.433594,0.882324,1.375,-0.375,3.375,-0.4728,-0.137894,-1.73383
4363,0,14,43,96,56,-14,2,7,0.12793,-0.433594,0.882324,1.375,-0.375,3.375,-0.4728,-0.137894,-1.73383
4363,26,1,-18,-51,-60,-21,-3,4,0.12793,-0.433594,0.882324,1.375,-0.375,3.375,-0.4728,-0.137894,-1.73383
4363,23,-17,-53,-47,-72,-29,-9,7,0.12793,-0.433594,0.882324,1.375,-0.375,3.375,-0.4728,-0.137894,-1.73383
4368,47,-11,-65,-57,7,18,29,0,0.135742,-0.442383,0.874023,-0.9375,1.6875,0.125,-0.472912,-0.137355,-1.73413
4368,-42,1,-23,-16,46,46,49,20,0.135742,-0.442383,0.874023,-0.9375,1.6875,0.125,-0.472912,-0.137355,-1.73413
4376,-79,-15,12,-52,13,-31,-78,-25,0.135742,-0.442383,0.874023,-0.9375,1.6875,0.125,-0.472912,-0.137355,-1.73413
4376,70,22,70,86,17,19,9,17,0.135742,-0.442383,0.874023,-0.9375,1.6875,0.125,-0.472912,-0.137355,-1.73413
4392,-24,-4,2,-84,-71,-22,-11,12,0.0693359,-0.443359,0.848633,-0.125,1.4375,0.3125,-0.473126,-0.135329,-1.73412
4392,22,9,4,19,-32,19,12,-12,0.0693359,-0.443359,0.848633,-0.125,1.4375,0.3125,-0.473126,-0.135329,-1.73412
4392,18,-2,0,-9,-3,-2,34,15,0.0693359,-0.443359,0.848633,-0.125,1.4375,0.3125,-0.473126,-0.135329,-1.73412
4392,-43,-8,-74,10,14,9,12,-4,0.0693359,-0.443359,0.848633,-0.125,1.4375,0.3125,-0.473126,-0.135329,-1.73412
4415,17,-3,30,-33,-54,-27,-36,11,0.141113,-0.418945,0.86084,0.625,0.3125,1.375,-0.472517,-0.13528,-1.7338
4415,4,-2,5,21,79,61,22,-8,0.141113,-0.418945,0.86084,0.625,0.3125,1.375,-0.472517,-0.13528,-1.7338
4416,-16,8,23,36,7,-10,2,7,0.141113,-0.418945,0.86084,0.625,0.3125,1.375,-0.472517,-0.13528,-1.7338
4416,20,15,44,-43,-38,-59,7,7,0.141113,-0.418945,0.86084,0.625,0.3125,1.375,-0.472517,-0.13528,-1.7338
4429,-23,-23,-63,127,72,73,-45,-25,0.143066,-0.44043,0.867188,-1.375,2.375,3.25,-0.472958,-0.134306,-1.73327
4429,40,14,7,-22,-9,-31,48,23,0.143066,-0.44043,0.867188,-1.375,2.375,3.25,-0.472958,-0.134306,-1.73327
4437,6,0,34,-90,-43,-27,8,-9,0.143066,-0.44043,0.867188,-1.375,2.375,3.25,-0.472958,-0.134306,-1.73327
4437,-49,-5,3,2,53,-16,-25,-23,0.143066,-0.44043,0.867188,-1.375,2.375,3.25,-0.472958,-0.134306,-1.73327
4452,-11,18,86,-45,-3,7,20,16,0.0917969,-0.447266,0.850586,-6.875,3.75,0.0625,-0.475494,-0.132259,-1.73377
4452,18,-17,-44,-25,-68,-9,-22,-4,0.0917969,-0.447266,0.850586,-6.875,3.75,0.0625,-0.475494,-0.132259,-1.73377
4452,-15,-4,-75,-3,-17,4,-5,-29,0.0917969,-0.447266,0.850586,-6.875,3.75,0.0625,-0.475494,-0.132259,-1.73377
4452,-64,-22,-33,-14,21,5,7,48,0.0917969,-0.447266,0.850586,-6.875,3.75,0.0625,-0.475494,-0.132259,-1.73377
4475,38,0,6,-18,37,-21,2,-8,0.114258,-0.395996,0.836914,0.4375,5,-0.1875,-0.474408,-0.130528,-1.7348
4475,2,-5,-30,-19,-73,-9,-27,-9,0.114258,-0.395996,0.836914,0.4375,5,-0.1875,-0.474408,-0.130528,-1.7348
4475,-2,0,-3,22,55,1,23,5,0.114258,-0.395996,0.836914,0.4375,5,-0.1875,-0.474408,-0.130528,-1.7348
4475,3,-13,-52,-128,-86,1,-8,-10,0.114258,-0.395996,0.836914,0.4375,5,-0.1875,-0.474408,-0.130528,-1.7348
4489,14,15,20,83,127,40,-2,1,0.145508,-0.423828,0.85498,2.4375,5.75,4.4375,-0.473302,-0.128522,-1.7343
4489,19,4,57,49,-54,-42,14,34,0.145508,-0.423828,0.85498,2.4375,5.75,4.4375,-0.473302,-0.128522,-1.7343
4497,4,-2,-32,-7,17,9,-28,-11,0.145508,-0.423828,0.85498,2.4375,5.75,4.4375,-0.473302,-0.128522,-1.7343
4497,-13,10,52,79,114,32,20,-12,0.145508,-0.423828,0.85498,2.4375,5.75,4.4375,-0.473302,-0.128522,-1.7343
4511,22,10,33,36,-5,-9,-38,16,0.119629,-0.462402,0.880371,-3.8125,5.5625,1.8125,-0.474761,-0.126344,-1.73462
4511,-35,5,35,-110,-104,-62,1,-26,0.119629,-0.462402,0.880371,-3.8125,5.5625,1.8125,-0.474761,-0.126344,-1.73462
4512,10,-3,-21,-52,-37,-38,15,4,0.119629,-0.462402,0.880371,-3.8125,5.5625,1.8125,-0.474761,-0.126344,-1.73462
4512,-5,4,74,127,127,61,-19,-10,0.119629,-0.462402,0.880371,-3.8125,5.5625,1.8125,-0.474761,-0.126344,-1.73462
4534,32,21,13,-29,-35,-3,41,27,0.114746,-0.422852,0.855957,-0.8125,3.9375,0,-0.474647,-0.12505,-1.73521
4534,-8,-9,-68,40,15,8,-18,2,0.114746,-0.422852,0.855957,-0.8125,3.9375,0,-0.474647,-0.12505,-1.73521
4535,-20,-3,59,-69,-36,-13,-10,-23,0.114746,-0.422852,0.855957,-0.8125,3.9375,0,-0.474647,-0.12505,-1.73521
4535,19,-5,-40,-48,-84,-2,21,5,0.114746,-0.422852,0.855957,-0.8125,3.9375,0,-0.474647,-0.12505,-1.73521
4548,-6,-2,12,-30,94,-14,1,0,0.108887,-0.408203,0.868164,-0.0625,0.375,2.25,-0.473931,-0.124236,-1.73477
4548,-6,1,31,-9,41,46,-10,-8,0.108887,-0.408203,0.868164,-0.0625,0.375,2.25,-0.473931,-0.124236,-1.73477
4556,-1,-7,-10,46,8,-13,-3,-3,0.108887,-0.408203,0.868164,-0.0625,0.375,2.25,-0.473931,-0.124236,-1.73477
4556,-4,-7,-2,-13,-50,6,-29,-12,0.108887,-0.408203,0.868164,-0.0625,0.375,2.25,-0.473931,-0.124236,-1.73477
4571,-22,-9,-7,-64,-69,-34,-23,-6,0.160156,-0.440918,0.874512,-0.375,1.8125,3,-0.473956,-0.12407,-1.73403
4571,3,-4,-23,-60,-78,3,-5,-7,0.160156,-0.440918,0.874512,-0.375,1.8125,3,-0.473956,-0.12407,-1.73403
4572,2,-2,-23,33,36,-11,2,3,0.160156,-0.440918,0.874512,-0.375,1.8125,3,-0.473956,-0.12407,-1.73403
4572,28,8,18,33,-1,-17,-20,7,0.160156,-0.440918,0.874512,-0.375,1.8125,3,-0.473956,-0.12407,-1.73403
4603,-23,-4,-96,-76,-86,-62,-8,-15,0.126953,-0.459473,0.88623,-0.625,4.25,2.25,-0.47425,-0.122474,-1.73397
4603,-1,-19,20,7,127,52,-22,-15,0.126953,-0.459473,0.88623,-0.625,4.25,2.25,-0.47425,-0.122474,-1.73397
4604,23,-1,-10,-31,-88,-14,5,18,0.126953,-0.459473,0.88623,-0.625,4.25,2.25,-0.47425,-0.122474,-1.73397
4604,-32,6,74,-10,10,-14,11,-7,0.126953,-0.459473,0.88623,-0.625,4.25,2.25,-0.47425,-0.122474,-1.73397
4608,32,-7,-23,116,127,36,31,19,0.0966797,-0.414551,0.870117,1.1875,6.875,2.125,-0.473097,-0.11956,-1.73459
4608,6,17,27,6,-44,-19,0,-1,0.0966797,-0.414551,0.870117,1.1875,6.875,2.125,-0.473097,-0.11956,-1.73459
4617,-6,-20,-64,-61,-95,7,0,7,0.0966797,-0.414551,0.870117,1.1875,6.875,2.125,-0.473097,-0.11956,-1.73459
4617,8,3,9,-85,-46,-36,-18,-19,0.0966797,-0.414551,0.870117,1.1875,6.875,2.125,-0.473097,-0.11956,-1.73459
4632,-20,2,25,95,62,60,33,10,0.105469,-0.413574,0.852539,-1.625,1.5,3.625,-0.473204,-0.118287,-1.73367
4632,-23,0,-27,19,64,13,-12,-13,0.105469,-0.413574,0.852539,-1.625,1.5,3.625,-0.473204,-0.118287,-1.73367
4632,19,5,26,-8,-4,-5,0,12,0.105469,-0.413574,0.852539,-1.625,1.5,3.625,-0.473204,-0.118287,-1.73367
4632,-10,-11,-24,-75,-106,-64,4,-5,0.105469,-0.413574,0.852539,-1.625,1.5,3.625,-0.473204,-0.118287,-1.73367
4655,-10,-10,-18,22,22,9,-10,-18,0.162109,-0.461426,0.87793,2.1875,3.625,3.25,-0.472713,-0.117785,-1.73325
4655,18,13,31,17,7,58,-17,3,0.162109,-0.461426,0.87793,2.1875,3.625,3.25,-0.472713,-0.117785,-1.73325
4655,-12,-11,4,-2,-30,-7,-8,-10,0.162109,-0.461426,0.87793,2.1875,3.625,3.25,-0.472713,-0.117785,-1.73325
4655,-10,-9,-71,-52,24,-25,2,12,0.162109,-0.461426,0.87793,2.1875,3.625,3.25,-0.472713,-0.117785,-1.73325
4677,8,-7,26,-36,-128,-16,-21,-7,0.0683594,-0.430664,0.870117,-0.0625,6.25,4.375,-0.472434,-0.114102,-1.73285
4677,1,15,54,19,78,10,18,9,0.0683594,-0.430664,0.870117,-0.0625,6.25,4.375,-0.472434,-0.114102,-1.73285
4678,4,11,-23,119,84,36,20,4,0.0683594,-0.430664,0.870117,-0.0625,6.25,4.375,-0.472434,-0.114102,-1.73285
4678,29,12,6,30,72,28,0,9,0.0683594,-0.430664,0.870117,-0.0625,6.25,4.375,-0.472434,-0.114102,-1.73285
4691,-7,-9,-3,-53,-52,-19,-15,4,0.0673828,-0.460449,0.853516,-0.9375,7.5625,4.25,-0.473351,-0.110139,-1.73276
4691,-33,-4,35,-68,-24,-12,10,-19,0.0673828,-0.460449,0.853516,-0.9375,7.5625,4.25,-0.473351,-0.110139,-1.73276
4692,6,9,21,-37,-103,-59,-22,6,0.0673828,-0.460449,0.853516,-0.9375,7.5625,4.25,-0.473351,-0.110139,-1.73276
4692,-6,-9,-69,101,114,79,33,0,0.0673828,-0.460449,0.853516,-0.9375,7.5625,4.25,-0.473351,-0.110139,-1.73276
4722,11,1,13,-100,-69,-11,10,-7,0.0947266,-0.423828,0.855469,6.125,4.5,6.9375,-0.471084,-0.107439,-1.73134
4722,20,5,14,104,80,7,-12,-1,0.0947266,-0.423828,0.855469,6.125,4.5,6.9375,-0.471084,-0.107439,-1.73134
4723,1,1,38,-10,38,39,6,15,0.0947266,-0.423828,0.855469,6.125,4.5,6.9375,-0.471084,-0.107439,-1.73134
4723,-9,-8,2,-25,-53,-29,25,0,0.0947266,-0.423828,0.855469,6.125,4.5,6.9375,-0.471084,-0.107439,-1.73134
4737,-2,13,25,-32,24,-8,12,-4,0.114258,-0.437988,0.860352,1.0625,3.9375,7.125,-0.470834,-0.105324,-1.7297
4737,-1,-13,-7,1,-51,-16,11,4,0.114258,-0.437988,0.860352,1.0625,3.9375,7.125,-0.470834,-0.105324,-1.7297
4738,24,-2,-32,-38,25,-56,-19,-2,0.114258,-0.437988,0.860352,1.0625,3.9375,7.125,-0.470834,-0.105324,-1.7297
4738,1,6,28,64,37,73,-1,-3,0.114258,-0.437988,0.860352,1.0625,3.9375,7.125,-0.470834,-0.105324,-1.7297
4752,-28,-7,-24,-29,-26,-27,13,0,0.103027,-0.418945,0.858398,-1.5,6.25,4.5,-0.471022,-0.102734,-1.72923
4752,26,6,7,-30,-46,-25,7,2,0.103027,-0.418945,0.858398,-1.5,6.25,4.5,-0.471022,-0.102734,-1.72923
4753,-21,-14,-41,41,70,16,-4,2,0.103027,-0.418945,0.858398,-1.5,6.25,4.5,-0.471022,-0.102734,-1.72923
4753,-20,-17,38,-128,-74,-13,-16,-22,0.103027,-0.418945,0.858398,-1.5,6.25,4.5,-0.471022,-0.102734,-1.72923
4775,24,5,23,120,-51,-4,-1,3,0.0966797,-0.407227,0.85498,2.125,6.25,2.4375,-0.469645,-0.100457,-1.72952
4775,-12,2,66,77,85,34,6,1,0.0966797,-0.407227,0.85498,2.125,6.25,2.4375,-0.469645,-0.100457,-1.72952
4775,20,16,21,93,58,35,13,7,0.0966797,-0.407227,0.85498,2.125,6.25,2.4375,-0.469645,-0.100457,-1.72952
4775,7,8,40,-29,-53,-12,14,7,0.0966797,-0.407227,0.85498,2.125,6.25,2.4375,-0.469645,-0.100457,-1.72952
4805,-47,-15,-74,-74,-40,-4,7,-8,0.0996094,-0.428223,0.869141,0.8125,1.1875,3.125,-0.469103,-0.0995991,-1.72877
4805,10,-14,-32,4,-31,-21,-23,-2,0.0996094,-0.428223,0.869141,0.8125,1.1875,3.125,-0.469103,-0.0995991,-1.72877
4806,-17,-4,16,-98,-44,-15,-21,-19,0.0996094,-0.428223,0.869141,0.8125,1.1875,3.125,-0.469103,-0.0995991,-1.72877
4806,32,11,5,-18,-42,-50,-4,11,0.0996094,-0.428223,0.869141,0.8125,1.1875,3.125,-0.469103,-0.0995991,-1.72877
4812,-14,-5,-46,-34,35,35,-1,-26,0.0942383,-0.441895,0.868164,-1,-0.0625,3,-0.469611,-0.0991405,-1.72779
4812,10,-2,-8,50,48,24,-10,7,0.0942383,-0.441895,0.868164,-1,-0.0625,3,-0.469611,-0.0991405,-1.72779
4812,-28,2,45,9,25,-12,11,4,0.0942383,-0.441895,0.868164,-1,-0.0625,3,-0.469611,-0.0991405,-1.72779
4812,5,5,11,-4,-30,23,-23,0,0.0942383,-0.441895,0.868164,-1,-0.0625,3,-0.469611,-0.0991405,-1.72779
4835,12,0,-16,-115,-22,-40,9,9,0.0751953,-0.458984,0.848145,-3.75,0.875,3.3125,-0.471515,-0.0978437,-1.7269
4835,-10,2,-34,38,64,10,-22,-18,0.0751953,-0.458984,0.848145,-3.75,0.875,3.3125,-0.471515,-0.0978437,-1.7269
4835,-5,-21,-49,-13,-56,29,1,6,0.0751953,-0.458984,0.848145,-3.75,0.875,3.3125,-0.471515,-0.0978437,-1.7269
4835,-25,-6,16,43,40,-14,0,-8,0.0751953,-0.458984,0.848145,-3.75,0.875,3.3125,-0.471515,-0.0978437,-1.7269
4858,10,7,32,-81,-42,-17,-12,17,0.0913086,-0.411133,0.838867,1.0625,-2.0625,2.75,-0.470903,-0.0979698,-1.72577
4858,6,0,13,8,21,-1,-2,-15,0.0913086,-0.411133,0.838867,1.0625,-2.0625,2.75,-0.470903,-0.0979698,-1.72577
4858,23,2,17,68,35,12,11,14,0.0913086,-0.411133,0.838867,1.0625,-2.0625,2.75,-0.470903,-0.0979698,-1.72577
4858,13,-2,-14,25,-82,-91,-11,7,0.0913086,-0.411133,0.838867,1.0625,-2.0625,2.75,-0.470903,-0.0979698,-1.72577
4879,-44,-14,-29,-50,50,69,-9,-17,0.114746,-0.403809,0.864746,-2,-6.1875,2.625,-0.471022,-0.10003,-1.72402
4879,10,9,-21,37,-65,-3,20,8,0.114746,-0.403809,0.864746,-2,-6.1875,2.625,-0.471022,-0.10003,-1.72402
4880,12,4,-1,-33,22,-21,-15,4,0.114746,-0.403809,0.864746,-2,-6.1875,2.625,-0.471022,-0.10003,-1.72402
4880,-19,0,6,41,90,26,11,-11,0.114746,-0.403809,0.864746,-2,-6.1875,2.625,-0.471022,-0.10003,-1.72402
4896,65,10,54,-31,-29,24,3,13,0.0898438,-0.443848,0.887207,-8,-7.4375,-0.125,-0.47369,-0.102046,-1.7229
4896,-36,-8,-67,5,-45,-29,9,1,0.0898438,-0.443848,0.887207,-8,-7.4375,-0.125,-0.47369,-0.102046,-1.7229
4897,-78,8,57,-1,74,10,-6,-24,0.0898438,-0.443848,0.887207,-8,-7.4375,-0.125,-0.47369,-0.102046,-1.7229
4897,105,17,-26,-21,30,47,-8,27,0.0898438,-0.443848,0.887207,-8,-7.4375,-0.125,-0.47369,-0.102046,-1.7229
4917,-105,-9,57,72,-16,-29,5,-22,0.102539,-0.465332,0.865234,-11.5,-8.625,-1.4375,-0.478181,-0.104869,-1.72187
4917,52,8,57,-56,-74,-4,14,36,0.102539,-0.465332,0.865234,-11.5,-8.625,-1.4375,-0.478181,-0.104869,-1.72187
4933,-55,-12,40,-68,-100,-12,-4,-21,0.102539,-0.465332,0.865234,-11.5,-8.625,-1.4375,-0.478181,-0.104869,-1.72187
4933,-16,-16,-80,-95,-72,-49,-15,-11,0.102539,-0.465332,0.865234,-11.5,-8.625,-1.4375,-0.478181,-0.104869,-1.72187
4934,29,-2,-4,48,82,79,16,5,0.0952148,-0.411621,0.819824,-6.9375,-10.5,-0.0625,-0.480363,-0.108041,-1.72023
4934,-5,-3,16,-19,-17,-24,0,-7,0.0952148,-0.411621,0.819824,-6.9375,-10.5,-0.0625,-0.480363,-0.108041,-1.72023
4936,28,13,-34,6,-31,11,5,14,0.0952148,-0.411621,0.819824,-6.9375,-10.5,-0.0625,-0.480363,-0.108041,-1.72023
4936,0,-4,45,-35,15,-14,-18,-1,0.0952148,-0.411621,0.819824,-6.9375,-10.5,-0.0625,-0.480363,-0.108041,-1.72023
4955,-34,-2,3,62,43,-31,1,3,0.0986328,-0.429199,0.825684,-3.9375,-5.375,3,-0.481891,-0.10906,-1.71843
4955,-20,-8,-18,-37,-11,-3,17,-11,0.0986328,-0.429199,0.825684,-3.9375,-5.375,3,-0.481891,-0.10906,-1.71843
4956,30,13,41,31,17,37,21,-5,0.0986328,-0.429199,0.825684,-3.9375,-5.375,3,-0.481891,-0.10906,-1.71843
4956,-24,-5,-46,1,85,23,-26,-18,0.0986328,-0.429199,0.825684,-3.9375,-5.375,3,-0.481891,-0.10906,-1.71843
4977,74,-3,-43,55,68,0,2,37,0.110352,-0.480957,0.885742,-1.875,-2.3125,1.75,-0.482963,-0.109453,-1.71745
4977,-10,15,49,-26,-20,-1,21,8,0.110352,-0.480957,0.885742,-1.875,-2.3125,1.75,-0.482963,-0.109453,-1.71745
4977,-63,-20,-57,47,0,-29,-18,-19,0.110352,-0.480957,0.885742,-1.875,-2.3125,1.75,-0.482963,-0.109453,-1.71745
4977,8,-4,-35,-69,-116,-41,-8,-5,0.110352,-0.480957,0.885742,-1.875,-2.3125,1.75,-0.482963,-0.109453,-1.71745
4992,-11,1,30,127,127,-3,-43,-30,0.141113,-0.45752,0.853027,-5.3125,-3.1875,0.4375,-0.485038,-0.111245,-1.71681
4992,11,-1,20,27,60,20,7,11,0.141113,-0.45752,0.853027,-5.3125,-3.1875,0.4375,-0.485038,-0.111245,-1.71681
4992,31,0,-17,-73,-96,1,6,9,0.141113,-0.45752,0.853027,-5.3125,-3.1875,0.4375,-0.485038,-0.111245,-1.71681
4992,-32,-11,-5,-8,30,25,1,-5,0.141113,-0.45752,0.853027,-5.3125,-3.1875,0.4375,-0.485038,-0.111245,-1.71681
5015,20,-2,-43,-70,-93,-19,-1,5,0.111816,-0.399902,0.85791,-6.125,-5.5625,1.0625,-0.486134,-0.112919,-1.71559
5015,5,-16,-54,-128,-128,-20,-7,-5,0.111816,-0.399902,0.85791,-6.125,-5.5625,1.0625,-0.486134,-0.112919,-1.71559
5015,14,-8,32,-16,118,22,-13,-17,0.111816,-0.399902,0.85791,-6.125,-5.5625,1.0625,-0.486134,-0.112919,-1.71559
5015,-6,11,49,127,69,42,32,15,0.111816,-0.399902,0.85791,-6.125,-5.5625,1.0625,-0.486134,-0.112919,-1.71559
5038,7,8,39,-32,-1,-5,5,-3,0.124023,-0.431152,0.874512,0.4375,-2.5,0.6875,-0.485391,-0.113789,-1.71506
5038,-9,-7,-17,-33,-74,-76,-17,-2,0.124023,-0.431152,0.874512,0.4375,-2.5,0.6875,-0.485391,-0.113789,-1.71506
5038,21,3,-2,-49,63,26,-7,2,0.124023,-0.431152,0.874512,0.4375,-2.5,0.6875,-0.485391,-0.113789,-1.71506
5038,-2,10,27,-41,-37,56,-6,1,0.124023,-0.431152,0.874512,0.4375,-2.5,0.6875,-0.485391,-0.113789,-1.71506
5060,19,15,79,-11,-65,-25,18,-1,0.101074,-0.427246,0.88623,-0.1875,-3.9375,-1.8125,-0.484603,-0.114973,-1.71505
5060,-55,-14,-16,66,66,1,-3,-12,0.101074,-0.427246,0.88623,-0.1875,-3.9375,-1.8125,-0.484603,-0.114973,-1.71505
5060,-2,1,25,-48,-115,-70,-20,12,0.101074,-0.427246,0.88623,-0.1875,-3.9375,-1.8125,-0.484603,-0.114973,-1.71505
5060,18,-5,-12,-13,-38,25,-5,-38,0.101074,-0.427246,0.88623,-0.1875,-3.9375,-1.8125,-0.484603,-0.114973,-1.71505
5083,8,5,20,79,84,9,1,15,0.0800781,-0.45166,0.875977,-0.5,-3.75,-1.3125,-0.484486,-0.115553,-1.71492
5083,0,1,-22,-128,17,11,-7,-2,0.0800781,-0.45166,0.875977,-0.5,-3.75,-1.3125,-0.484486,-0.115553,-1.71492
5084,5,-9,-73,50,-35,-15,-3,-7,0.0800781,-0.45166,0.875977,-0.5,-3.75,-1.3125,-0.484486,-0.115553,-1.71492
5084,12,14,57,127,39,-7,20,24,0.0800781,-0.45166,0.875977,-0.5,-3.75,-1.3125,-0.484486,-0.115553,-1.71492
5104,10,-4,-24,0,-16,-21,8,1,0.0766602,-0.455078,0.860352,2.5,-5.6875,2.0625,-0.4839,-0.116077,-1.71332
5104,-24,-4,5,-109,-24,24,-32,-26,0.0766602,-0.455078,0.860352,2.5,-5.6875,2.0625,-0.4839,-0.116077,-1.71332
5105,6,-1,2,91,34,28,9,19,0.0766602,-0.455078,0.860352,2.5,-5.6875,2.0625,-0.4839,-0.116077,-1.71332
5105,3,8,43,62,36,-11,7,-1,0.0766602,-0.455078,0.860352,2.5,-5.6875,2.0625,-0.4839,-0.116077,-1.71332
5111,-2,-22,-96,-95,-111,-46,9,-3,0.101074,-0.46875,0.848145,-1.3125,-7.8125,1.5,-0.484941,-0.11785,-1.71148
5111,-25,-14,-25,52,64,-17,-29,14,0.101074,-0.46875,0.848145,-1.3125,-7.8125,1.5,-0.484941,-0.11785,-1.71148
5112,-27,14,78,-18,10,38,-1,-25,0.101074,-0.46875,0.848145,-1.3125,-7.8125,1.5,-0.484941,-0.11785,-1.71148
5112,-14,-5,-18,-16,0,-3,4,7,0.101074,-0.46875,0.848145,-1.3125,-7.8125,1.5,-0.484941,-0.11785,-1.71148
5135,-4,-7,4,-54,-19,-63,-38,-6,0.14209,-0.438965,0.836426,1.125,-5.4375,0.875,-0.484688,-0.12006,-1.71043
5135,45,17,-17,113,95,92,34,12,0.14209,-0.438965,0.836426,1.125,-5.4375,0.875,-0.484688,-0.12006,-1.71043
5135,33,11,28,14,-41,-10,19,18,0.14209,-0.438965,0.836426,1.125,-5.4375,0.875,-0.484688,-0.12006,-1.71043
5135,-23,-11,-6,-42,-37,-46,-15,-14,0.14209,-0.438965,0.836426,1.125,-5.4375,0.875,-0.484688,-0.12006,-1.71043
5158,-24,3,-9,-20,79,28,0,-7,0.123047,-0.444336,0.848633,-2.0625,-4.5625,-0.1875,-0.485432,-0.121645,-1.70973
5158,-21,-7,-29,32,39,2,3,6,0.123047,-0.444336,0.848633,-2.0625,-4.5625,-0.1875,-0.485432,-0.121645,-1.70973
5159,4,-3,-29,20,8,17,5,-9,0.123047,-0.444336,0.848633,-2.0625,-4.5625,-0.1875,-0.485432,-0.121645,-1.70973
5159,-1,15,114,12,-36,-20,22,20,0.123047,-0.444336,0.848633,-2.0625,-4.5625,-0.1875,-0.485432,-0.121645,-1.70973
5172,10,-6,-72,-96,-66,18,2,-10,0.137695,-0.459961,0.870605,0,-4.75,-2.625,-0.485398,-0.123871,-1.70971
5172,-17,-10,-23,-33,-100,-57,-31,-21,0.137695,-0.459961,0.870605,0,-4.75,-2.625,-0.485398,-0.123871,-1.70971
5173,3,-10,4,-92,-87,-21,-4,5,0.137695,-0.459961,0.870605,0,-4.75,-2.625,-0.485398,-0.123871,-1.70971
5173,-10,4,32,89,115,95,10,-12,0.137695,-0.459961,0.870605,0,-4.75,-2.625,-0.485398,-0.123871,-1.70971
5202,24,18,12,20,1,0,10,22,0.129395,-0.448242,0.866699,-0.6875,-4.25,-1.6875,-0.485502,-0.125624,-1.7096
5202,6,3,1,-25,-57,-35,11,-2,0.129395,-0.448242,0.866699,-0.6875,-4.25,-1.6875,-0.485502,-0.125624,-1.7096
5209,11,0,8,-99,-97,-45,-12,-8,0.129395,-0.448242,0.866699,-0.6875,-4.25,-1.6875,-0.485502,-0.125624,-1.7096
5209,6,-21,-96,-51,14,1,-14,-3,0.129395,-0.448242,0.866699,-0.6875,-4.25,-1.6875,-0.485502,-0.125624,-1.7096
5216,-62,4,92,74,52,30,-14,-21,0.102539,-0.445312,0.859863,-3.625,-3.75,0.6875,-0.486577,-0.126222,-1.70877
5216,29,3,65,3,-46,-14,9,2,0.102539,-0.445312,0.859863,-3.625,-3.75,0.6875,-0.486577,-0.126222,-1.70877
5225,0,-16,-94,-104,-35,-30,-7,-4,0.102539,-0.445312,0.859863,-3.625,-3.75,0.6875,-0.486577,-0.126222,-1.70877
5225,5,1,-10,80,112,25,-5,1,0.102539,-0.445312,0.859863,-3.625,-3.75,0.6875,-0.486577,-0.126222,-1.70877
5231,9,16,86,85,-6,6,22,13,0.11377,-0.435547,0.851074,3,-3.9375,0.5625,-0.485399,-0.127085,-1.70796
5231,15,5,-23,-70,-7,-43,-4,2,0.11377,-0.435547,0.851074,3,-3.9375,0.5625,-0.485399,-0.127085,-1.70796
5240,11,-4,16,36,34,50,4,15,0.11377,-0.435547,0.851074,3,-3.9375,0.5625,-0.485399,-0.127085,-1.70796
5240,-53,-3,33,-18,-27,-17,-11,-25,0.11377,-0.435547,0.851074,3,-3.9375,0.5625,-0.485399,-0.127085,-1.70796
5255,11,6,-2,-3,-3,-8,-6,1,0.123535,-0.414551,0.843262,2.0625,-6.75,-0.125,-0.484084,-0.129244,-1.70708
5255,13,-1,7,-60,-72,-2,10,5,0.123535,-0.414551,0.843262,2.0625,-6.75,-0.125,-0.484084,-0.129244,-1.70708
5255,23,-10,-16,-23,9,-10,4,6,0.123535,-0.414551,0.843262,2.0625,-6.75,-0.125,-0.484084,-0.129244,-1.70708
5255,-43,-2,-30,16,53,-6,6,-5,0.123535,-0.414551,0.843262,2.0625,-6.75,-0.125,-0.484084,-0.129244,-1.70708
5284,-4,-11,1,33,0,2,-29,-1,0.128418,-0.432129,0.830078,0.5625,-7.3125,-3.4375,-0.483849,-0.132129,-1.70692
5284,5,9,13,-2,-27,-6,6,1,0.128418,-0.432129,0.830078,0.5625,-7.3125,-3.4375,-0.483849,-0.132129,-1.70692
5285,11,-5,0,-34,11,1,-4,-6,0.128418,-0.432129,0.830078,0.5625,-7.3125,-3.4375,-0.483849,-0.132129,-1.70692
5285,13,-1,-12,65,41,-13,7,5,0.128418,-0.432129,0.830078,0.5625,-7.3125,-3.4375,-0.483849,-0.132129,-1.70692
5291,1,7,46,0,-21,9,0,3,0.112793,-0.436035,0.834961,0.5,-7.9375,-5.5,-0.483502,-0.135051,-1.70731
5291,5,8,-14,47,81,27,-1,4,0.112793,-0.436035,0.834961,0.5,-7.9375,-5.5,-0.483502,-0.135051,-1.70731
5299,-1,-4,16,-3,-59,-14,5,2,0.112793,-0.436035,0.834961,0.5,-7.9375,-5.5,-0.483502,-0.135051,-1.70731
5299,-33,-22,-84,-116,-48,-7,-5,-14,0.112793,-0.436035,0.834961,0.5,-7.9375,-5.5,-0.483502,-0.135051,-1.70731
5315,15,0,-3,13,3,-3,-5,-10,0.116211,-0.421875,0.830566,3.0625,-9.75,-6.125,-0.482115,-0.138677,-1.70759
5315,-27,-8,-4,48,76,37,2,-3,0.116211,-0.421875,0.830566,3.0625,-9.75,-6.125,-0.482115,-0.138677,-1.70759
5315,-14,8,13,65,15,-10,8,-6,0.116211,-0.421875,0.830566,3.0625,-9.75,-6.125,-0.482115,-0.138677,-1.70759
5315,16,1,14,-99,-80,-18,-9,11,0.116211,-0.421875,0.830566,3.0625,-9.75,-6.125,-0.482115,-0.138677,-1.70759
5338,38,6,-13,14,22,18,19,14,0.107422,-0.42041,0.820312,1,-13.0625,-5.8125,-0.48165,-0.143107,-1.70731
5338,3,-5,-54,40,-19,22,26,-6,0.107422,-0.42041,0.820312,1,-13.0625,-5.8125,-0.48165,-0.143107,-1.70731
5339,-52,1,3,-3,86,-3,-38,-14,0.133789,-0.450684,0.831543,-2.25,-16.8125,-8.6875,-0.482775,-0.149434,-1.70728
5339,9,2,27,33,-11,-2,7,-1,0.133789,-0.450684,0.831543,-2.25,-16.8125,-8.6875,-0.482775,-0.149434,-1.70728
5360,-10,5,-2,34,25,14,18,9,0.133789,-0.450684,0.831543,-2.25,-16.8125,-8.6875,-0.482775,-0.149434,-1.70728
5360,22,1,11,-52,-65,-4,-11,4,0.133789,-0.450684,0.831543,-2.25,-16.8125,-8.6875,-0.482775,-0.149434,-1.70728
5361,-7,2,-12,-2,6,-14,1,6,0.131348,-0.425781,0.830078,-4.75,-21.125,-11.6875,-0.484145,-0.15746,-1.70746
5361,12,6,30,-15,-10,37,2,-12,0.131348,-0.425781,0.830078,-4.75,-21.125,-11.6875,-0.484145,-0.15746,-1.70746
5373,3,-24,-94,-128,-116,-34,-11,-5,0.131348,-0.425781,0.830078,-4.75,-21.125,-11.6875,-0.484145,-0.15746,-1.70746
5373,-18,-2,65,121,127,48,2,-15,0.131348,-0.425781,0.830078,-4.75,-21.125,-11.6875,-0.484145,-0.15746,-1.70746
5383,23,17,12,75,67,23,27,14,0.129883,-0.429199,0.829102,-2.375,-23.9375,-11.0625,-0.484855,-0.165974,-1.70703
5383,11,-9,-48,-15,-23,-30,-13,7,0.129883,-0.429199,0.829102,-2.375,-23.9375,-11.0625,-0.484855,-0.165974,-1.70703
5397,-1,-8,-23,-65,-43,-26,-14,-2,0.129883,-0.429199,0.829102,-2.375,-23.9375,-11.0625,-0.484855,-0.165974,-1.70703
5397,3,-9,-60,-59,-21,-45,-17,2,0.129883,-0.429199,0.829102,-2.375,-23.9375,-11.0625,-0.484855,-0.165974,-1.70703
5399,-2,6,41,50,53,51,-3,-14,0.145508,-0.433105,0.837891,-3.8125,-29.875,-11.8125,-0.486133,-0.176607,-1.70586
5399,2,12,21,107,31,6,18,16,0.145508,-0.433105,0.837891,-3.8125,-29.875,-11.8125,-0.486133,-0.176607,-1.70586
5411,18,-2,-47,-16,17,0,1,-3,0.145508,-0.433105,0.837891,-3.8125,-29.875,-11.8125,-0.486133,-0.176607,-1.70586
5411,-18,-8,1,-69,-103,-30,-13,5,0.145508,-0.433105,0.837891,-3.8125,-29.875,-11.8125,-0.486133,-0.176607,-1.70586
5420,-43,-6,-16,17,27,-35,5,-8,0.161133,-0.409668,0.816895,-5.8125,-37.4375,-13.375,-0.487916,-0.189946,-1.70387
5420,15,-9,-15,-79,-55,19,-18,-7,0.161133,-0.409668,0.816895,-5.8125,-37.4375,-13.375,-0.487916,-0.189946,-1.70387
5434,-11,0,33,52,57,7,5,6,0.161133,-0.409668,0.816895,-5.8125,-37.4375,-13.375,-0.487916,-0.189946,-1.70387
5434,13,2,-44,-7,59,-2,14,-5,0.161133,-0.409668,0.816895,-5.8125,-37.4375,-13.375,-0.487916,-0.189946,-1.70387
5442,-3,-1,14,-51,-62,-31,-35,-10,0.177246,-0.42627,0.810059,-6.5625,-40.875,-17.4375,-0.490357,-0.205134,-1.7026
5442,2,9,30,118,28,9,27,8,0.177246,-0.42627,0.810059,-6.5625,-40.875,-17.4375,-0.490357,-0.205134,-1.7026
5457,-5,-14,-27,-49,-33,-29,-3,-2,0.177246,-0.42627,0.810059,-6.5625,-40.875,-17.4375,-0.490357,-0.205134,-1.7026
5457,-3,3,54,-34,4,13,-4,-1,0.177246,-0.42627,0.810059,-6.5625,-40.875,-17.4375,-0.490357,-0.205134,-1.7026
5458,-71,-13,-24,30,29,9,10,1,0.165039,-0.40918,0.81543,-1.875,-42.875,-20.5625,-0.490626,-0.220658,-1.70197
5458,54,3,25,-52,-58,-53,-14,1,0.165039,-0.40918,0.81543,-1.875,-42.875,-20.5625,-0.490626,-0.220658,-1.70197
5480,-16,-4,4,77,99,47,12,-12,0.165039,-0.40918,0.81543,-1.875,-42.875,-20.5625,-0.490626,-0.220658,-1.70197
5480,-7,16,43,100,76,12,1,14,0.165039,-0.40918,0.81543,-1.875,-42.875,-20.5625,-0.490626,-0.220658,-1.70197
5481,24,-9,19,-47,-89,-22,-13,-14,0.152344,-0.411621,0.788086,-4.5,-53.1875,-19.9375,-0.492465,-0.23887,-1.69927
5481,17,2,16,-42,5,3,-10,-1,0.152344,-0.411621,0.788086,-4.5,-53.1875,-19.9375,-0.492465,-0.23887,-1.69927
5494,-50,3,14,61,28,11,12,-4,0.152344,-0.411621,0.788086,-4.5,-53.1875,-19.9375,-0.492465,-0.23887,-1.69927
5494,31,17,67,51,27,31,14,3,0.152344,-0.411621,0.788086,-4.5,-53.1875,-19.9375,-0.492465,-0.23887,-1.69927
5502,48,-7,-63,-36,-63,-16,18,13,0.138184,-0.410156,0.782227,-0.875,-57.375,-22.0625,-0.493348,-0.257895,-1.69662
5502,-35,-16,-46,-128,-115,-24,-24,-8,0.138184,-0.410156,0.782227,-0.875,-57.375,-22.0625,-0.493348,-0.257895,-1.69662
5518,17,-8,21,-20,4,-30,-22,6,0.138184,-0.410156,0.782227,-0.875,-57.375,-22.0625,-0.493348,-0.257895,-1.69662
5518,-44,-2,-48,89,94,43,3,-16,0.138184,-0.410156,0.782227,-0.875,-57.375,-22.0625,-0.493348,-0.257895,-1.69662
5519,57,24,79,90,49,15,1,12,0.189941,-0.40332,0.79248,-2.375,-60.125,-29.5625,-0.49378,-0.279753,-1.69586
5519,43,0,-91,-3,1,2,41,14,0.189941,-0.40332,0.79248,-2.375,-60.125,-29.5625,-0.49378,-0.279753,-1.69586
5531,-60,-8,21,-64,-86,-32,-56,-11,0.189941,-0.40332,0.79248,-2.375,-60.125,-29.5625,-0.49378,-0.279753,-1.69586
5531,-54,-9,1,-58,-69,-10,-16,-27,0.189941,-0.40332,0.79248,-2.375,-60.125,-29.5625,-0.49378,-0.279753,-1.69586
5540,95,5,27,10,5,10,33,18,0.22168,-0.375,0.755859,0.0625,-62.875,-33.6875,-0.493055,-0.303562,-1.69605
5540,-39,-10,-53,13,18,13,1,25,0.22168,-0.375,0.755859,0.0625,-62.875,-33.6875,-0.493055,-0.303562,-1.69605
5554,15,3,28,11,26,0,-65,-32,0.22168,-0.375,0.755859,0.0625,-62.875,-33.6875,-0.493055,-0.303562,-1.69605
5554,-62,-7,38,-17,-31,-17,37,4,0.22168,-0.375,0.755859,0.0625,-62.875,-33.6875,-0.493055,-0.303562,-1.69605
5561,-14,1,12,-57,-24,7,-83,-67,0.272461,-0.449219,0.78125,6.375,-67.375,-36.25,-0.491496,-0.329368,-1.69577
5561,5,7,31,99,69,5,9,16,0.272461,-0.449219,0.78125,6.375,-67.375,-36.25,-0.491496,-0.329368,-1.69577
5577,49,13,1,45,-50,12,43,33,0.272461,-0.449219,0.78125,6.375,-67.375,-36.25,-0.491496,-0.329368,-1.69577
5577,32,-13,-29,-54,-49,-31,-27,-10,0.272461,-0.449219,0.78125,6.375,-67.375,-36.25,-0.491496,-0.329368,-1.69577
5584,-63,-20,-69,-111,-49,2,24,10,0.353027,-0.412598,0.75293,10.5625,-72.5,-35.875,-0.488395,-0.35838,-1.69479
5584,18,9,64,64,94,40,29,3,0.353027,-0.412598,0.75293,10.5625,-72.5,-35.875,-0.488395,-0.35838,-1.69479
5600,7,22,49,52,18,7,29,-3,0.353027,-0.412598,0.75293,10.5625,-72.5,-35.875,-0.488395,-0.35838,-1.69479
5600,14,0,8,-57,-36,-6,-4,-18,0.353027,-0.412598,0.75293,10.5625,-72.5,-35.875,-0.488395,-0.35838,-1.69479
5601,-57,-7,-66,32,53,-5,4,14,0.362305,-0.433105,0.729004,3.9375,-77.9375,-34.8125,-0.488855,-0.388435,-1.69228
5601,16,3,-10,-46,-47,-29,-40,-1,0.362305,-0.433105,0.729004,3.9375,-77.9375,-34.8125,-0.488855,-0.388435,-1.69228
5614,-10,-7,4,0,-11,20,23,-18,0.362305,-0.433105,0.729004,3.9375,-77.9375,-34.8125,-0.488855,-0.388435,-1.69228
5614,66,-5,-29,-13,6,-5,0,16,0.362305,-0.433105,0.729004,3.9375,-77.9375,-34.8125,-0.488855,-0.388435,-1.69228
5621,-44,6,31,-15,-42,-9,2,0,0.303711,-0.404297,0.748535,7.6875,-84.125,-34.5,-0.487727,-0.418303,-1.68872
5621,-17,-1,47,21,5,-6,-24,-20,0.303711,-0.404297,0.748535,7.6875,-84.125,-34.5,-0.487727,-0.418303,-1.68872
5637,29,3,61,40,70,6,19,23,0.303711,-0.404297,0.748535,7.6875,-84.125,-34.5,-0.487727,-0.418303,-1.68872
5637,72,-2,-95,-37,-68,-14,-2,36,0.303711,-0.404297,0.748535,7.6875,-84.125,-34.5,-0.487727,-0.418303,-1.68872
5639,-55,-15,-40,-4,79,5,-4,-49,0.213867,-0.415527,0.830566,14.125,-87.75,-32.6875,-0.484124,-0.445674,-1.68433
5639,-1,-1,9,0,87,10,4,9,0.213867,-0.415527,0.830566,14.125,-87.75,-32.6875,-0.484124,-0.445674,-1.68433
5660,18,0,-5,14,-47,-6,10,34,0.213867,-0.415527,0.830566,14.125,-87.75,-32.6875,-0.484124,-0.445674,-1.68433
5660,33,7,20,49,6,-3,-9,24,0.213867,-0.415527,0.830566,14.125,-87.75,-32.6875,-0.484124,-0.445674,-1.68433
