0,0,-6,-1,-2,0,-1,-2,-1,0.995605,-0.0151367,0.162598,-34.1875,12.75,-31.8125,-0.726821,-1.52713,0.957798
0,2,-18,-1,-2,-1,-1,0,-1,0.995605,-0.0151367,0.162598,-34.1875,12.75,-31.8125,-0.726821,-1.52713,0.957798
0,1,-23,-2,1,-2,0,1,-1,0.995605,-0.0151367,0.162598,-34.1875,12.75,-31.8125,-0.726821,-1.52713,0.957798
0,-2,-25,1,-1,1,0,-1,-3,0.995605,-0.0151367,0.162598,-34.1875,12.75,-31.8125,-0.726821,-1.52713,0.957798
1,-2,-21,-1,-1,-1,-1,2,-1,0.995605,-0.0151367,0.162598,-34.1875,12.75,-31.8125,-0.726821,-1.52713,0.957798
1,-1,-13,0,1,0,-1,3,7,0.995605,-0.0151367,0.162598,-34.1875,12.75,-31.8125,-0.726821,-1.52713,0.957798
3,-1,-10,0,0,-2,-4,-12,-10,0.995605,-0.0151367,0.162598,-34.1875,12.75,-31.8125,-0.726821,-1.52713,0.957798
3,-1,-10,-2,-1,0,-3,0,0,0.995605,-0.0151367,0.162598,-34.1875,12.75,-31.8125,-0.726821,-1.52713,0.957798
5,0,-10,-1,-1,-1,-1,0,1,0.984863,-0.00878906,0.173828,-40.75,18.75,-31,-0.419448,-1.52479,0.636009
5,0,-9,0,0,-1,-2,-3,-1,0.984863,-0.00878906,0.173828,-40.75,18.75,-31,-0.419448,-1.52479,0.636009
17,0,-8,0,0,0,0,1,2,0.984863,-0.00878906,0.173828,-40.75,18.75,-31,-0.419448,-1.52479,0.636009
17,0,-3,0,-2,-1,0,-1,-1,0.984863,-0.00878906,0.173828,-40.75,18.75,-31,-0.419448,-1.52479,0.636009
28,-1,-3,-1,0,-1,-1,-3,-1,0.963867,0.00488281,0.186523,-42.75,24.5,-28.125,-0.173721,-1.51647,0.375149
28,1,0,0,-1,-3,-2,-1,-1,0.963867,0.00488281,0.186523,-42.75,24.5,-28.125,-0.173721,-1.51647,0.375149
32,-2,1,2,0,0,-1,0,1,0.963867,0.00488281,0.186523,-42.75,24.5,-28.125,-0.173721,-1.51647,0.375149
32,-1,-1,-2,-1,-2,-1,-2,-2,0.963867,0.00488281,0.186523,-42.75,24.5,-28.125,-0.173721,-1.51647,0.375149
48,1,0,-2,-1,-1,-1,-1,2,0.955078,0.00292969,0.186523,-40.375,29.1875,-24.5,-0.0258133,-1.50302,0.212667
48,-2,3,-1,-1,1,-1,-2,-2,0.955078,0.00292969,0.186523,-40.375,29.1875,-24.5,-0.0258133,-1.50302,0.212667
63,0,1,0,-1,-2,1,2,-2,0.955078,0.00292969,0.186523,-40.375,29.1875,-24.5,-0.0258133,-1.50302,0.212667
63,-2,0,-1,0,-1,-2,0,-1,0.955078,0.00292969,0.186523,-40.375,29.1875,-24.5,-0.0258133,-1.50302,0.212667
64,0,4,-4,-2,-3,-1,-1,-3,0.947754,0.00585938,0.181152,-37.875,33.6875,-22.5625,0.0634574,-1.48875,0.109855
64,-2,-4,-2,0,-2,-1,-2,-1,0.947754,0.00585938,0.181152,-37.875,33.6875,-22.5625,0.0634574,-1.48875,0.109855
111,0,4,-2,-1,0,0,1,0,0.955566,-0.00146484,0.165527,-31.875,37.25,-22.625,0.159332,-1.45821,-0.00962672
111,1,5,-1,0,-1,0,-1,1,0.955566,-0.00146484,0.165527,-31.875,37.25,-22.625,0.159332,-1.45821,-0.00962672
112,-2,7,-1,-1,0,-1,0,-2,0.955566,-0.00146484,0.165527,-31.875,37.25,-22.625,0.159332,-1.45821,-0.00962672
112,-1,6,-2,-3,-1,0,-1,-2,0.955566,-0.00146484,0.165527,-31.875,37.25,-22.625,0.159332,-1.45821,-0.00962672
114,0,5,-3,-1,-1,1,-1,-3,0.955566,-0.00146484,0.165527,-31.875,37.25,-22.625,0.159332,-1.45821,-0.00962672
114,-2,3,-3,1,-1,-1,-1,-3,0.955566,-0.00146484,0.165527,-31.875,37.25,-22.625,0.159332,-1.45821,-0.00962672
115,0,6,-1,0,-1,-2,-2,1,0.955566,-0.00146484,0.165527,-31.875,37.25,-22.625,0.159332,-1.45821,-0.00962672
115,-1,-2,-1,0,0,0,0,-2,0.955566,-0.00146484,0.165527,-31.875,37.25,-22.625,0.159332,-1.45821,-0.00962672
122,-2,7,0,-1,-1,-3,-1,0,0.955566,-0.00146484,0.165527,-31.875,37.25,-22.625,0.159332,-1.45821,-0.00962672
122,0,7,0,-1,0,0,-1,-1,0.955566,-0.00146484,0.165527,-31.875,37.25,-22.625,0.159332,-1.45821,-0.00962672
129,1,15,0,-2,-2,-1,-2,0,0.946289,-0.0175781,0.19873,-28.3125,35.9375,-21.8125,0.182641,-1.44287,-0.0431706
129,-2,24,-1,-1,-1,0,0,-1,0.946289,-0.0175781,0.19873,-28.3125,35.9375,-21.8125,0.182641,-1.44287,-0.0431706
136,-1,9,-2,0,-2,-1,-1,1,0.946289,-0.0175781,0.19873,-28.3125,35.9375,-21.8125,0.182641,-1.44287,-0.0431706
136,-1,0,-1,-1,-1,0,-1,-1,0.946289,-0.0175781,0.19873,-28.3125,35.9375,-21.8125,0.182641,-1.44287,-0.0431706
152,-2,-11,-2,0,-2,0,-1,-2,0.942383,-0.074707,0.185547,-22.4375,30.75,-22.3125,0.196429,-1.42964,-0.0654452
152,0,-14,0,0,-2,-2,-2,-1,0.942383,-0.074707,0.185547,-22.4375,30.75,-22.3125,0.196429,-1.42964,-0.0654452
159,-1,-12,-2,-1,0,-1,-1,-2,0.942383,-0.074707,0.185547,-22.4375,30.75,-22.3125,0.196429,-1.42964,-0.0654452
159,-1,-11,0,-1,0,-1,-1,0,0.942383,-0.074707,0.185547,-22.4375,30.75,-22.3125,0.196429,-1.42964,-0.0654452
182,1,-10,-1,0,-2,-1,-1,-1,0.964844,-0.0449219,0.158203,-22.0625,27.9375,-21.625,0.212185,-1.41936,-0.0892968
182,-1,-7,-1,-3,-1,-2,-1,-1,0.964844,-0.0449219,0.158203,-22.0625,27.9375,-21.625,0.212185,-1.41936,-0.0892968
183,-1,-5,0,-3,-3,0,0,-1,0.964844,-0.0449219,0.158203,-22.0625,27.9375,-21.625,0.212185,-1.41936,-0.0892968
183,-2,-4,-2,-1,-1,-1,-2,-1,0.964844,-0.0449219,0.158203,-22.0625,27.9375,-21.625,0.212185,-1.41936,-0.0892968
197,-1,-1,0,-3,0,-2,-1,-2,0.960449,-0.0175781,0.15332,-20.4375,26.125,-20.3125,0.227852,-1.4086,-0.112608
197,0,-1,-2,-1,-1,0,-1,-1,0.960449,-0.0175781,0.15332,-20.4375,26.125,-20.3125,0.227852,-1.4086,-0.112608
197,-2,-5,0,-2,0,-2,-1,0,0.960449,-0.0175781,0.15332,-20.4375,26.125,-20.3125,0.227852,-1.4086,-0.112608
197,0,0,-2,-2,-2,-2,-1,1,0.960449,-0.0175781,0.15332,-20.4375,26.125,-20.3125,0.227852,-1.4086,-0.112608
219,0,-1,-2,0,-1,-1,0,0,0.955566,-0.0146484,0.150391,-23.4375,23.75,-18.25,0.238141,-1.39968,-0.131525
219,-1,-1,-2,-2,0,-2,-1,0,0.955566,-0.0146484,0.150391,-23.4375,23.75,-18.25,0.238141,-1.39968,-0.131525
220,-1,-2,-1,-1,-1,0,0,-1,0.955566,-0.0146484,0.150391,-23.4375,23.75,-18.25,0.238141,-1.39968,-0.131525
220,-2,1,-3,-2,0,0,-1,0,0.955566,-0.0146484,0.150391,-23.4375,23.75,-18.25,0.238141,-1.39968,-0.131525
250,-1,0,1,-1,1,0,-1,0,0.962402,-0.00976562,0.134277,-25.5,21.5,-15.0625,0.241935,-1.39224,-0.144562
250,-1,0,1,0,-1,-1,0,0,0.962402,-0.00976562,0.134277,-25.5,21.5,-15.0625,0.241935,-1.39224,-0.144562
250,-1,2,0,1,-1,-1,-1,0,0.962402,-0.00976562,0.134277,-25.5,21.5,-15.0625,0.241935,-1.39224,-0.144562
250,0,1,-1,-1,-1,-3,0,-1,0.962402,-0.00976562,0.134277,-25.5,21.5,-15.0625,0.241935,-1.39224,-0.144562
256,-2,-1,-1,-3,-1,0,-1,-1,0.969727,0.0205078,0.131836,-25.625,20.875,-12.5625,0.245227,-1.38545,-0.157007
256,-1,-1,-2,-2,-2,0,-2,0,0.969727,0.0205078,0.131836,-25.625,20.875,-12.5625,0.245227,-1.38545,-0.157007
258,0,-1,-1,-1,0,-1,-2,-1,0.969727,0.0205078,0.131836,-25.625,20.875,-12.5625,0.245227,-1.38545,-0.157007
258,0,1,1,-1,-1,-1,0,0,0.969727,0.0205078,0.131836,-25.625,20.875,-12.5625,0.245227,-1.38545,-0.157007
279,-2,2,0,0,-1,-2,-1,-1,0.941895,0.0341797,0.159668,-21.25,20.125,-11.0625,0.247439,-1.37785,-0.166855
279,0,-1,-1,-1,0,-2,-1,-1,0.941895,0.0341797,0.159668,-21.25,20.125,-11.0625,0.247439,-1.37785,-0.166855
280,-1,-1,0,-1,-1,0,-1,-2,0.941895,0.0341797,0.159668,-21.25,20.125,-11.0625,0.247439,-1.37785,-0.166855
280,-1,-1,-1,-2,-1,-1,1,0,0.941895,0.0341797,0.159668,-21.25,20.125,-11.0625,0.247439,-1.37785,-0.166855
302,-1,-1,-1,1,-1,3,0,-1,0.939941,0.0175781,0.188477,-16.8125,17.6875,-10.4375,0.24781,-1.37102,-0.173452
302,-3,0,-1,-1,-1,-2,-1,-2,0.939941,0.0175781,0.188477,-16.8125,17.6875,-10.4375,0.24781,-1.37102,-0.173452
303,0,-1,0,-1,-2,0,1,1,0.939941,0.0175781,0.188477,-16.8125,17.6875,-10.4375,0.24781,-1.37102,-0.173452
303,-1,0,-1,-1,-1,-1,-2,-1,0.939941,0.0175781,0.188477,-16.8125,17.6875,-10.4375,0.24781,-1.37102,-0.173452
317,1,2,0,0,0,-1,0,0,0.941406,0.0214844,0.212891,-8.75,16.1875,-7.25,0.245914,-1.36462,-0.174735
317,0,2,-1,-1,0,0,-1,-1,0.941406,0.0214844,0.212891,-8.75,16.1875,-7.25,0.245914,-1.36462,-0.174735
318,-1,2,-1,-1,0,-1,1,-2,0.941406,0.0214844,0.212891,-8.75,16.1875,-7.25,0.245914,-1.36462,-0.174735
318,0,0,-1,0,-3,0,-1,1,0.941406,0.0214844,0.212891,-8.75,16.1875,-7.25,0.245914,-1.36462,-0.174735
339,-1,3,-2,-2,-1,-2,-1,-1,0.951172,0.0336914,0.211426,5.375,15.4375,-4.875,0.247187,-1.35869,-0.174165
339,-2,-3,-2,-1,0,1,-1,-2,0.951172,0.0336914,0.211426,5.375,15.4375,-4.875,0.247187,-1.35869,-0.174165
340,-1,-3,-1,-1,0,-1,-2,-2,0.951172,0.0336914,0.211426,5.375,15.4375,-4.875,0.247187,-1.35869,-0.174165
340,-2,-1,1,-1,0,-1,-1,-3,0.951172,0.0336914,0.211426,5.375,15.4375,-4.875,0.247187,-1.35869,-0.174165
362,-1,-3,-2,-2,-1,0,-3,-2,0.961914,0.0898438,0.217285,10.5625,15.6875,-4.625,0.25554,-1.35224,-0.178776
362,-1,-4,-2,-2,-1,1,-1,-1,0.961914,0.0898438,0.217285,10.5625,15.6875,-4.625,0.25554,-1.35224,-0.178776
363,-1,0,0,-1,0,-1,-1,-1,0.961914,0.0898438,0.217285,10.5625,15.6875,-4.625,0.25554,-1.35224,-0.178776
363,-1,13,-2,1,-1,0,-1,1,0.961914,0.0898438,0.217285,10.5625,15.6875,-4.625,0.25554,-1.35224,-0.178776
377,-2,7,-2,-1,-3,-1,0,0,0.953613,0.0922852,0.230957,12,13.0625,-4.25,0.264219,-1.34711,-0.183235
377,0,5,-1,0,-1,0,1,-1,0.953613,0.0922852,0.230957,12,13.0625,-4.25,0.264219,-1.34711,-0.183235
378,-2,-1,0,-1,-2,-2,-1,-1,0.953613,0.0922852,0.230957,12,13.0625,-4.25,0.264219,-1.34711,-0.183235
378,-1,-7,0,-2,-1,0,-1,-1,0.953613,0.0922852,0.230957,12,13.0625,-4.25,0.264219,-1.34711,-0.183235
400,-1,-5,0,-1,-1,-3,-1,0,0.964355,0.0957031,0.21875,9.4375,10.75,-3.75,0.27215,-1.34288,-0.187747
400,0,-5,0,-1,-2,-1,-1,0,0.964355,0.0957031,0.21875,9.4375,10.75,-3.75,0.27215,-1.34288,-0.187747
400,-2,-4,-1,0,0,-2,1,-1,0.964355,0.0957031,0.21875,9.4375,10.75,-3.75,0.27215,-1.34288,-0.187747
400,-1,-5,-2,-2,0,-1,0,-2,0.964355,0.0957031,0.21875,9.4375,10.75,-3.75,0.27215,-1.34288,-0.187747
423,0,-5,-2,-1,1,0,-1,-1,0.948242,0.11377,0.233398,8.8125,9.875,-3,0.28048,-1.33832,-0.192856
423,-1,-2,-1,-1,-1,1,-1,0,0.948242,0.11377,0.233398,8.8125,9.875,-3,0.28048,-1.33832,-0.192856
424,-1,1,-1,-1,-1,0,-2,0,0.948242,0.11377,0.233398,8.8125,9.875,-3,0.28048,-1.33832,-0.192856
424,-1,-1,0,0,-1,-1,-3,-2,0.948242,0.11377,0.233398,8.8125,9.875,-3,0.28048,-1.33832,-0.192856
436,-1,-2,0,0,-1,0,-1,-2,0.946289,0.108398,0.243652,7.3125,8.0625,-3.9375,0.288706,-1.3346,-0.198519
436,-2,-1,0,-1,-1,-2,0,0,0.946289,0.108398,0.243652,7.3125,8.0625,-3.9375,0.288706,-1.3346,-0.198519
445,0,-2,-2,-2,-2,-2,-1,0,0.946289,0.108398,0.243652,7.3125,8.0625,-3.9375,0.288706,-1.3346,-0.198519
445,-2,-4,-3,-1,-2,-1,0,-2,0.946289,0.108398,0.243652,7.3125,8.0625,-3.9375,0.288706,-1.3346,-0.198519
460,-1,0,-3,-1,0,0,-1,-1,0.931641,0.10791,0.254883,6,6.3125,-4.0625,0.296256,-1.3306,-0.203982
460,-1,1,-1,0,-1,-1,-1,-1,0.931641,0.10791,0.254883,6,6.3125,-4.0625,0.296256,-1.3306,-0.203982
461,0,1,-3,-1,-1,-1,-2,-2,0.931641,0.10791,0.254883,6,6.3125,-4.0625,0.296256,-1.3306,-0.203982
461,-3,-1,-1,-2,0,-1,-1,-1,0.931641,0.10791,0.254883,6,6.3125,-4.0625,0.296256,-1.3306,-0.203982
483,-2,1,-3,-1,-1,0,0,-1,0.914551,0.0927734,0.259766,10.9375,2.8125,-3.5625,0.305191,-1.3283,-0.209056
483,-1,1,-2,1,-1,-1,-1,0,0.914551,0.0927734,0.259766,10.9375,2.8125,-3.5625,0.305191,-1.3283,-0.209056
483,-2,-1,-1,0,0,-2,0,-1,0.914551,0.0927734,0.259766,10.9375,2.8125,-3.5625,0.305191,-1.3283,-0.209056
483,0,-2,-2,0,-1,0,-2,-1,0.914551,0.0927734,0.259766,10.9375,2.8125,-3.5625,0.305191,-1.3283,-0.209056
496,-2,-2,0,0,-1,-2,-1,0,0.906738,0.113281,0.259277,16.25,0.625,-3.0625,0.317265,-1.32634,-0.21564
496,1,-1,1,-2,-1,-1,-1,0,0.906738,0.113281,0.259277,16.25,0.625,-3.0625,0.317265,-1.32634,-0.21564
504,0,-1,-1,-1,0,0,-3,-2,0.906738,0.113281,0.259277,16.25,0.625,-3.0625,0.317265,-1.32634,-0.21564
504,1,-2,0,-1,-1,-2,0,-1,0.906738,0.113281,0.259277,16.25,0.625,-3.0625,0.317265,-1.32634,-0.21564
519,-1,-3,-1,-2,-2,-1,-1,-1,0.898438,0.141113,0.259766,20.5625,-0.25,-3.0625,0.333473,-1.3245,-0.224519
519,-1,-1,-2,1,0,0,1,-1,0.898438,0.141113,0.259766,20.5625,-0.25,-3.0625,0.333473,-1.3245,-0.224519
520,0,2,-1,0,0,0,0,-1,0.898438,0.141113,0.259766,20.5625,-0.25,-3.0625,0.333473,-1.3245,-0.224519
520,1,-2,-3,-2,-2,0,0,0,0.898438,0.141113,0.259766,20.5625,-0.25,-3.0625,0.333473,-1.3245,-0.224519
543,-2,0,-1,-1,-1,-2,-2,-2,0.903809,0.161621,0.275879,19.4375,-0.5625,-2,0.349067,-1.32255,-0.233291
543,1,3,0,-2,-1,-2,-1,-1,0.903809,0.161621,0.275879,19.4375,-0.5625,-2,0.349067,-1.32255,-0.233291
543,-3,0,0,-2,-7,-1,-2,-1,0.903809,0.161621,0.275879,19.4375,-0.5625,-2,0.349067,-1.32255,-0.233291
543,-3,-1,-1,-5,0,0,-1,-1,0.903809,0.161621,0.275879,19.4375,-0.5625,-2,0.349067,-1.32255,-0.233291
556,0,0,0,4,5,0,1,-2,0.899414,0.150391,0.256836,18.8125,-0.5625,-0.6875,0.361684,-1.32107,-0.239114
556,-1,1,-1,2,2,0,0,0,0.899414,0.150391,0.256836,18.8125,-0.5625,-0.6875,0.361684,-1.32107,-0.239114
565,0,1,0,-1,-1,-2,-2,0,0.899414,0.150391,0.256836,18.8125,-0.5625,-0.6875,0.361684,-1.32107,-0.239114
565,-1,0,2,2,-5,-3,-1,-2,0.899414,0.150391,0.256836,18.8125,-0.5625,-0.6875,0.361684,-1.32107,-0.239114
579,0,-2,0,-2,-2,-2,-1,-2,0.900391,0.170898,0.255371,17,1.625,0.0625,0.373211,-1.31904,-0.244589
579,0,-2,0,-2,-1,0,1,0,0.900391,0.170898,0.255371,17,1.625,0.0625,0.373211,-1.31904,-0.244589
580,-1,-1,-2,0,0,-1,0,-1,0.900391,0.170898,0.255371,17,1.625,0.0625,0.373211,-1.31904,-0.244589
580,0,0,-1,0,-2,-1,-3,0,0.900391,0.170898,0.255371,17,1.625,0.0625,0.373211,-1.31904,-0.244589
602,0,2,-2,-3,-1,0,0,1,0.905273,0.172363,0.269531,17.1875,3.75,1.25,0.381505,-1.31578,-0.24652
602,-3,-3,1,2,-1,-1,-2,-3,0.905273,0.172363,0.269531,17.1875,3.75,1.25,0.381505,-1.31578,-0.24652
603,0,-2,-1,-1,-1,0,-2,-1,0.905273,0.172363,0.269531,17.1875,3.75,1.25,0.381505,-1.31578,-0.24652
603,-1,0,0,0,0,-1,-1,0,0.905273,0.172363,0.269531,17.1875,3.75,1.25,0.381505,-1.31578,-0.24652
616,-1,-1,1,0,-2,-2,-2,1,0.897461,0.152832,0.284668,12.5,4.5625,2.0625,0.384497,-1.31273,-0.244848
616,-3,-3,-2,-3,-1,0,-2,-1,0.897461,0.152832,0.284668,12.5,4.5625,2.0625,0.384497,-1.31273,-0.244848
624,1,-1,0,-1,1,-2,0,-1,0.897461,0.152832,0.284668,12.5,4.5625,2.0625,0.384497,-1.31273,-0.244848
624,0,1,-1,1,0,-2,0,-2,0.897461,0.152832,0.284668,12.5,4.5625,2.0625,0.384497,-1.31273,-0.244848
639,-1,0,-1,-2,-1,0,-1,-1,0.878906,0.123535,0.315918,10.4375,2.25,3.8125,0.381847,-1.30972,-0.238452
639,0,2,1,0,-1,-2,-2,-1,0.878906,0.123535,0.315918,10.4375,2.25,3.8125,0.381847,-1.30972,-0.238452
640,-1,-3,-2,-3,-1,0,-1,-2,0.878906,0.123535,0.315918,10.4375,2.25,3.8125,0.381847,-1.30972,-0.238452
640,-1,-1,-3,0,0,-1,-1,-2,0.878906,0.123535,0.315918,10.4375,2.25,3.8125,0.381847,-1.30972,-0.238452
663,0,-2,0,-3,-1,-1,-1,-2,0.872559,0.111816,0.324707,12.4375,0.3125,4.8125,0.378925,-1.30793,-0.230931
663,0,-2,0,-2,-2,0,-1,-1,0.872559,0.111816,0.324707,12.4375,0.3125,4.8125,0.378925,-1.30793,-0.230931
663,-2,-3,0,1,0,-1,-2,0,0.872559,0.111816,0.324707,12.4375,0.3125,4.8125,0.378925,-1.30793,-0.230931
663,0,-1,0,-2,-1,-1,0,-1,0.872559,0.111816,0.324707,12.4375,0.3125,4.8125,0.378925,-1.30793,-0.230931
676,0,-2,-1,-1,-1,-1,-1,1,0.852051,0.126953,0.327148,18.0625,-0.3125,6.75,0.376627,-1.30596,-0.221997
676,-2,-5,-3,-1,0,-2,0,-2,0.852051,0.126953,0.327148,18.0625,-0.3125,6.75,0.376627,-1.30596,-0.221997
685,0,0,0,-1,-2,-1,2,-2,0.852051,0.126953,0.327148,18.0625,-0.3125,6.75,0.376627,-1.30596,-0.221997
685,0,0,1,0,-1,1,-2,1,0.852051,0.126953,0.327148,18.0625,-0.3125,6.75,0.376627,-1.30596,-0.221997
707,-3,-1,-1,-1,0,-1,-2,-2,0.840332,0.149902,0.324707,23.5625,-1.5625,8.5,0.37715,-1.30449,-0.213937
707,-3,0,-2,-2,0,-2,0,-1,0.840332,0.149902,0.324707,23.5625,-1.5625,8.5,0.37715,-1.30449,-0.213937
708,-1,2,-3,0,0,0,-1,-2,0.840332,0.149902,0.324707,23.5625,-1.5625,8.5,0.37715,-1.30449,-0.213937
708,1,4,0,-1,-1,0,1,-1,0.840332,0.149902,0.324707,23.5625,-1.5625,8.5,0.37715,-1.30449,-0.213937
723,-1,-1,-2,-1,-1,-1,0,-1,0.825684,0.161133,0.333496,24.75,-4.3125,11.1875,0.376717,-1.30386,-0.204339
723,-1,2,-2,-1,-1,-1,-3,0,0.825684,0.161133,0.333496,24.75,-4.3125,11.1875,0.376717,-1.30386,-0.204339
723,-1,5,-1,0,0,-1,-1,0,0.825684,0.161133,0.333496,24.75,-4.3125,11.1875,0.376717,-1.30386,-0.204339
723,-1,-1,0,-1,0,-4,-1,-1,0.825684,0.161133,0.333496,24.75,-4.3125,11.1875,0.376717,-1.30386,-0.204339
736,-1,-1,0,-1,-2,0,-2,0,0.812988,0.136719,0.332031,26.0625,-6.375,13.8125,0.373359,-1.30467,-0.19132
736,0,-7,-1,0,-1,-1,2,-1,0.812988,0.136719,0.332031,26.0625,-6.375,13.8125,0.373359,-1.30467,-0.19132
745,1,-5,-1,-2,-1,1,1,1,0.812988,0.136719,0.332031,26.0625,-6.375,13.8125,0.373359,-1.30467,-0.19132
745,0,-4,1,0,-2,-3,-1,-1,0.812988,0.136719,0.332031,26.0625,-6.375,13.8125,0.373359,-1.30467,-0.19132
760,0,8,0,-2,-3,0,0,-2,0.800293,0.118164,0.321289,33.0625,-7.8125,16.375,0.367941,-1.3062,-0.173787
760,0,1,-1,-2,-2,0,-1,-3,0.800293,0.118164,0.321289,33.0625,-7.8125,16.375,0.367941,-1.3062,-0.173787
760,1,-2,-1,-1,-1,-2,-2,-1,0.800293,0.118164,0.321289,33.0625,-7.8125,16.375,0.367941,-1.3062,-0.173787
760,-2,-4,-1,-2,0,-2,-2,0,0.800293,0.118164,0.321289,33.0625,-7.8125,16.375,0.367941,-1.3062,-0.173787
783,-3,-8,-2,-1,-1,0,-1,-1,0.79541,0.120117,0.305664,39.5625,-7.6875,17.875,0.363982,-1.30839,-0.155377
783,-1,-4,-1,-2,-3,-2,-2,0,0.79541,0.120117,0.305664,39.5625,-7.6875,17.875,0.363982,-1.30839,-0.155377
783,1,-3,1,-1,-1,0,-1,0,0.79541,0.120117,0.305664,39.5625,-7.6875,17.875,0.363982,-1.30839,-0.155377
783,1,7,0,0,-1,1,0,0,0.79541,0.120117,0.305664,39.5625,-7.6875,17.875,0.363982,-1.30839,-0.155377
796,0,2,-2,-1,-1,-4,1,-2,0.791504,0.126953,0.307617,39.25,-7.5,19.6875,0.358026,-1.31003,-0.134971
796,1,1,2,-1,0,-1,-2,0,0.791504,0.126953,0.307617,39.25,-7.5,19.6875,0.358026,-1.31003,-0.134971
805,0,3,3,1,0,0,-2,-1,0.791504,0.126953,0.307617,39.25,-7.5,19.6875,0.358026,-1.31003,-0.134971
805,0,-2,-1,-2,-2,-1,-1,-1,0.791504,0.126953,0.307617,39.25,-7.5,19.6875,0.358026,-1.31003,-0.134971
820,0,5,2,0,1,0,0,0,0.791016,0.0957031,0.299805,36.5625,-8.875,21.9375,0.346021,-1.31318,-0.109412
820,1,1,-2,-1,-1,-3,-1,-1,0.791016,0.0957031,0.299805,36.5625,-8.875,21.9375,0.346021,-1.31318,-0.109412
820,0,-1,-3,-1,0,-2,-1,1,0.791016,0.0957031,0.299805,36.5625,-8.875,21.9375,0.346021,-1.31318,-0.109412
820,-2,-1,-2,1,0,1,-1,-1,0.791016,0.0957031,0.299805,36.5625,-8.875,21.9375,0.346021,-1.31318,-0.109412
843,-2,1,-2,0,-2,-1,-2,0,0.835449,0.0517578,0.29834,37.625,-11.125,23.5,0.330007,-1.31756,-0.0795346
843,-1,-3,-1,-2,-1,0,0,-1,0.835449,0.0517578,0.29834,37.625,-11.125,23.5,0.330007,-1.31756,-0.0795346
844,-2,-2,-2,0,-2,0,-1,-1,0.835449,0.0517578,0.29834,37.625,-11.125,23.5,0.330007,-1.31756,-0.0795346
844,-3,-9,0,-1,-2,0,-1,-2,0.835449,0.0517578,0.29834,37.625,-11.125,23.5,0.330007,-1.31756,-0.0795346
865,-2,-9,-2,0,0,0,-2,-2,0.882324,0.0288086,0.282715,41.75,-12.0625,24.375,0.31218,-1.32286,-0.046556
865,0,2,-1,-1,0,-1,-1,-1,0.882324,0.0288086,0.282715,41.75,-12.0625,24.375,0.31218,-1.32286,-0.046556
866,-1,6,-2,-2,-1,-1,-2,-1,0.882324,0.0288086,0.282715,41.75,-12.0625,24.375,0.31218,-1.32286,-0.046556
866,0,64,-2,-1,0,0,0,0,0.882324,0.0288086,0.282715,41.75,-12.0625,24.375,0.31218,-1.32286,-0.046556
879,-2,24,-1,-2,-1,-2,-1,-1,0.88916,0.0546875,0.282715,40.9375,-12.4375,25.875,0.294075,-1.32828,-0.013238
879,0,10,1,0,0,1,-1,-1,0.88916,0.0546875,0.282715,40.9375,-12.4375,25.875,0.294075,-1.32828,-0.013238
880,0,-16,-1,-2,-2,-1,0,0,0.88916,0.0546875,0.282715,40.9375,-12.4375,25.875,0.294075,-1.32828,-0.013238
880,-1,-30,-2,-2,-2,-1,0,0,0.88916,0.0546875,0.282715,40.9375,-12.4375,25.875,0.294075,-1.32828,-0.013238
903,2,-13,-2,-1,-1,-1,0,2,0.906738,0.0546875,0.28125,38.625,-15.1875,28.125,0.272408,-1.33455,0.0228466
903,-5,-21,-4,-1,-2,0,-1,-1,0.906738,0.0546875,0.28125,38.625,-15.1875,28.125,0.272408,-1.33455,0.0228466
903,-1,-10,2,-2,-3,-1,0,-4,0.906738,0.0546875,0.28125,38.625,-15.1875,28.125,0.272408,-1.33455,0.0228466
903,-1,-18,0,-2,-1,-2,-2,2,0.906738,0.0546875,0.28125,38.625,-15.1875,28.125,0.272408,-1.33455,0.0228466
925,-1,-9,-1,-2,-1,-1,-2,1,0.932129,0.0307617,0.26709,35.75,-18.3125,29.9375,0.245538,-1.34212,0.0630309
925,-1,-10,0,0,-2,-1,2,-2,0.932129,0.0307617,0.26709,35.75,-18.3125,29.9375,0.245538,-1.34212,0.0630309
926,-2,1,-2,0,-1,1,-2,-1,0.932129,0.0307617,0.26709,35.75,-18.3125,29.9375,0.245538,-1.34212,0.0630309
926,-3,-5,0,-1,0,-1,0,-3,0.932129,0.0307617,0.26709,35.75,-18.3125,29.9375,0.245538,-1.34212,0.0630309
939,2,-6,1,-1,0,0,0,-1,0.921387,0.0219727,0.242676,38.4375,-18.0625,32,0.213965,-1.35,0.108957
939,0,2,-1,-1,-1,-1,1,2,0.921387,0.0219727,0.242676,38.4375,-18.0625,32,0.213965,-1.35,0.108957
947,-3,4,-3,-2,-1,-2,-13,-9,0.921387,0.0219727,0.242676,38.4375,-18.0625,32,0.213965,-1.35,0.108957
947,0,0,1,-2,-2,0,1,2,0.921387,0.0219727,0.242676,38.4375,-18.0625,32,0.213965,-1.35,0.108957
962,0,-6,1,1,0,0,-1,0,0.875977,0.0317383,0.217285,39.3125,-16.375,31.4375,0.183008,-1.35708,0.154699
962,-2,-2,-2,-1,0,-1,-3,-2,0.875977,0.0317383,0.217285,39.3125,-16.375,31.4375,0.183008,-1.35708,0.154699
963,-2,9,-2,-1,-1,-2,3,2,0.875977,0.0317383,0.217285,39.3125,-16.375,31.4375,0.183008,-1.35708,0.154699
963,-2,-2,-1,-2,0,0,-2,-1,0.875977,0.0317383,0.217285,39.3125,-16.375,31.4375,0.183008,-1.35708,0.154699
985,-2,4,-1,0,-2,-1,-2,-2,0.838867,0.0317383,0.195312,34.5,-14.1875,30.25,0.149985,-1.363,0.200764
985,-5,-4,-1,-1,-1,-1,-5,-5,0.838867,0.0317383,0.195312,34.5,-14.1875,30.25,0.149985,-1.363,0.200764
985,1,-6,-1,-1,0,-2,4,8,0.838867,0.0317383,0.195312,34.5,-14.1875,30.25,0.149985,-1.363,0.200764
985,2,2,1,0,-2,0,-4,-1,0.838867,0.0317383,0.195312,34.5,-14.1875,30.25,0.149985,-1.363,0.200764
1000,-2,19,-1,-1,-3,-1,3,2,0.824707,-0.0273438,0.187988,34.375,-12.875,30.5,0.108725,-1.36897,0.255118
1000,2,27,4,0,0,-1,-1,-2,0.824707,-0.0273438,0.187988,34.375,-12.875,30.5,0.108725,-1.36897,0.255118
1001,-3,-16,-9,-2,-1,-1,1,1,0.824707,-0.0273438,0.187988,34.375,-12.875,30.5,0.108725,-1.36897,0.255118
1001,-3,-16,-1,-2,-2,-1,-4,-5,0.824707,-0.0273438,0.187988,34.375,-12.875,30.5,0.108725,-1.36897,0.255118
1023,-1,-24,-1,-1,-2,-1,-3,-2,0.849121,-0.0839844,0.170898,42.4375,-11.5625,29.5,0.0626523,-1.3738,0.316752
1023,-1,-7,-1,-1,1,0,-1,1,0.849121,-0.0839844,0.170898,42.4375,-11.5625,29.5,0.0626523,-1.3738,0.316752
1023,1,6,2,1,0,-1,4,1,0.849121,-0.0839844,0.170898,42.4375,-11.5625,29.5,0.0626523,-1.3738,0.316752
1023,-1,-2,-3,0,1,0,5,6,0.849121,-0.0839844,0.170898,42.4375,-11.5625,29.5,0.0626523,-1.3738,0.316752
1046,0,2,-1,0,-1,1,-1,-4,0.880371,-0.0908203,0.137695,48.5625,-8,26.5625,0.0215296,-1.37778,0.375395
1046,0,-8,-2,-1,-1,-2,-1,-1,0.880371,-0.0908203,0.137695,48.5625,-8,26.5625,0.0215296,-1.37778,0.375395
1046,0,-16,2,1,0,-2,0,-1,0.880371,-0.0908203,0.137695,48.5625,-8,26.5625,0.0215296,-1.37778,0.375395
1046,-4,-17,-2,-2,-2,-2,-1,-1,0.880371,-0.0908203,0.137695,48.5625,-8,26.5625,0.0215296,-1.37778,0.375395
1060,-3,-4,-1,-2,0,-2,-2,-2,0.887695,-0.0786133,0.131348,44.5625,-4.875,24.1875,-0.0163899,-1.38077,0.42968
1060,2,3,-2,0,-1,1,2,1,0.887695,-0.0786133,0.131348,44.5625,-4.875,24.1875,-0.0163899,-1.38077,0.42968
1060,-1,18,0,1,0,-1,-2,1,0.887695,-0.0786133,0.131348,44.5625,-4.875,24.1875,-0.0163899,-1.38077,0.42968
1060,-1,33,-2,0,-1,0,-1,-1,0.887695,-0.0786133,0.131348,44.5625,-4.875,24.1875,-0.0163899,-1.38077,0.42968
1081,0,33,-3,-1,-1,-1,0,-2,0.905273,-0.0908203,0.13623,39.4375,-4.3125,23.3125,-0.0560612,-1.38245,0.483571
1081,-4,31,0,0,-1,-2,4,3,0.905273,-0.0908203,0.13623,39.4375,-4.3125,23.3125,-0.0560612,-1.38245,0.483571
1090,-2,-17,-11,-3,-1,0,-4,-1,0.945312,-0.108398,0.12207,34.5,-5.25,22.1875,-0.09805,-1.38469,0.538051
1090,0,-14,3,-1,-1,0,-2,-2,0.945312,-0.108398,0.12207,34.5,-5.25,22.1875,-0.09805,-1.38469,0.538051
1105,-2,-28,-3,-4,-3,-2,-1,-3,0.945312,-0.108398,0.12207,34.5,-5.25,22.1875,-0.09805,-1.38469,0.538051
1105,-1,-36,-2,0,0,0,7,7,0.945312,-0.108398,0.12207,34.5,-5.25,22.1875,-0.09805,-1.38469,0.538051
1107,3,3,1,-1,-1,-1,-1,-1,0.951172,-0.0888672,0.0874023,27.9375,-3.9375,19,-0.134474,-1.38744,0.584814
1107,-1,-6,-5,0,-1,-2,-7,-10,0.951172,-0.0888672,0.0874023,27.9375,-3.9375,19,-0.134474,-1.38744,0.584814
1127,2,-2,2,0,-1,0,-1,3,0.951172,-0.0888672,0.0874023,27.9375,-3.9375,19,-0.134474,-1.38744,0.584814
1127,3,-9,4,0,-2,0,0,-1,0.951172,-0.0888672,0.0874023,27.9375,-3.9375,19,-0.134474,-1.38744,0.584814
1135,-3,-60,-7,1,3,1,1,1,0.930664,-0.0874023,0.0991211,18.4375,-3.6875,14.5625,-0.165769,-1.38955,0.62292
1135,-5,-60,-16,-9,-7,-3,-3,-5,0.930664,-0.0874023,0.0991211,18.4375,-3.6875,14.5625,-0.165769,-1.38955,0.62292
1141,-12,-34,-10,-6,-1,-3,-1,-6,0.930664,-0.0874023,0.0991211,18.4375,-3.6875,14.5625,-0.165769,-1.38955,0.62292
1141,2,-13,-3,-1,0,-2,-8,-4,0.930664,-0.0874023,0.0991211,18.4375,-3.6875,14.5625,-0.165769,-1.38955,0.62292
1150,2,24,8,1,-2,-1,-1,4,0.921387,-0.160156,0.065918,20.625,-6.5625,15.25,-0.208725,-1.39243,0.673334
1150,0,38,5,1,1,0,-4,-3,0.921387,-0.160156,0.065918,20.625,-6.5625,15.25,-0.208725,-1.39243,0.673334
1172,2,27,1,1,-2,0,0,2,0.921387,-0.160156,0.065918,20.625,-6.5625,15.25,-0.208725,-1.39243,0.673334
1172,-2,59,2,-2,0,-1,-4,-4,0.921387,-0.160156,0.065918,20.625,-6.5625,15.25,-0.208725,-1.39243,0.673334
1174,-5,56,-6,0,-1,0,1,1,0.939453,-0.13916,0.0419922,18.125,-5.0625,13.75,-0.247951,-1.39502,0.71888
1174,2,48,25,5,4,0,4,2,0.939453,-0.13916,0.0419922,18.125,-5.0625,13.75,-0.247951,-1.39502,0.71888
1187,-1,15,8,0,2,0,0,1,0.939453,-0.13916,0.0419922,18.125,-5.0625,13.75,-0.247951,-1.39502,0.71888
1187,-13,-6,-49,-12,-7,-4,-1,-3,0.939453,-0.13916,0.0419922,18.125,-5.0625,13.75,-0.247951,-1.39502,0.71888
1190,24,65,34,1,-4,-2,2,1,0.946289,-0.149414,0.09375,28.1875,-8.9375,14.1875,-0.28623,-1.39806,0.767449
1190,-27,-54,-6,4,4,-1,-3,-4,0.946289,-0.149414,0.09375,28.1875,-8.9375,14.1875,-0.28623,-1.39806,0.767449
1202,2,-13,24,5,1,0,2,-3,0.946289,-0.149414,0.09375,28.1875,-8.9375,14.1875,-0.28623,-1.39806,0.767449
1202,-19,-49,-85,-22,-12,-6,-6,-10,0.946289,-0.149414,0.09375,28.1875,-8.9375,14.1875,-0.28623,-1.39806,0.767449
1210,-7,-2,-16,-6,-2,-1,-1,-5,1.03906,-0.0849609,0.0273438,24.875,-7.3125,6.5625,-0.304408,-1.40233,0.79424
1210,22,-40,7,-2,-2,-1,6,7,1.03906,-0.0849609,0.0273438,24.875,-7.3125,6.5625,-0.304408,-1.40233,0.79424
1233,4,-30,14,5,1,0,-6,10,1.03906,-0.0849609,0.0273438,24.875,-7.3125,6.5625,-0.304408,-1.40233,0.79424
1233,0,-53,17,8,4,0,-3,-12,1.03906,-0.0849609,0.0273438,24.875,-7.3125,6.5625,-0.304408,-1.40233,0.79424
1234,2,12,-2,-4,-3,-3,-8,-7,1.04736,-0.0214844,-0.0834961,-8.375,1.8125,0,-0.313586,-1.40805,0.800593
1234,-3,19,-4,1,1,1,-1,0,1.04736,-0.0214844,-0.0834961,-8.375,1.8125,0,-0.313586,-1.40805,0.800593
1248,1,-22,-19,-2,3,2,-2,0,1.04736,-0.0214844,-0.0834961,-8.375,1.8125,0,-0.313586,-1.40805,0.800593
1248,3,-40,30,6,4,1,-1,3,1.04736,-0.0214844,-0.0834961,-8.375,1.8125,0,-0.313586,-1.40805,0.800593
1250,-3,14,14,-1,0,-2,-3,-1,0.985352,-0.104004,0.0444336,-23.625,-2.25,-0.9375,-0.33405,-1.41097,0.812639
1250,7,30,21,9,4,1,-1,2,0.985352,-0.104004,0.0444336,-23.625,-2.25,-0.9375,-0.33405,-1.41097,0.812639
1262,-21,-23,-41,-23,-13,-8,-7,-16,0.985352,-0.104004,0.0444336,-23.625,-2.25,-0.9375,-0.33405,-1.41097,0.812639
1262,11,39,20,-1,-2,-1,2,5,0.985352,-0.104004,0.0444336,-23.625,-2.25,-0.9375,-0.33405,-1.41097,0.812639
1270,-12,-52,-29,-4,0,0,1,0,1.00098,-0.111816,0.0585938,-24.5625,-8.0625,-1.125,-0.3596,-1.41502,0.829373
1270,4,40,-8,0,-3,-2,-1,3,1.00098,-0.111816,0.0585938,-24.5625,-8.0625,-1.125,-0.3596,-1.41502,0.829373
1293,10,36,12,2,2,2,2,4,1.00098,-0.111816,0.0585938,-24.5625,-8.0625,-1.125,-0.3596,-1.41502,0.829373
1293,0,54,24,3,1,0,0,2,1.00098,-0.111816,0.0585938,-24.5625,-8.0625,-1.125,-0.3596,-1.41502,0.829373
1294,-3,-16,1,1,0,2,0,-2,1.04541,-0.0117188,0.0375977,-22.9375,-5.25,-7.8125,-0.354895,-1.42032,0.816498
1294,5,68,13,-3,-2,-1,0,-2,1.04541,-0.0117188,0.0375977,-22.9375,-5.25,-7.8125,-0.354895,-1.42032,0.816498
1307,3,24,-5,2,2,-1,2,3,1.04541,-0.0117188,0.0375977,-22.9375,-5.25,-7.8125,-0.354895,-1.42032,0.816498
1307,-9,11,-8,5,3,0,-13,-9,1.04541,-0.0117188,0.0375977,-22.9375,-5.25,-7.8125,-0.354895,-1.42032,0.816498
1309,10,24,-15,-9,-6,-3,3,0,1.05664,-0.0224609,0.0327148,5.875,-10.1875,-11.0625,-0.337705,-1.42757,0.801068
1309,-2,-4,-18,-2,-2,-1,-3,-1,1.05664,-0.0224609,0.0327148,5.875,-10.1875,-11.0625,-0.337705,-1.42757,0.801068
1331,-2,-9,-16,-6,-4,-3,-1,-4,1.05664,-0.0224609,0.0327148,5.875,-10.1875,-11.0625,-0.337705,-1.42757,0.801068
1331,7,-8,4,1,1,-1,3,6,1.05664,-0.0224609,0.0327148,5.875,-10.1875,-11.0625,-0.337705,-1.42757,0.801068
1333,-1,-2,6,7,4,1,1,0,1.13672,0.0239258,-0.0395508,3.8125,-11.1875,-10.5,-0.319006,-1.43774,0.783818
1333,0,-14,-20,-6,-4,-2,-2,-1,1.13672,0.0239258,-0.0395508,3.8125,-11.1875,-10.5,-0.319006,-1.43774,0.783818
1344,-4,-7,5,-1,-1,-2,0,1,1.13672,0.0239258,-0.0395508,3.8125,-11.1875,-10.5,-0.319006,-1.43774,0.783818
1344,0,-4,23,1,-1,1,-3,-2,1.13672,0.0239258,-0.0395508,3.8125,-11.1875,-10.5,-0.319006,-1.43774,0.783818
1351,-5,-17,-13,0,-2,-1,-1,-3,1.11426,0.0996094,-0.0244141,-9.5625,-8.0625,-13.8125,-0.276738,-1.44609,0.737865
1351,-5,-55,3,-2,0,-2,2,1,1.11426,0.0996094,-0.0244141,-9.5625,-8.0625,-13.8125,-0.276738,-1.44609,0.737865
1375,5,22,10,6,-1,0,-3,0,1.11426,0.0996094,-0.0244141,-9.5625,-8.0625,-13.8125,-0.276738,-1.44609,0.737865
1375,-8,2,22,0,0,-1,1,-2,1.11426,0.0996094,-0.0244141,-9.5625,-8.0625,-13.8125,-0.276738,-1.44609,0.737865
1376,-8,5,-3,-2,-1,-1,-3,-3,1.0957,0.0185547,-0.0219727,-12.375,-8.125,-12.25,-0.251733,-1.45373,0.708427
1376,2,-14,-10,0,-1,-2,0,0,1.0957,0.0185547,-0.0219727,-12.375,-8.125,-12.25,-0.251733,-1.45373,0.708427
1381,0,15,12,1,-1,-2,0,0,1.0957,0.0185547,-0.0219727,-12.375,-8.125,-12.25,-0.251733,-1.45373,0.708427
1381,13,41,33,5,0,1,3,5,1.0957,0.0185547,-0.0219727,-12.375,-8.125,-12.25,-0.251733,-1.45373,0.708427
1390,1,-16,-28,-5,-1,-3,-1,1,1.09766,-0.00830078,-0.00537109,-3.4375,-4.4375,-10.9375,-0.22496,-1.4598,0.68048
1390,-11,-31,4,-1,0,0,-2,-4,1.09766,-0.00830078,-0.00537109,-3.4375,-4.4375,-10.9375,-0.22496,-1.4598,0.68048
1405,-6,-4,-5,-4,-4,-1,-3,-4,1.09766,-0.00830078,-0.00537109,-3.4375,-4.4375,-10.9375,-0.22496,-1.4598,0.68048
1405,0,-27,-5,1,-2,-2,-1,0,1.09766,-0.00830078,-0.00537109,-3.4375,-4.4375,-10.9375,-0.22496,-1.4598,0.68048
1406,-2,-9,2,2,1,-1,-1,0,1.09473,0.0258789,0.019043,9,0.125,-8,-0.191225,-1.46203,0.649397
1406,4,-40,-16,2,1,0,0,2,1.09473,0.0258789,0.019043,9,0.125,-8,-0.191225,-1.46203,0.649397
1428,-2,-4,8,3,1,1,0,-1,1.09473,0.0258789,0.019043,9,0.125,-8,-0.191225,-1.46203,0.649397
1428,-19,-5,-18,-12,-7,-5,-3,-9,1.09473,0.0258789,0.019043,9,0.125,-8,-0.191225,-1.46203,0.649397
1430,2,3,12,0,1,0,-2,-2,1.1001,0.0292969,0.0546875,11.8125,2.4375,-4.6875,-0.163264,-1.46416,0.625994
1430,-8,14,-3,-2,-2,0,1,-4,1.1001,0.0292969,0.0546875,11.8125,2.4375,-4.6875,-0.163264,-1.46416,0.625994
1450,4,16,5,5,1,-1,2,3,1.1001,0.0292969,0.0546875,11.8125,2.4375,-4.6875,-0.163264,-1.46416,0.625994
1450,5,-14,-11,2,2,-1,-7,2,1.1001,0.0292969,0.0546875,11.8125,2.4375,-4.6875,-0.163264,-1.46416,0.625994
1451,-7,-1,6,0,0,0,1,2,1.09131,-0.0361328,0.0820312,11.1875,1.4375,-2.625,-0.154805,-1.4637,0.621014
1451,2,22,8,-2,-2,-2,0,-3,1.09131,-0.0361328,0.0820312,11.1875,1.4375,-2.625,-0.154805,-1.4637,0.621014
1463,1,1,-1,3,1,0,0,0,1.09131,-0.0361328,0.0820312,11.1875,1.4375,-2.625,-0.154805,-1.4637,0.621014
1463,1,-6,-12,-3,-4,-1,-1,-1,1.09131,-0.0361328,0.0820312,11.1875,1.4375,-2.625,-0.154805,-1.4637,0.621014
1472,-1,-3,7,0,-4,-2,-2,-2,1.05322,-0.0620117,0.122559,14.9375,-2.5625,-4.625,-0.146117,-1.46548,0.617936
1472,2,8,6,1,0,-3,-1,2,1.05322,-0.0620117,0.122559,14.9375,-2.5625,-4.625,-0.146117,-1.46548,0.617936
1488,0,-2,-6,-3,0,-1,-2,-3,1.05322,-0.0620117,0.122559,14.9375,-2.5625,-4.625,-0.146117,-1.46548,0.617936
1488,-2,0,-10,-3,-1,-4,0,-1,1.05322,-0.0620117,0.122559,14.9375,-2.5625,-4.625,-0.146117,-1.46548,0.617936
1489,-1,-3,10,1,0,0,-2,-1,1.06152,-0.0463867,0.109863,23.375,-5,-8.625,-0.119493,-1.46635,0.598812
1489,1,12,-5,0,-2,0,-2,-1,1.06152,-0.0463867,0.109863,23.375,-5,-8.625,-0.119493,-1.46635,0.598812
1511,-1,6,8,1,0,1,-3,0,1.06152,-0.0463867,0.109863,23.375,-5,-8.625,-0.119493,-1.46635,0.598812
1511,2,-35,-9,0,1,1,2,1,1.06152,-0.0463867,0.109863,23.375,-5,-8.625,-0.119493,-1.46635,0.598812
1512,-1,7,15,-1,-1,-1,-4,0,1.10156,0.0117188,0.102051,23.3125,-7.4375,-9.875,-0.0764837,-1.47054,0.564218
1512,1,-2,-4,-2,-3,-2,-1,-1,1.10156,0.0117188,0.102051,23.3125,-7.4375,-9.875,-0.0764837,-1.47054,0.564218
1525,-2,-2,-5,1,1,0,0,1,1.10156,0.0117188,0.102051,23.3125,-7.4375,-9.875,-0.0764837,-1.47054,0.564218
1525,1,22,1,0,-2,1,1,2,1.10156,0.0117188,0.102051,23.3125,-7.4375,-9.875,-0.0764837,-1.47054,0.564218
1532,-6,-10,4,-3,-3,-1,-3,-6,1.12256,0.0283203,0.0507812,16.875,-8.375,-10.5,-0.0272401,-1.47412,0.520367
1532,-3,-7,4,-4,-1,-2,1,0,1.12256,0.0283203,0.0507812,16.875,-8.375,-10.5,-0.0272401,-1.47412,0.520367
1548,-2,5,-20,-7,-5,-3,-3,-6,1.12256,0.0283203,0.0507812,16.875,-8.375,-10.5,-0.0272401,-1.47412,0.520367
1548,13,24,1,2,4,0,3,4,1.12256,0.0283203,0.0507812,16.875,-8.375,-10.5,-0.0272401,-1.47412,0.520367
1550,-22,0,5,0,1,-1,-2,-2,1.10205,0.034668,0.0356445,9.875,-5.875,-11.25,0.0258438,-1.47801,0.470648
1550,3,19,-2,-2,-2,-1,-1,0,1.10205,0.034668,0.0356445,9.875,-5.875,-11.25,0.0258438,-1.47801,0.470648
1571,-2,-2,1,-3,-3,-2,-10,-9,1.10205,0.034668,0.0356445,9.875,-5.875,-11.25,0.0258438,-1.47801,0.470648
1571,-3,14,10,0,0,-2,1,6,1.10205,0.034668,0.0356445,9.875,-5.875,-11.25,0.0258438,-1.47801,0.470648
1572,12,12,-4,0,0,1,-1,-1,1.06006,-0.0556641,0.0454102,10.4375,-2,-8.625,0.0471724,-1.4798,0.452725
1572,-2,26,-6,-2,1,0,5,3,1.06006,-0.0556641,0.0454102,10.4375,-2,-8.625,0.0471724,-1.4798,0.452725
1584,1,11,6,1,-2,-3,-7,-5,1.06006,-0.0556641,0.0454102,10.4375,-2,-8.625,0.0471724,-1.4798,0.452725
1584,-2,12,-4,-3,-1,1,-3,-1,1.06006,-0.0556641,0.0454102,10.4375,-2,-8.625,0.0471724,-1.4798,0.452725
1592,2,-8,-3,-2,0,-1,-2,-1,1.03613,-0.119629,0.0537109,19.0625,0.25,-1.5625,0.02571,-1.48097,0.480803
1592,-3,-33,-23,-4,-3,-1,-1,-1,1.03613,-0.119629,0.0537109,19.0625,0.25,-1.5625,0.02571,-1.48097,0.480803
1608,2,-18,6,3,1,-1,3,2,1.03613,-0.119629,0.0537109,19.0625,0.25,-1.5625,0.02571,-1.48097,0.480803
1608,-5,-29,-11,-2,-3,-1,-2,-5,1.03613,-0.119629,0.0537109,19.0625,0.25,-1.5625,0.02571,-1.48097,0.480803
1610,6,-3,12,5,1,1,4,1,1.01221,-0.0546875,0.0727539,35.625,0.5,2.5625,0.014221,-1.48153,0.504818
1610,-3,1,-7,-2,-2,-1,-6,-3,1.01221,-0.0546875,0.0727539,35.625,0.5,2.5625,0.014221,-1.48153,0.504818
1630,-1,9,-3,-3,-3,-2,3,2,1.01221,-0.0546875,0.0727539,35.625,0.5,2.5625,0.014221,-1.48153,0.504818
1630,-10,-13,-10,-4,-4,-3,-3,-7,1.01221,-0.0546875,0.0727539,35.625,0.5,2.5625,0.014221,-1.48153,0.504818
1632,0,-11,12,0,-1,-1,-1,1,1.021,0.0488281,0.0371094,36.1875,-1.3125,0.5625,0.037056,-1.48375,0.495017
1632,3,7,-4,2,0,-1,-1,-1,1.021,0.0488281,0.0371094,36.1875,-1.3125,0.5625,0.037056,-1.48375,0.495017
1644,-1,-5,8,1,1,-1,-1,1,1.021,0.0488281,0.0371094,36.1875,-1.3125,0.5625,0.037056,-1.48375,0.495017
1644,3,-16,6,1,1,2,2,1,1.021,0.0488281,0.0371094,36.1875,-1.3125,0.5625,0.037056,-1.48375,0.495017
1653,0,8,-13,-4,0,-2,-1,-1,1.02588,0.0571289,0.0449219,13.75,-2.4375,-3.6875,0.0716058,-1.48441,0.46475
1653,-2,11,26,-1,-2,0,-4,-2,1.02588,0.0571289,0.0449219,13.75,-2.4375,-3.6875,0.0716058,-1.48441,0.46475
1668,-1,14,9,-2,-1,0,1,2,1.02588,0.0571289,0.0449219,13.75,-2.4375,-3.6875,0.0716058,-1.48441,0.46475
1668,-3,-42,-34,-7,-1,-2,0,-1,1.02588,0.0571289,0.0449219,13.75,-2.4375,-3.6875,0.0716058,-1.48441,0.46475
1669,-4,-17,-31,-1,0,0,0,-3,1.04053,-0.0161133,0.0390625,0.25,-4,-2.75,0.0781392,-1.48766,0.458525
1669,-6,38,-4,-5,-3,0,-1,-3,1.04053,-0.0161133,0.0390625,0.25,-4,-2.75,0.0781392,-1.48766,0.458525
1690,-5,25,-3,1,0,1,-1,-2,1.04053,-0.0161133,0.0390625,0.25,-4,-2.75,0.0781392,-1.48766,0.458525
1690,4,34,19,1,0,-1,-1,0,1.04053,-0.0161133,0.0390625,0.25,-4,-2.75,0.0781392,-1.48766,0.458525
1691,4,-1,4,0,0,0,0,1,1.05078,-0.0424805,0.0488281,4.3125,-5.375,-3.625,0.0834789,-1.49041,0.454652
1691,1,-36,5,2,1,-2,-2,-6,1.05078,-0.0424805,0.0488281,4.3125,-5.375,-3.625,0.0834789,-1.49041,0.454652
1704,-5,-28,-8,-3,-1,-1,0,-2,1.05078,-0.0424805,0.0488281,4.3125,-5.375,-3.625,0.0834789,-1.49041,0.454652
1704,4,13,10,3,-1,-1,-1,1,1.05078,-0.0424805,0.0488281,4.3125,-5.375,-3.625,0.0834789,-1.49041,0.454652
1712,-6,-39,-23,-5,-1,-2,-1,0,1.05859,-0.0078125,0.0507812,10.0625,-6.6875,-2.6875,0.0970192,-1.49385,0.444762
1712,2,-9,10,3,-1,-1,0,0,1.05859,-0.0078125,0.0507812,10.0625,-6.6875,-2.6875,0.0970192,-1.49385,0.444762
1728,4,-24,-17,-1,-1,0,0,1,1.05859,-0.0078125,0.0507812,10.0625,-6.6875,-2.6875,0.0970192,-1.49385,0.444762
1728,-2,-2,3,-1,0,0,-1,-2,1.05859,-0.0078125,0.0507812,10.0625,-6.6875,-2.6875,0.0970192,-1.49385,0.444762
1729,0,9,16,1,-4,-1,-1,0,1.06201,0.019043,0.0205078,17.75,-8.1875,-4.5625,0.133104,-1.49761,0.414764
1729,-3,-8,-1,-2,0,0,1,0,1.06201,0.019043,0.0205078,17.75,-8.1875,-4.5625,0.133104,-1.49761,0.414764
1750,0,-17,-15,-2,0,-1,1,-1,1.06201,0.019043,0.0205078,17.75,-8.1875,-4.5625,0.133104,-1.49761,0.414764
1750,1,13,3,0,-1,-1,-1,0,1.06201,0.019043,0.0205078,17.75,-8.1875,-4.5625,0.133104,-1.49761,0.414764
1751,1,7,1,0,-2,0,-1,-3,1.08398,0.0351562,0.019043,10.5625,-7.375,0.125,0.152157,-1.50045,0.39898
1751,0,8,4,-1,0,-2,-1,-1,1.08398,0.0351562,0.019043,10.5625,-7.375,0.125,0.152157,-1.50045,0.39898
1764,-5,-15,-1,0,-2,-1,1,-1,1.08398,0.0351562,0.019043,10.5625,-7.375,0.125,0.152157,-1.50045,0.39898
1764,-2,2,-4,0,-1,-2,-3,-2,1.08398,0.0351562,0.019043,10.5625,-7.375,0.125,0.152157,-1.50045,0.39898
1772,-3,12,13,-2,-3,-1,-1,-2,1.08447,0.0541992,0.0400391,7.3125,-4.9375,0.125,0.174751,-1.50274,0.378851
1772,1,6,-10,-1,1,0,-1,0,1.08447,0.0541992,0.0400391,7.3125,-4.9375,0.125,0.174751,-1.50274,0.378851
1788,0,-8,7,1,-1,0,1,2,1.08447,0.0541992,0.0400391,7.3125,-4.9375,0.125,0.174751,-1.50274,0.378851
1788,0,6,6,0,1,0,-1,-1,1.08447,0.0541992,0.0400391,7.3125,-4.9375,0.125,0.174751,-1.50274,0.378851
1789,1,9,-9,-1,0,-1,-2,0,1.07666,0.0839844,0.0576172,7.75,-3.5625,-2.125,0.217763,-1.50553,0.339549
1789,-5,-34,-8,2,-2,-2,-2,-1,1.07666,0.0839844,0.0576172,7.75,-3.5625,-2.125,0.217763,-1.50553,0.339549
1811,0,12,12,0,0,0,-1,-1,1.07666,0.0839844,0.0576172,7.75,-3.5625,-2.125,0.217763,-1.50553,0.339549
1811,-2,6,0,0,-1,0,-2,-4,1.07666,0.0839844,0.0576172,7.75,-3.5625,-2.125,0.217763,-1.50553,0.339549
1812,1,-1,0,-1,-1,1,0,0,1.06982,0.0664062,0.0380859,1.5625,-2.375,0.25,0.23921,-1.50619,0.318392
1812,0,-5,3,-3,-4,0,-2,0,1.06982,0.0664062,0.0380859,1.5625,-2.375,0.25,0.23921,-1.50619,0.318392
1824,0,-1,-5,-2,-2,-2,-1,-1,1.06982,0.0664062,0.0380859,1.5625,-2.375,0.25,0.23921,-1.50619,0.318392
1824,-5,-29,-14,-5,-4,-2,-1,-1,1.06982,0.0664062,0.0380859,1.5625,-2.375,0.25,0.23921,-1.50619,0.318392
1831,1,-10,5,1,1,-1,-2,1,1.09619,0.09375,0.0200195,-2.9375,-0.75,-2.6875,0.284831,-1.50633,0.27151
1831,0,-4,8,-3,0,-2,1,0,1.09619,0.09375,0.0200195,-2.9375,-0.75,-2.6875,0.284831,-1.50633,0.27151
1849,-8,-18,-37,-7,-2,-1,-2,-4,1.09619,0.09375,0.0200195,-2.9375,-0.75,-2.6875,0.284831,-1.50633,0.27151
1849,3,15,2,0,1,0,1,1,1.09619,0.09375,0.0200195,-2.9375,-0.75,-2.6875,0.284831,-1.50633,0.27151
1850,-1,14,-1,1,-2,-1,0,-1,1.07275,0.148926,0.0141602,-9.75,1.8125,-8.375,0.371759,-1.50463,0.180988
1850,-1,22,-3,0,-1,0,-2,-4,1.07275,0.148926,0.0141602,-9.75,1.8125,-8.375,0.371759,-1.50463,0.180988
1870,3,22,17,5,-1,0,0,-1,1.07275,0.148926,0.0141602,-9.75,1.8125,-8.375,0.371759,-1.50463,0.180988
1870,-2,9,-2,-4,-1,0,0,1,1.07275,0.148926,0.0141602,-9.75,1.8125,-8.375,0.371759,-1.50463,0.180988
1871,-2,-9,-3,1,0,-3,3,7,1.06836,0.146973,-0.0195312,-20.9375,4.375,-9.875,0.452451,-1.50296,0.0933071
1871,3,15,1,-1,-4,-4,-2,2,1.06836,0.146973,-0.0195312,-20.9375,4.375,-9.875,0.452451,-1.50296,0.0933071
1884,-1,-11,2,-4,-1,-1,-1,-5,1.06836,0.146973,-0.0195312,-20.9375,4.375,-9.875,0.452451,-1.50296,0.0933071
1884,-1,4,3,2,-1,0,-1,-4,1.06836,0.146973,-0.0195312,-20.9375,4.375,-9.875,0.452451,-1.50296,0.0933071
1893,1,21,16,-1,-1,-1,0,2,1.06201,0.0678711,0.00146484,-20.8125,6.9375,-7.1875,0.483107,-1.5009,0.0554029
1893,-1,-36,-24,-1,2,0,3,-1,1.06201,0.0678711,0.00146484,-20.8125,6.9375,-7.1875,0.483107,-1.5009,0.0554029
1908,0,11,6,4,-1,-1,-3,-1,1.06201,0.0678711,0.00146484,-20.8125,6.9375,-7.1875,0.483107,-1.5009,0.0554029
1908,-3,-4,-2,-1,1,0,1,1,1.06201,0.0678711,0.00146484,-20.8125,6.9375,-7.1875,0.483107,-1.5009,0.0554029
1909,1,10,1,1,-1,1,-2,-5,1.08252,0.0078125,-0.0253906,-12.6875,11.5625,-1.0625,0.463214,-1.49964,0.0710001
1909,0,0,6,2,3,1,0,-2,1.08252,0.0078125,-0.0253906,-12.6875,11.5625,-1.0625,0.463214,-1.49964,0.0710001
1930,3,17,10,1,-1,0,-4,-1,1.08252,0.0078125,-0.0253906,-12.6875,11.5625,-1.0625,0.463214,-1.49964,0.0710001
1930,-8,-23,-13,-6,-6,-5,-5,-5,1.08252,0.0078125,-0.0253906,-12.6875,11.5625,-1.0625,0.463214,-1.49964,0.0710001
1931,-6,-37,-34,-10,-8,-6,-4,-7,1.0835,0.0566406,0.00585938,4.125,17.625,3.75,0.428644,-1.49545,0.106954
1931,1,16,-4,-1,-1,0,0,0,1.0835,0.0566406,0.00585938,4.125,17.625,3.75,0.428644,-1.49545,0.106954
1943,0,-50,-10,1,0,0,3,5,1.0835,0.0566406,0.00585938,4.125,17.625,3.75,0.428644,-1.49545,0.106954
1943,-4,37,6,1,-1,-2,-3,-3,1.0835,0.0566406,0.00585938,4.125,17.625,3.75,0.428644,-1.49545,0.106954
1952,1,6,2,-1,1,1,2,2,1.11572,0.0639648,0.0170898,10.375,22,6.3125,0.384768,-1.49059,0.154853
1952,0,10,3,3,-3,-3,-2,-2,1.11572,0.0639648,0.0170898,10.375,22,6.3125,0.384768,-1.49059,0.154853
1967,-1,-12,-4,6,5,1,0,-1,1.11572,0.0639648,0.0170898,10.375,22,6.3125,0.384768,-1.49059,0.154853
1967,-2,47,24,-2,-5,-4,-5,-2,1.11572,0.0639648,0.0170898,10.375,22,6.3125,0.384768,-1.49059,0.154853
1969,-3,-30,23,-5,-5,-2,1,-4,0.99707,-0.000976562,0.0415039,-0.1875,23.5625,10.1875,0.307203,-1.48546,0.232752
1969,-3,0,11,-7,-1,0,0,-1,0.99707,-0.000976562,0.0415039,-0.1875,23.5625,10.1875,0.307203,-1.48546,0.232752
1990,1,25,-23,-2,-2,-2,0,1,0.99707,-0.000976562,0.0415039,-0.1875,23.5625,10.1875,0.307203,-1.48546,0.232752
1990,9,-55,-10,5,7,2,3,3,0.99707,-0.000976562,0.0415039,-0.1875,23.5625,10.1875,0.307203,-1.48546,0.232752
1991,-4,19,1,2,-2,-3,-6,-6,1.02051,-0.00830078,0.0307617,2.4375,19.9375,17.75,0.216591,-1.48229,0.324801
1991,0,6,10,-3,-3,-2,0,-3,1.02051,-0.00830078,0.0307617,2.4375,19.9375,17.75,0.216591,-1.48229,0.324801
2004,-3,-2,-2,-6,-4,-4,-19,-3,1.02051,-0.00830078,0.0307617,2.4375,19.9375,17.75,0.216591,-1.48229,0.324801
2004,1,-9,-6,0,-2,0,2,0,1.02051,-0.00830078,0.0307617,2.4375,19.9375,17.75,0.216591,-1.48229,0.324801
2012,2,5,-6,2,4,0,-2,0,1.01709,-0.13623,0.0683594,17.8125,27.375,20.875,0.0929284,-1.47409,0.454342
2012,-2,-12,0,4,0,1,9,6,1.01709,-0.13623,0.0683594,17.8125,27.375,20.875,0.0929284,-1.47409,0.454342
2027,-2,15,33,5,-4,-4,-2,0,1.01709,-0.13623,0.0683594,17.8125,27.375,20.875,0.0929284,-1.47409,0.454342
2027,-1,-2,-38,-12,1,1,-3,0,1.01709,-0.13623,0.0683594,17.8125,27.375,20.875,0.0929284,-1.47409,0.454342
2029,-4,-6,-15,-7,-6,-2,-2,-2,1.03223,-0.00146484,0.0410156,16.3125,34.4375,27.6875,-0.000887619,-1.46493,0.554709
2029,1,-3,-11,3,2,0,-4,-2,1.03223,-0.00146484,0.0410156,16.3125,34.4375,27.6875,-0.000887619,-1.46493,0.554709
2050,7,11,5,2,3,2,6,2,1.03223,-0.00146484,0.0410156,16.3125,34.4375,27.6875,-0.000887619,-1.46493,0.554709
2050,5,15,21,6,-3,-2,1,4,1.03223,-0.00146484,0.0410156,16.3125,34.4375,27.6875,-0.000887619,-1.46493,0.554709
2052,-5,-64,-13,-4,0,0,-5,-17,1.00537,0.13916,0.174805,19.125,44.4375,12.625,-0.00305369,-1.44783,0.563901
2052,-14,-48,-14,-9,-6,-4,-4,1,1.00537,0.13916,0.174805,19.125,44.4375,12.625,-0.00305369,-1.44783,0.563901
2064,-6,18,1,0,-3,-1,2,-9,1.00537,0.13916,0.174805,19.125,44.4375,12.625,-0.00305369,-1.44783,0.563901
2064,10,21,5,5,7,6,10,9,1.00537,0.13916,0.174805,19.125,44.4375,12.625,-0.00305369,-1.44783,0.563901
2073,4,-42,-11,-4,-2,-6,-12,-5,0.947266,0.0678711,0.15918,-11.5,46.8125,14,-0.0284351,-1.43065,0.585619
2073,8,-104,0,-4,-4,-5,-8,-14,0.947266,0.0678711,0.15918,-11.5,46.8125,14,-0.0284351,-1.43065,0.585619
2087,17,-41,-2,-8,0,-2,-4,7,0.947266,0.0678711,0.15918,-11.5,46.8125,14,-0.0284351,-1.43065,0.585619
2087,-27,55,-9,-3,-4,-5,-3,-28,0.947266,0.0678711,0.15918,-11.5,46.8125,14,-0.0284351,-1.43065,0.585619
2093,-21,76,1,3,4,8,24,-17,0.997559,0.0219727,0.226562,-40.625,54,13.8125,-0.062686,-1.41009,0.606077
2093,-5,117,2,0,2,8,20,18,0.997559,0.0219727,0.226562,-40.625,54,13.8125,-0.062686,-1.41009,0.606077
2111,9,64,-16,-12,-14,-16,-33,-11,0.997559,0.0219727,0.226562,-40.625,54,13.8125,-0.062686,-1.41009,0.606077
2111,6,63,11,1,0,-3,-2,7,0.997559,0.0219727,0.226562,-40.625,54,13.8125,-0.062686,-1.41009,0.606077
2113,3,59,6,5,1,5,28,27,0.979492,-0.138672,0.281738,-59.8125,57.625,18.125,-0.124442,-1.38648,0.64698
2113,-11,17,-12,-7,-8,-12,6,-33,0.979492,-0.138672,0.281738,-59.8125,57.625,18.125,-0.124442,-1.38648,0.64698
2124,-4,21,2,1,3,-2,-22,10,0.979492,-0.138672,0.281738,-59.8125,57.625,18.125,-0.124442,-1.38648,0.64698
2124,15,-22,3,-1,-3,2,9,18,0.979492,-0.138672,0.281738,-59.8125,57.625,18.125,-0.124442,-1.38648,0.64698
2132,17,-3,11,1,1,0,6,13,0.938965,-0.224609,0.26123,-50.125,58.9375,25.375,-0.191022,-1.3627,0.696364
2132,0,-26,-10,-1,4,7,20,10,0.938965,-0.224609,0.26123,-50.125,58.9375,25.375,-0.191022,-1.3627,0.696364
2146,3,-36,-6,0,4,7,39,54,0.938965,-0.224609,0.26123,-50.125,58.9375,25.375,-0.191022,-1.3627,0.696364
2146,-3,-72,1,0,-1,-6,-18,-25,0.938965,-0.224609,0.26123,-50.125,58.9375,25.375,-0.191022,-1.3627,0.696364
2153,6,3,9,3,3,-1,-5,2,0.946777,-0.0825195,0.318359,-18.5,56.4375,24.8125,-0.219085,-1.33898,0.71833
2153,0,18,-3,-1,0,-2,-15,2,0.946777,-0.0825195,0.318359,-18.5,56.4375,24.8125,-0.219085,-1.33898,0.71833
2170,-9,9,-4,0,-2,0,3,-13,0.946777,-0.0825195,0.318359,-18.5,56.4375,24.8125,-0.219085,-1.33898,0.71833
2170,-4,-16,-5,-3,-2,1,-1,4,0.946777,-0.0825195,0.318359,-18.5,56.4375,24.8125,-0.219085,-1.33898,0.71833
2172,7,-16,4,0,-3,-1,-6,-18,0.840332,-0.165527,0.318848,-13.4375,50.8125,20.5625,-0.244253,-1.317,0.738994
2172,3,-24,5,4,-2,-3,-9,21,0.840332,-0.165527,0.318848,-13.4375,50.8125,20.5625,-0.244253,-1.317,0.738994
2184,-23,-15,-6,-2,1,-2,-11,-49,0.840332,-0.165527,0.318848,-13.4375,50.8125,20.5625,-0.244253,-1.317,0.738994
2184,-3,16,0,0,0,1,-2,13,0.840332,-0.165527,0.318848,-13.4375,50.8125,20.5625,-0.244253,-1.317,0.738994
2192,5,31,-4,-3,-3,-1,-17,7,0.796875,-0.123535,0.298828,-22.625,44,27.75,-0.275731,-1.29754,0.76318
2192,-2,19,-2,-2,-7,-7,2,-6,0.796875,-0.123535,0.298828,-22.625,44,27.75,-0.275731,-1.29754,0.76318
2207,11,6,0,1,0,2,9,-24,0.796875,-0.123535,0.298828,-22.625,44,27.75,-0.275731,-1.29754,0.76318
2207,9,26,2,0,-2,1,-5,-5,0.796875,-0.123535,0.298828,-22.625,44,27.75,-0.275731,-1.29754,0.76318
2213,-49,-20,-12,-6,-4,-7,-8,-1,0.840332,-0.237793,0.3125,-15.875,36.375,31.5,-0.316212,-1.27936,0.798619
2213,-2,10,5,-2,1,1,-7,-9,0.840332,-0.237793,0.3125,-15.875,36.375,31.5,-0.316212,-1.27936,0.798619
2231,8,-2,6,-1,0,1,17,22,0.840332,-0.237793,0.3125,-15.875,36.375,31.5,-0.316212,-1.27936,0.798619
2231,-12,-19,3,1,1,-2,-1,8,0.840332,-0.237793,0.3125,-15.875,36.375,31.5,-0.316212,-1.27936,0.798619
2232,9,2,2,0,0,-2,-1,-9,0.827637,-0.295898,0.323242,-0.4375,29.5625,42.875,-0.364404,-1.26128,0.847614
2232,8,5,5,2,3,3,-2,0,0.827637,-0.295898,0.323242,-0.4375,29.5625,42.875,-0.364404,-1.26128,0.847614
2243,4,-8,-3,-4,-3,-1,2,1,0.827637,-0.295898,0.323242,-0.4375,29.5625,42.875,-0.364404,-1.26128,0.847614
2243,1,-10,-1,-4,-3,-2,-33,-8,0.827637,-0.295898,0.323242,-0.4375,29.5625,42.875,-0.364404,-1.26128,0.847614
2252,-4,-18,-1,-2,-2,-6,-16,-2,0.849121,-0.25,0.324707,22.8125,20.25,39.125,-0.395624,-1.24692,0.887895
2252,-5,-2,-3,-1,2,4,-3,0,0.849121,-0.25,0.324707,22.8125,20.25,39.125,-0.395624,-1.24692,0.887895
2267,6,-10,2,1,2,4,-5,-18,0.849121,-0.25,0.324707,22.8125,20.25,39.125,-0.395624,-1.24692,0.887895
2267,18,-40,-1,1,3,2,19,36,0.849121,-0.25,0.324707,22.8125,20.25,39.125,-0.395624,-1.24692,0.887895
2274,10,-49,-11,-16,-17,-8,-4,2,0.923828,-0.158203,0.327148,43.0625,13.9375,31.125,-0.405677,-1.23745,0.914337
2274,-6,13,5,-8,-1,2,-13,-3,0.923828,-0.158203,0.327148,43.0625,13.9375,31.125,-0.405677,-1.23745,0.914337
2290,-41,-4,-9,-13,-11,-6,-2,1,0.923828,-0.158203,0.327148,43.0625,13.9375,31.125,-0.405677,-1.23745,0.914337
2290,-40,21,6,3,9,3,2,-18,0.923828,-0.158203,0.327148,43.0625,13.9375,31.125,-0.405677,-1.23745,0.914337
2291,11,52,13,33,21,7,3,14,1.0542,-0.107422,0.411133,52.625,13.8125,28.125,-0.402789,-1.22788,0.931379
2291,7,-45,-2,11,-4,-9,-7,-4,1.0542,-0.107422,0.411133,52.625,13.8125,28.125,-0.402789,-1.22788,0.931379
2303,12,1,-14,-25,-13,-3,6,6,1.0542,-0.107422,0.411133,52.625,13.8125,28.125,-0.402789,-1.22788,0.931379
2303,47,7,-9,-22,-13,3,17,37,1.0542,-0.107422,0.411133,52.625,13.8125,28.125,-0.402789,-1.22788,0.931379
2312,-38,25,-14,-10,-5,-4,13,-34,1.20264,-0.0571289,0.362305,35.1875,21.375,48.375,-0.417996,-1.2164,0.961415
2312,-37,25,18,12,-10,-13,-36,-2,1.20264,-0.0571289,0.362305,35.1875,21.375,48.375,-0.417996,-1.2164,0.961415
2327,15,25,22,48,30,8,-17,3,1.20264,-0.0571289,0.362305,35.1875,21.375,48.375,-0.417996,-1.2164,0.961415
2327,23,56,3,9,-2,2,10,15,1.20264,-0.0571289,0.362305,35.1875,21.375,48.375,-0.417996,-1.2164,0.961415
2334,9,62,3,-8,8,5,41,-14,1.24756,-0.186523,0.450684,2.875,40.25,51.9375,-0.44293,-1.196,0.989483
2334,52,24,-28,-64,-48,-16,23,41,1.24756,-0.186523,0.450684,2.875,40.25,51.9375,-0.44293,-1.196,0.989483
2350,15,-13,-14,-49,-13,2,-69,-34,1.24756,-0.186523,0.450684,2.875,40.25,51.9375,-0.44293,-1.196,0.989483
2350,-29,-47,1,16,-4,8,17,-37,1.24756,-0.186523,0.450684,2.875,40.25,51.9375,-0.44293,-1.196,0.989483
2351,-19,-66,4,14,30,-7,-3,-5,1.03418,-0.40918,0.583984,-32.4375,51.5,50.9375,-0.479841,-1.16596,1.01615
2351,3,-34,-14,8,-19,3,56,59,1.03418,-0.40918,0.583984,-32.4375,51.5,50.9375,-0.479841,-1.16596,1.01615
2372,-84,-46,-8,-27,-35,-28,-18,-27,1.03418,-0.40918,0.583984,-32.4375,51.5,50.9375,-0.479841,-1.16596,1.01615
2372,-56,-28,40,55,35,0,-66,-47,1.03418,-0.40918,0.583984,-32.4375,51.5,50.9375,-0.479841,-1.16596,1.01615
2374,88,7,-1,45,23,23,10,66,0.900879,-0.172852,0.594238,13.0625,41.3125,21.625,-0.468683,-1.14526,1.01015
2374,69,-2,-16,15,56,39,18,45,0.900879,-0.172852,0.594238,13.0625,41.3125,21.625,-0.468683,-1.14526,1.01015
2387,-57,-55,-10,29,-11,-6,18,-42,0.900879,-0.172852,0.594238,13.0625,41.3125,21.625,-0.468683,-1.14526,1.01015
2387,-67,-23,-30,-112,-104,-22,3,-87,0.900879,-0.172852,0.594238,13.0625,41.3125,21.625,-0.468683,-1.14526,1.01015
2403,77,1,-5,-27,19,21,38,69,0.772461,-0.172363,0.383789,25.6875,26.9375,-9.75,-0.443465,-1.13701,0.992466
2403,-82,-2,-6,26,18,-24,-37,-34,0.772461,-0.172363,0.383789,25.6875,26.9375,-9.75,-0.443465,-1.13701,0.992466
2411,-33,32,66,60,64,24,18,10,0.772461,-0.172363,0.383789,25.6875,26.9375,-9.75,-0.443465,-1.13701,0.992466
2411,4,29,114,127,72,10,-22,8,0.772461,-0.172363,0.383789,25.6875,26.9375,-9.75,-0.443465,-1.13701,0.992466
2412,-88,-27,-64,-40,-50,-7,-4,-103,0.62793,-0.273438,0.116699,-22.375,-13.5625,32.625,-0.488404,-1.1374,1.03138
2412,91,10,-60,-96,-39,-3,24,60,0.62793,-0.273438,0.116699,-22.375,-13.5625,32.625,-0.488404,-1.1374,1.03138
2433,-109,9,-78,-86,-43,-8,-75,-24,0.62793,-0.273438,0.116699,-22.375,-13.5625,32.625,-0.488404,-1.1374,1.03138
2433,97,25,-6,31,-2,-35,10,48,0.62793,-0.273438,0.116699,-22.375,-13.5625,32.625,-0.488404,-1.1374,1.03138
2434,55,23,46,-23,-19,-21,-40,27,1.30664,-0.42041,0.163086,37.1875,-23.75,17.875,-0.513013,-1.14731,1.06953
2434,42,7,26,92,-32,28,20,-15,1.30664,-0.42041,0.163086,37.1875,-23.75,17.875,-0.513013,-1.14731,1.06953
2447,77,-3,21,92,85,42,73,32,1.30664,-0.42041,0.163086,37.1875,-23.75,17.875,-0.513013,-1.14731,1.06953
2447,43,-1,-12,-26,66,9,-16,11,1.30664,-0.42041,0.163086,37.1875,-23.75,17.875,-0.513013,-1.14731,1.06953
2454,-15,7,-29,-54,-34,-6,6,12,1.27002,0.189941,0.0532227,52.1875,5.25,-28.125,-0.461782,-1.16355,1.03537
2454,-48,-19,-34,-127,-69,-25,-22,-52,1.27002,0.189941,0.0532227,52.1875,5.25,-28.125,-0.461782,-1.16355,1.03537
2470,102,16,-6,-68,-77,4,55,53,1.27002,0.189941,0.0532227,52.1875,5.25,-28.125,-0.461782,-1.16355,1.03537
2470,-44,-17,7,77,53,-4,-31,16,1.27002,0.189941,0.0532227,52.1875,5.25,-28.125,-0.461782,-1.16355,1.03537
2472,-105,-18,0,5,-68,-6,-28,-56,1.23145,0.318359,0.0864258,-59.0625,18.625,-43.5,-0.423775,-1.17718,0.974955
2472,-25,13,23,62,69,-8,-56,-24,1.23145,0.318359,0.0864258,-59.0625,18.625,-43.5,-0.423775,-1.17718,0.974955
2493,63,26,60,99,85,6,22,20,1.23145,0.318359,0.0864258,-59.0625,18.625,-43.5,-0.423775,-1.17718,0.974955
2493,-40,-1,-32,-128,-54,20,37,23,1.23145,0.318359,0.0864258,-59.0625,18.625,-43.5,-0.423775,-1.17718,0.974955
2494,-5,-10,-12,37,-21,-11,-28,-4,1.34131,-0.253906,0.195801,-104.938,23.6875,-11.625,-0.44568,-1.17298,0.9587
2494,62,30,52,37,0,-7,11,24,1.34131,-0.253906,0.195801,-104.938,23.6875,-11.625,-0.44568,-1.17298,0.9587
2506,-51,-10,-37,-54,7,-12,-1,-26,1.34131,-0.253906,0.195801,-104.938,23.6875,-11.625,-0.44568,-1.17298,0.9587
2506,10,-29,-4,32,20,2,-18,-17,1.34131,-0.253906,0.195801,-104.938,23.6875,-11.625,-0.44568,-1.17298,0.9587
2515,39,-17,13,15,-23,-14,-18,38,1.31348,-0.292969,0.256348,-31.75,32.125,-0.0625,-0.454735,-1.16743,0.954937
2515,30,-12,-3,-18,-37,-2,7,-36,1.31348,-0.292969,0.256348,-31.75,32.125,-0.0625,-0.454735,-1.16743,0.954937
2530,64,7,-3,-20,5,-10,-8,37,1.31348,-0.292969,0.256348,-31.75,32.125,-0.0625,-0.454735,-1.16743,0.954937
2530,0,-22,-39,-60,-39,-4,-5,-23,1.31348,-0.292969,0.256348,-31.75,32.125,-0.0625,-0.454735,-1.16743,0.954937
2531,-9,-15,39,-2,15,-1,-5,-12,1.27881,0.00292969,0.216797,2.8125,34.75,-18.875,-0.42227,-1.1673,0.921662
2531,-15,-10,-17,31,16,2,-8,16,1.27881,0.00292969,0.216797,2.8125,34.75,-18.875,-0.42227,-1.1673,0.921662
2553,-13,-39,-13,-17,-9,-4,-3,-9,1.27881,0.00292969,0.216797,2.8125,34.75,-18.875,-0.42227,-1.1673,0.921662
2553,27,-32,-36,-128,-110,-18,9,0,1.27881,0.00292969,0.216797,2.8125,34.75,-18.875,-0.42227,-1.1673,0.921662
2554,33,-48,-16,17,40,14,5,27,1.34326,0.0366211,0.229492,-40.625,35.875,-29.25,-0.395508,-1.16845,0.878386
2554,-31,-16,68,105,127,45,22,-11,1.34326,0.0366211,0.229492,-40.625,35.875,-29.25,-0.395508,-1.16845,0.878386
2566,60,13,65,71,72,17,-27,17,1.34326,0.0366211,0.229492,-40.625,35.875,-29.25,-0.395508,-1.16845,0.878386
2566,13,6,-13,-46,-68,3,24,-3,1.34326,0.0366211,0.229492,-40.625,35.875,-29.25,-0.395508,-1.16845,0.878386
2575,-93,-7,-54,-116,-68,-37,9,-90,1.21191,-0.279785,0.283203,-74.1875,35.625,-14.625,-0.408247,-1.16246,0.862547
2575,35,-84,-24,-10,-27,-22,-43,-16,1.21191,-0.279785,0.283203,-74.1875,35.625,-14.625,-0.408247,-1.16246,0.862547
2590,-5,-25,9,45,-28,-16,-2,-2,1.21191,-0.279785,0.283203,-74.1875,35.625,-14.625,-0.408247,-1.16246,0.862547
2590,7,-70,15,41,26,5,1,25,1.21191,-0.279785,0.283203,-74.1875,35.625,-14.625,-0.408247,-1.16246,0.862547
2591,80,2,12,-23,24,12,33,42,1.04395,-0.419434,0.308594,-46.75,34.4375,-8.125,-0.423197,-1.15264,0.858207
2591,-128,-97,-89,-128,-86,-18,-31,-51,1.04395,-0.419434,0.308594,-46.75,34.4375,-8.125,-0.423197,-1.15264,0.858207
2613,-5,-48,11,11,26,-9,2,13,1.04395,-0.419434,0.308594,-46.75,34.4375,-8.125,-0.423197,-1.15264,0.858207
2613,10,39,15,110,38,8,-10,-12,1.04395,-0.419434,0.308594,-46.75,34.4375,-8.125,-0.423197,-1.15264,0.858207
2614,21,31,28,2,-9,4,-2,23,0.942383,-0.385254,0.277832,-26.4375,38.625,-17.75,-0.42201,-1.14335,0.844184
2614,62,115,45,43,89,23,51,14,0.942383,-0.385254,0.277832,-26.4375,38.625,-17.75,-0.42201,-1.14335,0.844184
2619,-10,71,-15,49,-9,1,-17,16,0.942383,-0.385254,0.277832,-26.4375,38.625,-17.75,-0.42201,-1.14335,0.844184
2619,21,28,-55,-116,-95,-31,10,-17,0.942383,-0.385254,0.277832,-26.4375,38.625,-17.75,-0.42201,-1.14335,0.844184
2627,29,52,44,62,60,7,2,19,0.870117,-0.367188,0.27002,-48.0625,43.8125,-25.4375,-0.420744,-1.13312,0.821709
2627,-45,11,6,42,27,15,-21,-27,0.870117,-0.367188,0.27002,-48.0625,43.8125,-25.4375,-0.420744,-1.13312,0.821709
2651,-28,27,-27,-72,-63,-23,8,-4,0.870117,-0.367188,0.27002,-48.0625,43.8125,-25.4375,-0.420744,-1.13312,0.821709
2651,-14,49,9,82,66,20,-5,-20,0.870117,-0.367188,0.27002,-48.0625,43.8125,-25.4375,-0.420744,-1.13312,0.821709
2652,33,37,-16,-33,-15,-7,0,25,0.793457,-0.424316,0.303223,-74.875,49.1875,-26.5625,-0.429012,-1.11961,0.798996
2652,1,54,-36,-128,-81,-29,-14,0,0.793457,-0.424316,0.303223,-74.875,49.1875,-26.5625,-0.429012,-1.11961,0.798996
2672,27,44,31,83,24,15,44,-10,0.793457,-0.424316,0.303223,-74.875,49.1875,-26.5625,-0.429012,-1.11961,0.798996
2672,-59,6,-12,-11,-55,-22,-28,12,0.793457,-0.424316,0.303223,-74.875,49.1875,-26.5625,-0.429012,-1.11961,0.798996
2678,20,16,-6,-58,26,0,-5,-14,0.733887,-0.466309,0.370605,-78.625,54.75,-23.5,-0.439485,-1.10209,0.77687
2678,-10,7,40,125,82,40,30,5,0.733887,-0.466309,0.370605,-78.625,54.75,-23.5,-0.439485,-1.10209,0.77687
2686,107,0,-42,-119,-78,-16,-27,54,0.733887,-0.466309,0.370605,-78.625,54.75,-23.5,-0.439485,-1.10209,0.77687
2686,-57,-29,4,5,6,11,46,-11,0.733887,-0.466309,0.370605,-78.625,54.75,-23.5,-0.439485,-1.10209,0.77687
2695,-66,-3,26,54,18,-17,-57,-43,0.676758,-0.395996,0.413574,-73.375,59.3125,-27.375,-0.440982,-1.08349,0.747462
2695,87,11,-37,-24,-9,-14,15,4,0.676758,-0.395996,0.413574,-73.375,59.3125,-27.375,-0.440982,-1.08349,0.747462
2711,-5,9,60,37,33,10,6,-39,0.676758,-0.395996,0.413574,-73.375,59.3125,-27.375,-0.440982,-1.08349,0.747462
2711,-14,-19,17,-35,-42,-18,-20,-22,0.676758,-0.395996,0.413574,-73.375,59.3125,-27.375,-0.440982,-1.08349,0.747462
2712,-57,4,-50,-54,-24,2,15,3,0.606445,-0.283203,0.455078,-76.25,60.25,-36.5,-0.433093,-1.06542,0.707364
2712,84,42,30,36,43,0,-37,21,0.606445,-0.283203,0.455078,-76.25,60.25,-36.5,-0.433093,-1.06542,0.707364
2733,-34,11,-52,-51,-18,0,25,-35,0.606445,-0.283203,0.455078,-76.25,60.25,-36.5,-0.433093,-1.06542,0.707364
2733,107,60,22,12,14,11,29,78,0.606445,-0.283203,0.455078,-76.25,60.25,-36.5,-0.433093,-1.06542,0.707364
2734,43,10,10,95,43,9,-23,-59,0.586426,-0.280273,0.501465,-86.9375,60.75,-39.1875,-0.427752,-1.04693,0.665859
2734,-84,-20,-8,-114,-90,-33,-9,-1,0.586426,-0.280273,0.501465,-86.9375,60.75,-39.1875,-0.427752,-1.04693,0.665859
2746,38,15,-36,-36,-38,-7,-26,32,0.586426,-0.280273,0.501465,-86.9375,60.75,-39.1875,-0.427752,-1.04693,0.665859
2746,-17,25,84,81,120,22,21,-25,0.586426,-0.280273,0.501465,-86.9375,60.75,-39.1875,-0.427752,-1.04693,0.665859
2755,70,-16,33,50,25,5,-6,42,0.594238,-0.25293,0.503906,-91.5,63.375,-41.875,-0.422632,-1.0284,0.622567
2755,5,-2,24,-3,-11,3,12,7,0.594238,-0.25293,0.503906,-91.5,63.375,-41.875,-0.422632,-1.0284,0.622567
2770,-69,-23,-57,-128,-106,-2,50,-5,0.594238,-0.25293,0.503906,-91.5,63.375,-41.875,-0.422632,-1.0284,0.622567
2770,86,0,-60,-15,-41,-19,-78,4,0.594238,-0.25293,0.503906,-91.5,63.375,-41.875,-0.422632,-1.0284,0.622567
2771,-47,-8,8,39,-18,0,-12,-2,0.552246,-0.212402,0.459961,-78.875,65,-42.4375,-0.413628,-1.01034,0.579534
2771,-24,-4,5,37,18,-3,28,-10,0.552246,-0.212402,0.459961,-78.875,65,-42.4375,-0.413628,-1.01034,0.579534
2793,6,-10,5,-37,-39,-6,-49,5,0.552246,-0.212402,0.459961,-78.875,65,-42.4375,-0.413628,-1.01034,0.579534
2793,40,0,-40,-110,6,6,60,54,0.552246,-0.212402,0.459961,-78.875,65,-42.4375,-0.413628,-1.01034,0.579534
2794,-22,-15,0,104,62,-21,-1,-18,0.558594,-0.166504,0.47168,-60.0625,64.8125,-38.375,-0.399851,-0.992164,0.538838
2794,-9,3,2,39,-15,23,-4,15,0.558594,-0.166504,0.47168,-60.0625,64.8125,-38.375,-0.399851,-0.992164,0.538838
2806,-21,-10,12,23,5,-8,0,-11,0.558594,-0.166504,0.47168,-60.0625,64.8125,-38.375,-0.399851,-0.992164,0.538838
2806,22,-16,-18,-34,-16,-10,-19,-14,0.558594,-0.166504,0.47168,-60.0625,64.8125,-38.375,-0.399851,-0.992164,0.538838
2815,3,-11,-34,-66,-40,-5,63,38,0.601562,-0.132324,0.477051,-54.75,63.4375,-39.375,-0.384542,-0.975231,0.498464
2815,83,-6,-2,-6,31,19,-49,-24,0.601562,-0.132324,0.477051,-54.75,63.4375,-39.375,-0.384542,-0.975231,0.498464
2830,-35,-19,45,127,89,21,20,-32,0.601562,-0.132324,0.477051,-54.75,63.4375,-39.375,-0.384542,-0.975231,0.498464
2830,-80,-9,4,-46,-3,12,-23,-62,0.601562,-0.132324,0.477051,-54.75,63.4375,-39.375,-0.384542,-0.975231,0.498464
2831,-2,-9,-9,6,-48,-4,-6,11,0.594727,-0.17334,0.459961,-55.6875,63.375,-46.5,-0.369969,-0.959097,0.457253
2831,48,-20,-1,-118,-98,-17,23,29,0.594727,-0.17334,0.459961,-55.6875,63.375,-46.5,-0.369969,-0.959097,0.457253
2853,16,-29,-89,-49,-21,2,-3,-9,0.594727,-0.17334,0.459961,-55.6875,63.375,-46.5,-0.369969,-0.959097,0.457253
2853,29,5,83,127,106,18,5,31,0.594727,-0.17334,0.459961,-55.6875,63.375,-46.5,-0.369969,-0.959097,0.457253
2854,-65,-25,11,-87,-24,4,19,-61,0.585938,-0.228516,0.496582,-56.625,60.5625,-49.9375,-0.35803,-0.943163,0.41766
2854,-32,22,93,11,-10,-7,-38,-6,0.585938,-0.228516,0.496582,-56.625,60.5625,-49.9375,-0.35803,-0.943163,0.41766
2866,-2,-9,-31,-112,-90,-53,5,1,0.585938,-0.228516,0.496582,-56.625,60.5625,-49.9375,-0.35803,-0.943163,0.41766
2866,-13,-42,-103,-128,-128,15,-35,-7,0.585938,-0.228516,0.496582,-56.625,60.5625,-49.9375,-0.35803,-0.943163,0.41766
2875,43,4,14,88,31,25,51,80,0.606445,-0.26123,0.535156,-49.9375,58.5,-43.0625,-0.349255,-0.926439,0.384019
2875,-16,-14,25,84,26,-35,-44,7,0.606445,-0.26123,0.535156,-49.9375,58.5,-43.0625,-0.349255,-0.926439,0.384019
2891,18,13,31,58,49,19,17,34,0.606445,-0.26123,0.535156,-49.9375,58.5,-43.0625,-0.349255,-0.926439,0.384019
2891,5,-1,-22,-32,-61,-24,-5,-23,0.606445,-0.26123,0.535156,-49.9375,58.5,-43.0625,-0.349255,-0.926439,0.384019
2892,-57,-5,33,-14,51,6,-65,-31,0.59668,-0.270508,0.512207,-48.25,57.5625,-39.75,-0.343424,-0.910169,0.35401
2892,12,2,-29,64,76,23,-10,-46,0.59668,-0.270508,0.512207,-48.25,57.5625,-39.75,-0.343424,-0.910169,0.35401
2913,9,1,43,15,33,1,-13,1,0.59668,-0.270508,0.512207,-48.25,57.5625,-39.75,-0.343424,-0.910169,0.35401
2913,38,7,-26,-4,-19,-16,37,34,0.59668,-0.270508,0.512207,-48.25,57.5625,-39.75,-0.343424,-0.910169,0.35401
2914,10,11,19,-85,-28,13,-3,28,0.535645,-0.242188,0.498535,-46,59.75,-44.25,-0.334725,-0.893373,0.321179
2914,-58,-29,-106,-48,-38,-13,22,-55,0.535645,-0.242188,0.498535,-46,59.75,-44.25,-0.334725,-0.893373,0.321179
2926,30,6,20,-83,2,-17,-31,-9,0.535645,-0.242188,0.498535,-46,59.75,-44.25,-0.334725,-0.893373,0.321179
2926,10,9,43,107,45,-6,25,17,0.535645,-0.242188,0.498535,-46,59.75,-44.25,-0.334725,-0.893373,0.321179
2935,27,8,-9,25,22,43,13,-16,0.580566,-0.25,0.554688,-43.75,61.5,-46.3125,-0.324899,-0.875894,0.287717
2935,57,4,6,-80,-36,-17,24,50,0.580566,-0.25,0.554688,-43.75,61.5,-46.3125,-0.324899,-0.875894,0.287717
2958,-68,-27,-11,-25,-6,-11,-9,-50,0.580566,-0.25,0.554688,-43.75,61.5,-46.3125,-0.324899,-0.875894,0.287717
2958,-34,-3,8,62,18,-10,-4,4,0.580566,-0.25,0.554688,-43.75,61.5,-46.3125,-0.324899,-0.875894,0.287717
2959,30,-18,-64,-21,-7,-18,-47,-17,0.631348,-0.254883,0.616699,-45.8125,60,-44.0625,-0.317788,-0.858656,0.25635
2959,0,1,35,96,116,18,14,21,0.631348,-0.254883,0.616699,-45.8125,60,-44.0625,-0.317788,-0.858656,0.25635
2972,-31,-13,-36,-28,-44,-43,-9,-7,0.631348,-0.254883,0.616699,-45.8125,60,-44.0625,-0.317788,-0.858656,0.25635
2972,-18,-5,21,-36,0,40,29,6,0.631348,-0.254883,0.616699,-45.8125,60,-44.0625,-0.317788,-0.858656,0.25635
2974,-2,-17,-10,62,36,3,-5,-21,0.599609,-0.256836,0.624023,-43.3125,55.8125,-41.4375,-0.312252,-0.84204,0.227882
2974,18,0,26,-118,-112,-13,26,22,0.599609,-0.256836,0.624023,-43.3125,55.8125,-41.4375,-0.312252,-0.84204,0.227882
2987,38,-26,-79,-86,-68,12,-22,27,0.599609,-0.256836,0.624023,-43.3125,55.8125,-41.4375,-0.312252,-0.84204,0.227882
2987,-42,-9,3,127,127,-22,-16,-47,0.599609,-0.256836,0.624023,-43.3125,55.8125,-41.4375,-0.312252,-0.84204,0.227882
2995,34,22,84,57,57,17,43,53,0.558594,-0.250488,0.662109,-39.25,52.0625,-41.75,-0.305961,-0.825655,0.199976
2995,-43,20,17,-73,-33,-1,0,-55,0.558594,-0.250488,0.662109,-39.25,52.0625,-41.75,-0.305961,-0.825655,0.199976
3010,32,-6,6,15,-19,-17,7,8,0.558594,-0.250488,0.662109,-39.25,52.0625,-41.75,-0.305961,-0.825655,0.199976
3010,21,2,-41,10,-4,23,21,8,0.558594,-0.250488,0.662109,-39.25,52.0625,-41.75,-0.305961,-0.825655,0.199976
3016,15,-13,-42,-90,-62,-26,-35,-14,0.541992,-0.200195,0.65918,-38.6875,50.5,-45.0625,-0.297593,-0.810459,0.170243
3016,-10,-7,1,3,37,9,49,27,0.541992,-0.200195,0.65918,-38.6875,50.5,-45.0625,-0.297593,-0.810459,0.170243
3032,10,12,68,86,56,16,-15,-10,0.541992,-0.200195,0.65918,-38.6875,50.5,-45.0625,-0.297593,-0.810459,0.170243
3032,-22,9,-29,-30,-51,-13,-16,-27,0.541992,-0.200195,0.65918,-38.6875,50.5,-45.0625,-0.297593,-0.810459,0.170243
3034,40,14,23,52,57,16,30,25,0.486816,-0.209961,0.67627,-39.8125,49.1875,-43.1875,-0.291509,-0.794258,0.142349
3034,-29,-3,11,-31,-72,6,3,-12,0.486816,-0.209961,0.67627,-39.8125,49.1875,-43.1875,-0.291509,-0.794258,0.142349
3046,33,10,-7,-23,9,4,7,27,0.486816,-0.209961,0.67627,-39.8125,49.1875,-43.1875,-0.291509,-0.794258,0.142349
3046,29,-5,-15,-93,10,-13,-6,2,0.486816,-0.209961,0.67627,-39.8125,49.1875,-43.1875,-0.291509,-0.794258,0.142349
3055,1,9,29,49,-1,18,-12,-3,0.473145,-0.159668,0.730957,-37.875,49.625,-42.625,-0.283662,-0.777301,0.113871
3055,41,13,44,67,52,13,-14,-13,0.473145,-0.159668,0.730957,-37.875,49.625,-42.625,-0.283662,-0.777301,0.113871
3070,5,7,4,-35,16,27,4,15,0.473145,-0.159668,0.730957,-37.875,49.625,-42.625,-0.283662,-0.777301,0.113871
3070,25,8,51,125,83,5,64,26,0.473145,-0.159668,0.730957,-37.875,49.625,-42.625,-0.283662,-0.777301,0.113871
3072,-26,-14,-48,-102,-14,-23,-48,23,0.431641,-0.141113,0.765137,-42.75,46.3125,-40,-0.278736,-0.760359,0.0871996
3072,-51,-15,-78,-88,-83,-39,-49,-28,0.431641,-0.141113,0.765137,-42.75,46.3125,-40,-0.278736,-0.760359,0.0871996
3093,20,-3,-4,55,41,17,1,-13,0.431641,-0.141113,0.765137,-42.75,46.3125,-40,-0.278736,-0.760359,0.0871996
3093,-25,-1,40,-43,-38,-8,-19,-10,0.431641,-0.141113,0.765137,-42.75,46.3125,-40,-0.278736,-0.760359,0.0871996
3094,39,16,18,79,81,15,39,-6,0.398926,-0.104004,0.805664,-31.4375,44.75,-33.5,-0.271093,-0.742274,0.0632816
3094,-42,0,23,99,68,24,-1,18,0.398926,-0.104004,0.805664,-31.4375,44.75,-33.5,-0.271093,-0.742274,0.0632816
3115,-15,3,39,-78,-90,-40,0,3,0.398926,-0.104004,0.805664,-31.4375,44.75,-33.5,-0.271093,-0.742274,0.0632816
3115,-18,-14,-43,-36,34,15,-33,-19,0.398926,-0.104004,0.805664,-31.4375,44.75,-33.5,-0.271093,-0.742274,0.0632816
3117,25,4,2,-22,-41,-12,9,6,0.440918,-0.078125,0.839355,-34.8125,39.25,-29.875,-0.266077,-0.726377,0.0416193
3117,-1,-2,-43,-17,12,1,10,21,0.440918,-0.078125,0.839355,-34.8125,39.25,-29.875,-0.266077,-0.726377,0.0416193
3129,24,8,61,32,7,36,0,-15,0.440918,-0.078125,0.839355,-34.8125,39.25,-29.875,-0.266077,-0.726377,0.0416193
3129,-52,-19,-70,-38,-120,-20,-25,-56,0.440918,-0.078125,0.839355,-34.8125,39.25,-29.875,-0.266077,-0.726377,0.0416193
3137,49,13,47,19,-47,-15,8,36,0.470215,-0.0849609,0.853516,-30.375,38.0625,-25.3125,-0.261614,-0.711123,0.022698
3137,-37,-17,-34,-24,-61,-29,17,3,0.470215,-0.0849609,0.853516,-30.375,38.0625,-25.3125,-0.261614,-0.711123,0.022698
3152,67,-1,-43,-60,-54,40,-23,24,0.470215,-0.0849609,0.853516,-30.375,38.0625,-25.3125,-0.261614,-0.711123,0.022698
3152,-4,-4,44,39,74,10,-6,-5,0.470215,-0.0849609,0.853516,-30.375,38.0625,-25.3125,-0.261614,-0.711123,0.022698
3155,-27,-19,14,22,30,2,6,5,0.44873,-0.0869141,0.876953,-21.875,34,-21.875,-0.255838,-0.696316,0.00603702
3155,36,3,-5,23,-11,-16,-31,-8,0.44873,-0.0869141,0.876953,-21.875,34,-21.875,-0.255838,-0.696316,0.00603702
3176,4,14,9,-12,-51,-35,41,17,0.44873,-0.0869141,0.876953,-21.875,34,-21.875,-0.255838,-0.696316,0.00603702
3176,-14,10,22,-26,38,10,-4,26,0.44873,-0.0869141,0.876953,-21.875,34,-21.875,-0.255838,-0.696316,0.00603702
3177,-38,-15,-96,12,-5,-8,-27,-40,0.473633,-0.0820312,0.886719,-12.6875,31.125,-19.25,-0.248243,-0.682842,-0.00873719
3177,48,10,-38,-33,86,27,23,38,0.473633,-0.0820312,0.886719,-12.6875,31.125,-19.25,-0.248243,-0.682842,-0.00873719
3190,-75,-18,3,33,27,-18,-2,-39,0.473633,-0.0820312,0.886719,-12.6875,31.125,-19.25,-0.248243,-0.682842,-0.00873719
3190,70,23,51,52,36,0,-11,17,0.473633,-0.0820312,0.886719,-12.6875,31.125,-19.25,-0.248243,-0.682842,-0.00873719
3196,-59,20,50,-29,-13,4,26,-19,0.448242,-0.019043,0.859375,-9.5,27.125,-14.9375,-0.239693,-0.670705,-0.0217861
3196,28,-16,-3,-1,-73,-36,-35,4,0.448242,-0.019043,0.859375,-9.5,27.125,-14.9375,-0.239693,-0.670705,-0.0217861
3212,-43,-14,-95,-73,91,-51,1,6,0.448242,-0.019043,0.859375,-9.5,27.125,-14.9375,-0.239693,-0.670705,-0.0217861
3212,39,-1,-14,66,74,54,10,3,0.448242,-0.019043,0.859375,-9.5,27.125,-14.9375,-0.239693,-0.670705,-0.0217861
3213,-9,-16,8,-34,-4,6,-1,-3,0.412598,-0.0664062,0.875488,-7.625,23.625,-5.5625,-0.235037,-0.658146,-0.0293879
3213,-4,16,32,82,31,5,2,-27,0.412598,-0.0664062,0.875488,-7.625,23.625,-5.5625,-0.235037,-0.658146,-0.0293879
3235,-20,9,27,-64,-81,-9,-27,15,0.412598,-0.0664062,0.875488,-7.625,23.625,-5.5625,-0.235037,-0.658146,-0.0293879
3235,7,-14,29,84,51,-13,51,-44,0.412598,-0.0664062,0.875488,-7.625,23.625,-5.5625,-0.235037,-0.658146,-0.0293879
3237,57,4,-37,-29,11,-24,-17,8,0.480957,-0.160645,0.900879,-5.875,21.5,0,-0.2341,-0.646845,-0.0325489
3237,5,-8,-9,-42,35,9,67,5,0.480957,-0.160645,0.900879,-5.875,21.5,0,-0.2341,-0.646845,-0.0325489
3249,-59,-6,5,16,-21,2,-25,-5,0.480957,-0.160645,0.900879,-5.875,21.5,0,-0.2341,-0.646845,-0.0325489
3249,-46,-6,-35,-55,-54,-11,-13,-12,0.480957,-0.160645,0.900879,-5.875,21.5,0,-0.2341,-0.646845,-0.0325489
3264,39,-17,-21,-53,-50,2,-13,17,0.475586,-0.142578,0.856934,-4.875,20.3125,2.5625,-0.233449,-0.636415,-0.0345684
3264,-3,-6,15,-54,-84,-19,37,-24,0.475586,-0.142578,0.856934,-4.875,20.3125,2.5625,-0.233449,-0.636415,-0.0345684
3272,-7,7,-7,103,119,48,11,-2,0.475586,-0.142578,0.856934,-4.875,20.3125,2.5625,-0.233449,-0.636415,-0.0345684
3272,35,-21,-18,-25,-45,-20,-22,32,0.475586,-0.142578,0.856934,-4.875,20.3125,2.5625,-0.233449,-0.636415,-0.0345684
3274,-44,8,7,-11,7,-2,12,-13,0.446777,-0.131836,0.832031,2.75,22.9375,2.125,-0.229674,-0.625291,-0.0371569
3274,66,16,-8,28,33,7,-7,37,0.446777,-0.131836,0.832031,2.75,22.9375,2.125,-0.229674,-0.625291,-0.0371569
3296,-39,3,30,113,125,30,19,-67,0.446777,-0.131836,0.832031,2.75,22.9375,2.125,-0.229674,-0.625291,-0.0371569
3296,2,6,22,-38,-44,-11,8,18,0.446777,-0.131836,0.832031,2.75,22.9375,2.125,-0.229674,-0.625291,-0.0371569
3296,-11,6,22,-37,-52,8,0,-27,0.458008,-0.158203,0.792969,2.25,19.75,4.25,-0.228048,-0.615851,-0.0376721
3296,-22,1,-8,-128,-122,-35,-45,-1,0.458008,-0.158203,0.792969,2.25,19.75,4.25,-0.228048,-0.615851,-0.0376721
3309,7,-24,-82,-77,-65,-30,6,0,0.458008,-0.158203,0.792969,2.25,19.75,4.25,-0.228048,-0.615851,-0.0376721
3309,28,7,34,60,83,29,35,13,0.458008,-0.158203,0.792969,2.25,19.75,4.25,-0.228048,-0.615851,-0.0376721
3316,-16,-15,-12,-17,-35,-20,-19,11,0.558105,-0.229004,0.787109,5.25,20.25,6.1875,-0.227991,-0.608317,-0.0361836
3316,1,8,18,-36,10,13,-15,-34,0.558105,-0.229004,0.787109,5.25,20.25,6.1875,-0.227991,-0.608317,-0.0361836
3332,3,10,55,127,95,32,12,-20,0.558105,-0.229004,0.787109,5.25,20.25,6.1875,-0.227991,-0.608317,-0.0361836
3332,-8,7,-20,-90,-66,-12,15,36,0.558105,-0.229004,0.787109,5.25,20.25,6.1875,-0.227991,-0.608317,-0.0361836
3334,-20,-6,-28,-89,-40,-22,-25,12,0.488281,-0.213867,0.786621,-2.5,21.75,4.75,-0.229581,-0.599108,-0.035925
3334,0,-3,34,82,127,28,-12,-1,0.488281,-0.213867,0.786621,-2.5,21.75,4.75,-0.229581,-0.599108,-0.035925
3356,29,-1,85,55,13,-7,24,28,0.488281,-0.213867,0.786621,-2.5,21.75,4.75,-0.229581,-0.599108,-0.035925
3356,21,8,-67,-76,6,-4,-16,20,0.488281,-0.213867,0.786621,-2.5,21.75,4.75,-0.229581,-0.599108,-0.035925
3357,65,7,-33,36,-58,14,-15,-15,0.492676,-0.269531,0.789062,-1.5625,20.5,3.125,-0.232101,-0.59057,-0.0352099
3357,-94,-19,-1,-61,-43,-25,-25,12,0.492676,-0.269531,0.789062,-1.5625,20.5,3.125,-0.232101,-0.59057,-0.0352099
3370,-12,-10,-85,-75,-54,-7,-7,-32,0.492676,-0.269531,0.789062,-1.5625,20.5,3.125,-0.232101,-0.59057,-0.0352099
3370,36,6,55,-84,-21,-16,19,-1,0.492676,-0.269531,0.789062,-1.5625,20.5,3.125,-0.232101,-0.59057,-0.0352099
3376,-2,-10,-8,51,90,34,-75,-1,0.536133,-0.236328,0.748535,3.5625,19.9375,4.875,-0.232653,-0.583813,-0.0342572
3376,-36,13,25,112,63,-6,19,-8,0.536133,-0.236328,0.748535,3.5625,19.9375,4.875,-0.232653,-0.583813,-0.0342572
3394,48,10,31,3,-52,8,-6,36,0.536133,-0.236328,0.748535,3.5625,19.9375,4.875,-0.232653,-0.583813,-0.0342572
3394,-21,-6,47,-43,-28,-28,-10,-5,0.536133,-0.236328,0.748535,3.5625,19.9375,4.875,-0.232653,-0.583813,-0.0342572
3395,15,-8,-69,-128,-56,-36,39,-15,0.478027,-0.185547,0.746582,-2.125,20.625,5.125,-0.233614,-0.575847,-0.0339539
3395,-52,-27,-60,111,105,57,-16,-29,0.478027,-0.185547,0.746582,-2.125,20.625,5.125,-0.233614,-0.575847,-0.0339539
3415,31,28,104,35,-49,-6,6,45,0.478027,-0.185547,0.746582,-2.125,20.625,5.125,-0.233614,-0.575847,-0.0339539
3415,-41,-18,-84,-101,-69,-30,-40,-19,0.478027,-0.185547,0.746582,-2.125,20.625,5.125,-0.233614,-0.575847,-0.0339539
3416,27,5,26,111,103,1,32,-2,0.453125,-0.212402,0.764648,-4.625,22.75,6.875,-0.236316,-0.566539,-0.0329473
3416,26,5,20,31,-80,-19,-4,2,0.453125,-0.212402,0.764648,-4.625,22.75,6.875,-0.236316,-0.566539,-0.0329473
3429,46,7,-41,-21,-13,-4,26,22,0.453125,-0.212402,0.764648,-4.625,22.75,6.875,-0.236316,-0.566539,-0.0329473
3429,-77,-11,36,25,21,31,19,-44,0.453125,-0.212402,0.764648,-4.625,22.75,6.875,-0.236316,-0.566539,-0.0329473
3437,-3,-2,15,-31,-19,-21,20,27,0.434082,-0.246582,0.792969,-5.0625,19.375,9,-0.240424,-0.557469,-0.0305006
3437,16,-12,-47,-117,-50,-25,25,-23,0.434082,-0.246582,0.792969,-5.0625,19.375,9,-0.240424,-0.557469,-0.0305006
3453,10,-12,-23,67,7,25,-91,-40,0.434082,-0.246582,0.792969,-5.0625,19.375,9,-0.240424,-0.557469,-0.0305006
3453,25,4,24,60,9,-26,-3,23,0.434082,-0.246582,0.792969,-5.0625,19.375,9,-0.240424,-0.557469,-0.0305006
3454,-4,5,35,-84,-56,-10,13,15,0.483887,-0.240723,0.81543,-7.4375,17.9375,8.3125,-0.244854,-0.549898,-0.0283591
3454,-31,7,-40,9,59,32,10,-23,0.483887,-0.240723,0.81543,-7.4375,17.9375,8.3125,-0.244854,-0.549898,-0.0283591
3476,29,-20,-31,-98,12,-17,31,15,0.483887,-0.240723,0.81543,-7.4375,17.9375,8.3125,-0.244854,-0.549898,-0.0283591
3476,-62,-14,-16,125,95,9,-55,-6,0.483887,-0.240723,0.81543,-7.4375,17.9375,8.3125,-0.244854,-0.549898,-0.0283591
3477,-25,25,88,72,-19,1,-2,-36,0.447266,-0.200195,0.818848,-9.6875,17.8125,8.1875,-0.248742,-0.541871,-0.0270873
3477,58,-20,-82,-125,-119,-28,-42,52,0.447266,-0.200195,0.818848,-9.6875,17.8125,8.1875,-0.248742,-0.541871,-0.0270873
3489,-4,13,17,78,54,6,-9,-11,0.447266,-0.200195,0.818848,-9.6875,17.8125,8.1875,-0.248742,-0.541871,-0.0270873
3489,-68,-25,-85,117,84,41,26,-34,0.447266,-0.200195,0.818848,-9.6875,17.8125,8.1875,-0.248742,-0.541871,-0.0270873
3498,33,18,24,24,13,1,16,6,0.438965,-0.212402,0.80127,-4.8125,15.375,9.375,-0.251752,-0.534693,-0.0248351
3498,-13,-6,18,-80,-79,-13,5,9,0.438965,-0.212402,0.80127,-4.8125,15.375,9.375,-0.251752,-0.534693,-0.0248351
3513,7,-4,18,-48,28,-10,-16,11,0.438965,-0.212402,0.80127,-4.8125,15.375,9.375,-0.251752,-0.534693,-0.0248351
3513,14,5,18,-128,-128,-63,-47,-23,0.438965,-0.212402,0.80127,-4.8125,15.375,9.375,-0.251752,-0.534693,-0.0248351
3515,-33,-4,2,110,114,61,29,-17,0.478516,-0.237793,0.799805,-1.4375,15.0625,10.9375,-0.254415,-0.528536,-0.021565
3515,31,26,98,127,127,111,33,22,0.478516,-0.237793,0.799805,-1.4375,15.0625,10.9375,-0.254415,-0.528536,-0.021565
3537,5,3,21,-99,-108,-31,14,-13,0.478516,-0.237793,0.799805,-1.4375,15.0625,10.9375,-0.254415,-0.528536,-0.021565
3537,17,-3,-50,-107,-113,-13,21,14,0.478516,-0.237793,0.799805,-1.4375,15.0625,10.9375,-0.254415,-0.528536,-0.021565
3538,48,-3,-14,-47,-46,-12,6,23,0.464355,-0.23877,0.782227,-8.3125,13.5,7,-0.258832,-0.523131,-0.0197814
3538,-93,-22,-59,-32,-16,-49,-67,-46,0.464355,-0.23877,0.782227,-8.3125,13.5,7,-0.258832,-0.523131,-0.0197814
3549,-21,-2,4,102,78,19,63,6,0.464355,-0.23877,0.782227,-8.3125,13.5,7,-0.258832,-0.523131,-0.0197814
3549,73,15,44,82,100,60,11,38,0.464355,-0.23877,0.782227,-8.3125,13.5,7,-0.258832,-0.523131,-0.0197814
3558,-18,14,10,-128,-122,-27,-25,-50,0.462402,-0.269531,0.785645,-4,14.5,7.3125,-0.262576,-0.517409,-0.0176159
3558,-23,-10,21,92,102,0,-4,-17,0.462402,-0.269531,0.785645,-4,14.5,7.3125,-0.262576,-0.517409,-0.0176159
3573,-4,17,5,34,18,8,-1,16,0.462402,-0.269531,0.785645,-4,14.5,7.3125,-0.262576,-0.517409,-0.0176159
3573,45,-4,-31,-116,-125,-55,0,16,0.462402,-0.269531,0.785645,-4,14.5,7.3125,-0.262576,-0.517409,-0.0176159
3574,-40,-21,-9,-62,-42,8,-4,-27,0.42334,-0.256836,0.793457,0,15.75,8.875,-0.264516,-0.510335,-0.0153647
3574,65,3,41,-1,52,-9,17,20,0.42334,-0.256836,0.793457,0,15.75,8.875,-0.264516,-0.510335,-0.0153647
3595,-74,2,5,43,83,22,-57,-52,0.42334,-0.256836,0.793457,0,15.75,8.875,-0.264516,-0.510335,-0.0153647
3595,27,5,71,-9,0,8,-7,13,0.42334,-0.256836,0.793457,0,15.75,8.875,-0.264516,-0.510335,-0.0153647
3597,-3,0,8,-42,-67,38,2,32,0.390625,-0.28418,0.827148,-2.1875,17.375,5.125,-0.266951,-0.502155,-0.0144095
3597,16,6,2,-64,-84,-45,-23,-27,0.390625,-0.28418,0.827148,-2.1875,17.375,5.125,-0.266951,-0.502155,-0.0144095
3609,-3,-28,-77,-24,-32,-3,-5,20,0.390625,-0.28418,0.827148,-2.1875,17.375,5.125,-0.266951,-0.502155,-0.0144095
3609,-43,22,101,112,107,18,-3,-20,0.390625,-0.28418,0.827148,-2.1875,17.375,5.125,-0.266951,-0.502155,-0.0144095
3616,-32,-20,-34,-110,-63,-46,-14,-23,0.460449,-0.29248,0.816406,4,17,7.75,-0.267926,-0.495568,-0.0123692
3616,0,-21,-39,14,-51,-3,7,-19,0.460449,-0.29248,0.816406,4,17,7.75,-0.267926,-0.495568,-0.0123692
3633,67,6,-7,34,26,18,19,39,0.460449,-0.29248,0.816406,4,17,7.75,-0.267926,-0.495568,-0.0123692
3633,4,12,61,35,-23,2,21,17,0.460449,-0.29248,0.816406,4,17,7.75,-0.267926,-0.495568,-0.0123692
3634,-51,-25,-36,21,35,-18,-31,-17,0.410156,-0.248047,0.818359,8.875,16,13.5625,-0.267146,-0.487895,-0.00850338
3634,8,16,-4,-32,-47,13,24,12,0.410156,-0.248047,0.818359,8.875,16,13.5625,-0.267146,-0.487895,-0.00850338
3654,-7,-15,-23,-89,1,-55,-47,-43,0.410156,-0.248047,0.818359,8.875,16,13.5625,-0.267146,-0.487895,-0.00850338
3654,45,-10,-41,34,63,27,-19,15,0.410156,-0.248047,0.818359,8.875,16,13.5625,-0.267146,-0.487895,-0.00850338
3656,-21,6,24,55,-30,37,-5,14,0.371582,-0.208008,0.835449,3.6875,19.4375,9.25,-0.265921,-0.478786,-0.00722102
3656,2,3,21,127,127,36,26,24,0.371582,-0.208008,0.835449,3.6875,19.4375,9.25,-0.265921,-0.478786,-0.00722102
3668,6,29,79,-104,-72,-19,-1,-3,0.371582,-0.208008,0.835449,3.6875,19.4375,9.25,-0.265921,-0.478786,-0.00722102
3668,-28,-6,-40,-73,-50,-12,6,-21,0.371582,-0.208008,0.835449,3.6875,19.4375,9.25,-0.265921,-0.478786,-0.00722102
3677,3,-11,-32,80,74,-7,-9,9,0.410156,-0.246094,0.868652,-2.625,18.75,5.25,-0.267126,-0.470964,-0.00708823
3677,31,7,22,-1,-9,15,0,21,0.410156,-0.246094,0.868652,-2.625,18.75,5.25,-0.267126,-0.470964,-0.00708823
3693,-45,1,21,21,-7,11,7,-7,0.410156,-0.246094,0.868652,-2.625,18.75,5.25,-0.267126,-0.470964,-0.00708823
3693,14,-19,-81,-97,-80,-6,6,9,0.410156,-0.246094,0.868652,-2.625,18.75,5.25,-0.267126,-0.470964,-0.00708823
3694,-28,0,20,-19,-5,-33,-28,-32,0.438477,-0.244629,0.84375,3.8125,15.125,8,-0.266817,-0.46505,-0.00554657
3694,15,6,-33,42,41,2,42,27,0.438477,-0.244629,0.84375,3.8125,15.125,8,-0.266817,-0.46505,-0.00554657
3715,15,-2,4,-43,-70,-5,1,13,0.438477,-0.244629,0.84375,3.8125,15.125,8,-0.266817,-0.46505,-0.00554657
3715,29,15,41,110,117,29,-27,10,0.438477,-0.244629,0.84375,3.8125,15.125,8,-0.266817,-0.46505,-0.00554657
3717,-39,-10,-36,78,31,-7,20,-38,0.401855,-0.213379,0.829102,6.875,15.6875,9.1875,-0.264905,-0.458419,-0.00371727
3717,-9,1,64,-97,-82,-22,-12,-10,0.401855,-0.213379,0.829102,6.875,15.6875,9.1875,-0.264905,-0.458419,-0.00371727
3728,1,-19,-88,-27,3,1,-17,-4,0.401855,-0.213379,0.829102,6.875,15.6875,9.1875,-0.264905,-0.458419,-0.00371727
3728,28,7,4,-82,-95,-30,61,15,0.401855,-0.213379,0.829102,6.875,15.6875,9.1875,-0.264905,-0.458419,-0.00371727
3737,-37,-6,-5,-16,56,-2,-37,-6,0.40332,-0.228516,0.821289,0.8125,14.125,3.5625,-0.264727,-0.453122,-0.00383087
3737,30,12,58,103,25,7,2,2,0.40332,-0.228516,0.821289,0.8125,14.125,3.5625,-0.264727,-0.453122,-0.00383087
3753,13,-5,66,54,23,34,28,1,0.40332,-0.228516,0.821289,0.8125,14.125,3.5625,-0.264727,-0.453122,-0.00383087
3753,-46,4,-23,-26,28,-1,-27,-21,0.40332,-0.228516,0.821289,0.8125,14.125,3.5625,-0.264727,-0.453122,-0.00383087
3754,66,13,-8,2,-4,-27,-5,51,0.469238,-0.286133,0.806152,-4.125,12.125,4.6875,-0.268109,-0.449901,-0.0024787
3754,-54,-16,-50,-128,-126,20,-58,-37,0.469238,-0.286133,0.806152,-4.125,12.125,4.6875,-0.268109,-0.449901,-0.0024787
3775,48,15,23,21,-17,-26,44,35,0.469238,-0.286133,0.806152,-4.125,12.125,4.6875,-0.268109,-0.449901,-0.0024787
3775,-55,-14,19,107,90,5,-34,-31,0.469238,-0.286133,0.806152,-4.125,12.125,4.6875,-0.268109,-0.449901,-0.0024787
3777,15,-6,-31,11,-24,9,13,9,0.432617,-0.316406,0.820312,-1.75,11.9375,7.875,-0.271719,-0.445468,0.000150728
3777,3,0,-24,-108,-70,-29,-45,0,0.432617,-0.316406,0.820312,-1.75,11.9375,7.875,-0.271719,-0.445468,0.000150728
3789,4,-1,16,112,67,17,36,7,0.432617,-0.316406,0.820312,-1.75,11.9375,7.875,-0.271719,-0.445468,0.000150728
3789,-3,-1,-37,-47,-13,-3,-3,1,0.432617,-0.316406,0.820312,-1.75,11.9375,7.875,-0.271719,-0.445468,0.000150728
3798,0,-2,19,-55,-46,-4,37,6,0.35498,-0.245605,0.813965,3.625,9.75,6.8125,-0.271596,-0.440431,0.00195479
3798,27,2,-19,-25,6,-13,-21,-9,0.35498,-0.245605,0.813965,3.625,9.75,6.8125,-0.271596,-0.440431,0.00195479
3812,-62,-25,-33,-45,-32,7,-1,-18,0.35498,-0.245605,0.813965,3.625,9.75,6.8125,-0.271596,-0.440431,0.00195479
3812,45,1,-32,4,83,-32,-7,10,0.35498,-0.245605,0.813965,3.625,9.75,6.8125,-0.271596,-0.440431,0.00195479
3814,-19,15,82,113,-8,21,22,11,0.335938,-0.212891,0.84082,1.5625,7.4375,5.5625,-0.271061,-0.435991,0.0029917
3814,43,13,0,97,127,44,28,23,0.335938,-0.212891,0.84082,1.5625,7.4375,5.5625,-0.271061,-0.435991,0.0029917
3836,-42,-1,-8,-113,-114,-51,-13,-13,0.335938,-0.212891,0.84082,1.5625,7.4375,5.5625,-0.271061,-0.435991,0.0029917
3836,-87,-17,-19,-24,3,3,-70,-45,0.335938,-0.212891,0.84082,1.5625,7.4375,5.5625,-0.271061,-0.435991,0.0029917
3838,15,-9,-47,47,99,-20,-9,20,0.437988,-0.272949,0.860352,-3.0625,7.875,3.5625,-0.273184,-0.433397,0.00386648
3838,28,9,49,-60,-63,10,28,31,0.437988,-0.272949,0.860352,-3.0625,7.875,3.5625,-0.273184,-0.433397,0.00386648
3849,-12,0,11,25,20,15,-3,-27,0.437988,-0.272949,0.860352,-3.0625,7.875,3.5625,-0.273184,-0.433397,0.00386648
3849,31,14,69,48,-38,-6,9,10,0.437988,-0.272949,0.860352,-3.0625,7.875,3.5625,-0.273184,-0.433397,0.00386648
3857,20,-9,-82,-128,-103,-19,-2,9,0.448242,-0.278809,0.84668,-3.1875,4.8125,7.0625,-0.276203,-0.431882,0.00633814
3857,-52,-17,-10,86,0,14,16,-35,0.448242,-0.278809,0.84668,-3.1875,4.8125,7.0625,-0.276203,-0.431882,0.00633814
3872,33,18,69,63,96,3,-15,5,0.448242,-0.278809,0.84668,-3.1875,4.8125,7.0625,-0.276203,-0.431882,0.00633814
3872,-5,-8,-46,-30,-52,3,38,20,0.448242,-0.278809,0.84668,-3.1875,4.8125,7.0625,-0.276203,-0.431882,0.00633814
3874,5,11,78,10,30,10,-9,-25,0.355957,-0.256348,0.844727,-0.6875,1.8125,7.8125,-0.277903,-0.429505,0.00927759
3874,5,-12,-47,15,30,-4,23,3,0.355957,-0.256348,0.844727,-0.6875,1.8125,7.8125,-0.277903,-0.429505,0.00927759
3895,-25,-18,-45,-105,-128,-39,-58,18,0.355957,-0.256348,0.844727,-0.6875,1.8125,7.8125,-0.277903,-0.429505,0.00927759
3895,-12,-15,-50,-49,-42,-12,5,-34,0.355957,-0.256348,0.844727,-0.6875,1.8125,7.8125,-0.277903,-0.429505,0.00927759
3897,8,10,40,120,124,56,16,15,0.348633,-0.197266,0.817383,3.5,1.75,3.25,-0.276215,-0.427732,0.0099217
3897,38,2,17,2,-7,-3,6,25,0.348633,-0.197266,0.817383,3.5,1.75,3.25,-0.276215,-0.427732,0.0099217
3909,-71,-24,-51,-51,-26,-67,-27,-43,0.348633,-0.197266,0.817383,3.5,1.75,3.25,-0.276215,-0.427732,0.0099217
3909,14,9,9,70,31,70,-16,11,0.348633,-0.197266,0.817383,3.5,1.75,3.25,-0.276215,-0.427732,0.0099217
3918,-22,-5,-19,0,-5,-30,-16,-9,0.379395,-0.23291,0.85791,-1.8125,0.875,0.125,-0.276523,-0.426879,0.00974411
3918,-7,6,47,8,-21,-46,22,-7,0.379395,-0.23291,0.85791,-1.8125,0.875,0.125,-0.276523,-0.426879,0.00974411
3933,20,19,-8,72,127,72,17,-2,0.379395,-0.23291,0.85791,-1.8125,0.875,0.125,-0.276523,-0.426879,0.00974411
3933,15,-11,38,30,-81,9,7,2,0.379395,-0.23291,0.85791,-1.8125,0.875,0.125,-0.276523,-0.426879,0.00974411
3934,-6,-8,-50,-122,-28,-12,-35,-13,0.414551,-0.312012,0.845703,-6.5,-2.6875,1.1875,-0.280912,-0.427798,0.0112065
3934,17,1,13,33,5,-31,26,14,0.414551,-0.312012,0.845703,-6.5,-2.6875,1.1875,-0.280912,-0.427798,0.0112065
3955,-34,-7,-33,-5,21,27,-18,5,0.414551,-0.312012,0.845703,-6.5,-2.6875,1.1875,-0.280912,-0.427798,0.0112065
3955,-1,7,5,-29,-9,-15,11,0,0.414551,-0.312012,0.845703,-6.5,-2.6875,1.1875,-0.280912,-0.427798,0.0112065
3957,68,9,28,-8,-43,-6,11,8,0.412109,-0.303711,0.836914,4.4375,-1.875,7.125,-0.282057,-0.427825,0.0147436
3957,-91,-23,16,-69,-88,-28,-73,-60,0.412109,-0.303711,0.836914,4.4375,-1.875,7.125,-0.282057,-0.427825,0.0147436
3970,7,-15,-86,-42,-10,-6,13,-7,0.412109,-0.303711,0.836914,4.4375,-1.875,7.125,-0.282057,-0.427825,0.0147436
3970,31,-11,-59,-3,22,11,4,14,0.412109,-0.303711,0.836914,4.4375,-1.875,7.125,-0.282057,-0.427825,0.0147436
3984,11,33,95,116,103,35,24,11,0.359375,-0.240234,0.831055,9.4375,0.0625,7.625,-0.27995,-0.426276,0.0174626
3984,11,20,-7,-24,-3,9,9,15,0.359375,-0.240234,0.831055,9.4375,0.0625,7.625,-0.27995,-0.426276,0.0174626
3993,13,-12,-79,-67,-96,-7,-3,-3,0.359375,-0.240234,0.831055,9.4375,0.0625,7.625,-0.27995,-0.426276,0.0174626
3993,-33,-2,60,30,47,-15,5,-10,0.359375,-0.240234,0.831055,9.4375,0.0625,7.625,-0.27995,-0.426276,0.0174626
3994,21,-7,-22,-12,2,-34,5,6,0.350586,-0.212891,0.838379,-2.5,-1.5,3.4375,-0.280681,-0.425605,0.018666
3994,-15,-2,4,-9,14,59,11,4,0.350586,-0.212891,0.838379,-2.5,-1.5,3.4375,-0.280681,-0.425605,0.018666
4015,16,7,39,27,-14,27,22,13,0.350586,-0.212891,0.838379,-2.5,-1.5,3.4375,-0.280681,-0.425605,0.018666
4015,-19,-6,-34,-54,-28,-106,-63,-9,0.350586,-0.212891,0.838379,-2.5,-1.5,3.4375,-0.280681,-0.425605,0.018666
4017,-21,-10,-24,-36,38,81,-17,-18,0.487305,-0.295898,0.848633,-4.5625,1.0625,2.875,-0.283825,-0.426731,0.0201416
4017,-27,15,40,127,74,3,35,17,0.487305,-0.295898,0.848633,-4.5625,1.0625,2.875,-0.283825,-0.426731,0.0201416
4038,10,10,38,-72,-82,-35,-26,-8,0.487305,-0.295898,0.848633,-4.5625,1.0625,2.875,-0.283825,-0.426731,0.0201416
4038,32,-1,-9,-13,-17,32,18,8,0.487305,-0.295898,0.848633,-4.5625,1.0625,2.875,-0.283825,-0.426731,0.0201416
4039,-32,-9,11,5,17,-8,-4,-13,0.43457,-0.29541,0.858398,-5.4375,-0.125,5.75,-0.287653,-0.426559,0.0227218
4039,22,-1,-23,16,24,4,-2,12,0.43457,-0.29541,0.858398,-5.4375,-0.125,5.75,-0.287653,-0.426559,0.0227218
4053,-8,4,55,-54,-84,-7,61,-27,0.43457,-0.29541,0.858398,-5.4375,-0.125,5.75,-0.287653,-0.426559,0.0227218
4053,-8,-9,-36,4,84,-17,-41,21,0.43457,-0.29541,0.858398,-5.4375,-0.125,5.75,-0.287653,-0.426559,0.0227218
4054,-16,-13,-19,-30,-58,-6,15,-21,0.402832,-0.234863,0.837891,0.6875,0,4.125,-0.2877,-0.42638,0.024088
4054,31,12,47,88,116,50,12,29,0.402832,-0.234863,0.837891,0.6875,0,4.125,-0.2877,-0.42638,0.024088
4075,41,32,96,2,-25,-22,13,17,0.402832,-0.234863,0.837891,0.6875,0,4.125,-0.2877,-0.42638,0.024088
4075,1,-5,-58,-73,-53,15,45,-7,0.402832,-0.234863,0.837891,0.6875,0,4.125,-0.2877,-0.42638,0.024088
4077,0,-10,-18,5,-87,-47,-55,-3,0.388672,-0.251465,0.844727,-4.4375,-1.8125,3.75,-0.289946,-0.426323,0.0257032
4077,-27,-15,-86,-66,38,10,0,1,0.388672,-0.251465,0.844727,-4.4375,-1.8125,3.75,-0.289946,-0.426323,0.0257032
4089,14,4,68,127,127,20,-12,18,0.388672,-0.251465,0.844727,-4.4375,-1.8125,3.75,-0.289946,-0.426323,0.0257032
4089,-15,8,16,30,-27,2,23,-18,0.388672,-0.251465,0.844727,-4.4375,-1.8125,3.75,-0.289946,-0.426323,0.0257032
4098,31,-4,-50,-79,-64,-75,-2,17,0.394043,-0.273926,0.852051,-7.625,-2,-0.5625,-0.293019,-0.426751,0.0258052
4098,-10,-14,-17,-44,34,47,6,-23,0.394043,-0.273926,0.852051,-7.625,-2,-0.5625,-0.293019,-0.426751,0.0258052
4112,21,-4,-42,27,-2,-34,-54,19,0.394043,-0.273926,0.852051,-7.625,-2,-0.5625,-0.293019,-0.426751,0.0258052
4112,-51,17,51,12,50,23,-15,-1,0.394043,-0.273926,0.852051,-7.625,-2,-0.5625,-0.293019,-0.426751,0.0258052
4114,11,12,21,90,56,7,36,10,0.381836,-0.299316,0.868164,-4.125,-1.875,1.5,-0.295638,-0.426359,0.0269574
4114,19,3,35,-21,-99,-72,-47,-11,0.381836,-0.299316,0.868164,-4.125,-1.875,1.5,-0.295638,-0.426359,0.0269574
4135,-38,-26,-104,-72,-41,27,14,-7,0.381836,-0.299316,0.868164,-4.125,-1.875,1.5,-0.295638,-0.426359,0.0269574
4135,41,-10,-9,11,-29,1,25,16,0.381836,-0.299316,0.868164,-4.125,-1.875,1.5,-0.295638,-0.426359,0.0269574
4136,-7,-1,5,-40,23,8,-13,-8,0.330566,-0.26709,0.861328,1,-3.25,4.8125,-0.296211,-0.4253,0.029188
4136,-15,-16,-49,-85,-77,-11,-2,0,0.330566,-0.26709,0.861328,1,-3.25,4.8125,-0.296211,-0.4253,0.029188
4148,21,-1,17,112,104,-15,8,28,0.330566,-0.26709,0.861328,1,-3.25,4.8125,-0.296211,-0.4253,0.029188
4148,-7,16,37,36,-27,12,-2,-14,0.330566,-0.26709,0.861328,1,-3.25,4.8125,-0.296211,-0.4253,0.029188
4157,-3,1,-9,-26,49,46,31,-6,0.330078,-0.25293,0.858398,7.125,-2.0625,7.4375,-0.294713,-0.423472,0.0319933
4157,7,12,17,35,-8,-17,-33,-1,0.330078,-0.25293,0.858398,7.125,-2.0625,7.4375,-0.294713,-0.423472,0.0319933
4172,17,-12,-67,-67,-29,-17,10,-9,0.330078,-0.25293,0.858398,7.125,-2.0625,7.4375,-0.294713,-0.423472,0.0319933
4172,9,2,-26,-63,-86,-16,-13,4,0.330078,-0.25293,0.858398,7.125,-2.0625,7.4375,-0.294713,-0.423472,0.0319933
4174,4,-3,38,60,55,43,9,-1,0.36377,-0.24707,0.847168,5.1875,-1.1875,3.25,-0.293347,-0.42288,0.033371
4174,-26,5,38,-10,-22,-39,-1,1,0.36377,-0.24707,0.847168,5.1875,-1.1875,3.25,-0.293347,-0.42288,0.033371
4194,5,21,20,-35,4,2,-10,-10,0.36377,-0.24707,0.847168,5.1875,-1.1875,3.25,-0.293347,-0.42288,0.033371
4194,11,-15,-65,-14,35,8,-2,10,0.36377,-0.24707,0.847168,5.1875,-1.1875,3.25,-0.293347,-0.42288,0.033371
4196,-12,-10,11,74,25,15,25,-7,0.424805,-0.258301,0.846191,3.5625,1.75,1.4375,-0.292272,-0.422668,0.0337425
4196,9,12,22,49,34,-27,-1,-5,0.424805,-0.258301,0.846191,3.5625,1.75,1.4375,-0.292272,-0.422668,0.0337425
4217,-13,8,64,89,110,57,25,-8,0.424805,-0.258301,0.846191,3.5625,1.75,1.4375,-0.292272,-0.422668,0.0337425
4217,47,0,0,44,21,19,25,18,0.424805,-0.258301,0.846191,3.5625,1.75,1.4375,-0.292272,-0.422668,0.0337425
4219,-41,-11,-20,-128,-128,-76,-34,-3,0.402344,-0.28125,0.843262,-5.0625,0.375,1.25,-0.29481,-0.422499,0.0343884
4219,-9,-21,-101,-4,84,16,-23,-28,0.402344,-0.28125,0.843262,-5.0625,0.375,1.25,-0.29481,-0.422499,0.0343884
4232,-5,0,1,96,61,15,14,3,0.402344,-0.28125,0.843262,-5.0625,0.375,1.25,-0.29481,-0.422499,0.0343884
4232,28,5,77,-60,-69,-42,31,18,0.402344,-0.28125,0.843262,-5.0625,0.375,1.25,-0.29481,-0.422499,0.0343884
4234,-3,-1,-18,-55,19,27,-4,-2,0.436523,-0.262695,0.836426,0.1875,1.5,3.5,-0.29544,-0.422586,0.0355502
4234,-48,-10,-29,5,-8,0,-43,-16,0.436523,-0.262695,0.836426,0.1875,1.5,3.5,-0.29544,-0.422586,0.0355502
4255,31,12,36,-29,-31,-9,2,10,0.436523,-0.262695,0.836426,0.1875,1.5,3.5,-0.29544,-0.422586,0.0355502
4255,-19,-17,-28,79,65,14,-5,-17,0.436523,-0.262695,0.836426,0.1875,1.5,3.5,-0.29544,-0.422586,0.0355502
4256,30,-2,-21,50,34,51,-20,20,0.381836,-0.250977,0.868164,2.1875,0.375,6.875,-0.295267,-0.421232,0.0379528
4256,13,11,32,-64,-47,-5,59,-2,0.381836,-0.250977,0.868164,2.1875,0.375,6.875,-0.295267,-0.421232,0.0379528
4277,-9,3,29,-68,-58,6,-30,-3,0.381836,-0.250977,0.868164,2.1875,0.375,6.875,-0.295267,-0.421232,0.0379528
4277,2,4,-12,85,49,3,-24,-3,0.381836,-0.250977,0.868164,2.1875,0.375,6.875,-0.295267,-0.421232,0.0379528
4279,8,-1,20,29,4,-19,-3,-7,0.397461,-0.246094,0.873535,-0.6875,0.125,0.8125,-0.295117,-0.421101,0.037904
4279,22,-13,-38,37,8,2,7,3,0.397461,-0.246094,0.873535,-0.6875,0.125,0.8125,-0.295117,-0.421101,0.037904
4292,-9,-1,-22,-64,-40,10,-11,-9,0.397461,-0.246094,0.873535,-0.6875,0.125,0.8125,-0.295117,-0.421101,0.037904
4292,-14,17,21,-68,2,-20,-5,-8,0.397461,-0.246094,0.873535,-0.6875,0.125,0.8125,-0.295117,-0.421101,0.037904
4299,5,4,-31,-3,0,3,18,-1,0.378418,-0.23877,0.839355,0.8125,-1.6875,1.3125,-0.294715,-0.421279,0.0383505
4299,30,3,81,-60,-78,-14,18,11,0.378418,-0.23877,0.839355,0.8125,-1.6875,1.3125,-0.294715,-0.421279,0.0383505
4315,-48,-17,-68,-21,-32,3,-28,-11,0.378418,-0.23877,0.839355,0.8125,-1.6875,1.3125,-0.294715,-0.421279,0.0383505
4315,-31,1,13,-11,-2,14,7,3,0.378418,-0.23877,0.839355,0.8125,-1.6875,1.3125,-0.294715,-0.421279,0.0383505
4317,2,10,45,85,79,-23,28,2,0.415039,-0.264648,0.844238,1.6875,-0.5,5.9375,-0.295228,-0.421201,0.0407183
4317,12,2,0,53,51,48,-27,-4,0.415039,-0.264648,0.844238,1.6875,-0.5,5.9375,-0.295228,-0.421201,0.0407183
4345,17,-5,2,-35,-42,-37,-28,12,0.415039,-0.264648,0.844238,1.6875,-0.5,5.9375,-0.295228,-0.421201,0.0407183
4345,22,0,-5,0,15,17,50,-14,0.415039,-0.264648,0.844238,1.6875,-0.5,5.9375,-0.295228,-0.421201,0.0407183
4347,-61,-11,-14,-28,-9,-5,-21,4,0.393066,-0.302734,0.861328,0.0625,1.5625,4.5,-0.296848,-0.419946,0.0426369
4347,4,13,19,23,72,-40,-16,-12,0.393066,-0.302734,0.861328,0.0625,1.5625,4.5,-0.296848,-0.419946,0.0426369
4352,-9,-10,0,20,14,-16,-6,4,0.393066,-0.302734,0.861328,0.0625,1.5625,4.5,-0.296848,-0.419946,0.0426369
4352,-27,-11,-36,-30,-19,17,-14,-5,0.393066,-0.302734,0.861328,0.0625,1.5625,4.5,-0.296848,-0.419946,0.0426369
4354,31,10,30,47,40,-1,20,11,0.367676,-0.266113,0.82666,4.4375,3.0625,0,-0.295428,-0.418427,0.0423597
4354,14,5,39,-48,-21,4,14,8,0.367676,-0.266113,0.82666,4.4375,3.0625,0,-0.295428,-0.418427,0.0423597
4375,-18,-17,-62,-20,-9,8,-6,-2,0.367676,-0.266113,0.82666,4.4375,3.0625,0,-0.295428,-0.418427,0.0423597
4375,19,25,112,72,63,8,23,-8,0.367676,-0.266113,0.82666,4.4375,3.0625,0,-0.295428,-0.418427,0.0423597
4377,3,1,-47,-15,-39,-21,-26,-14,0.351074,-0.244141,0.826172,1.6875,-1.375,2.0625,-0.295094,-0.41794,0.0432155
4377,-13,-31,-72,-66,-66,-33,7,20,0.351074,-0.244141,0.826172,1.6875,-1.375,2.0625,-0.295094,-0.41794,0.0432155
4398,8,6,16,-1,82,14,0,-30,0.351074,-0.244141,0.826172,1.6875,-1.375,2.0625,-0.295094,-0.41794,0.0432155
4398,16,-3,-5,-16,22,11,-9,17,0.351074,-0.244141,0.826172,1.6875,-1.375,2.0625,-0.295094,-0.41794,0.0432155
4399,-17,3,13,7,-14,-3,-42,-11,0.41748,-0.263184,0.840332,1.25,0.1875,4.6875,-0.295467,-0.418059,0.0449578
4399,10,22,26,54,12,53,6,-2,0.41748,-0.263184,0.840332,1.25,0.1875,4.6875,-0.295467,-0.418059,0.0449578
4412,-3,-9,-13,-26,-41,-41,21,10,0.41748,-0.263184,0.840332,1.25,0.1875,4.6875,-0.295467,-0.418059,0.0449578
4412,9,-21,-73,-128,-110,-99,-3,6,0.41748,-0.263184,0.840332,1.25,0.1875,4.6875,-0.295467,-0.418059,0.0449578
4418,1,19,93,127,127,102,-22,-19,0.329102,-0.271484,0.841797,-1.25,3,1.9375,-0.296472,-0.415482,0.0455265
4418,-10,-11,-1,29,-26,-5,18,-6,0.329102,-0.271484,0.841797,-1.25,3,1.9375,-0.296472,-0.415482,0.0455265
4434,-9,5,11,88,106,21,2,-10,0.329102,-0.271484,0.841797,-1.25,3,1.9375,-0.296472,-0.415482,0.0455265
4434,-9,3,-4,49,5,3,-8,-8,0.329102,-0.271484,0.841797,-1.25,3,1.9375,-0.296472,-0.415482,0.0455265
4436,8,-19,-123,-128,-118,-39,18,12,0.367188,-0.267578,0.852539,-0.25,2.875,-1.375,-0.296356,-0.414063,0.0447825
4436,1,29,80,-11,-41,-13,2,-11,0.367188,-0.267578,0.852539,-0.25,2.875,-1.375,-0.296356,-0.414063,0.0447825
4457,-16,-13,-71,-37,-35,8,-14,5,0.367188,-0.267578,0.852539,-0.25,2.875,-1.375,-0.296356,-0.414063,0.0447825
4457,10,1,22,112,123,19,2,8,0.367188,-0.267578,0.852539,-0.25,2.875,-1.375,-0.296356,-0.414063,0.0447825
4459,2,-8,-11,-84,-91,-32,1,2,0.415527,-0.272461,0.829102,2.625,-0.8125,4.6875,-0.29669,-0.41453,0.0468165
4459,-24,-7,-8,32,19,-32,-25,-20,0.415527,-0.272461,0.829102,2.625,-0.8125,4.6875,-0.29669,-0.41453,0.0468165
4472,29,15,26,68,86,43,55,17,0.415527,-0.272461,0.829102,2.625,-0.8125,4.6875,-0.29669,-0.41453,0.0468165
4472,16,-2,-8,-128,-128,-10,2,10,0.415527,-0.272461,0.829102,2.625,-0.8125,4.6875,-0.29669,-0.41453,0.0468165
4479,-28,-6,-3,47,73,-3,6,-17,0.407227,-0.277344,0.824707,-1.5,-0.3125,5.75,-0.298601,-0.414573,0.0492479
4479,-11,-11,-19,52,114,36,2,-12,0.407227,-0.277344,0.824707,-1.5,-0.3125,5.75,-0.298601,-0.414573,0.0492479
4495,34,23,90,47,-14,-6,35,3,0.407227,-0.277344,0.824707,-1.5,-0.3125,5.75,-0.298601,-0.414573,0.0492479
4495,-15,-16,-68,-34,-49,-23,-31,-7,0.407227,-0.277344,0.824707,-1.5,-0.3125,5.75,-0.298601,-0.414573,0.0492479
4497,11,2,8,-128,-128,-53,6,14,0.370605,-0.267578,0.853516,-3.4375,3.9375,0.8125,-0.29984,-0.412693,0.0490988
4497,-39,-24,-83,10,57,29,-19,-28,0.370605,-0.267578,0.853516,-3.4375,3.9375,0.8125,-0.29984,-0.412693,0.0490988
4518,7,3,46,107,94,9,12,11,0.370605,-0.267578,0.853516,-3.4375,3.9375,0.8125,-0.29984,-0.412693,0.0490988
4518,31,23,52,-24,-33,22,-23,14,0.370605,-0.267578,0.853516,-3.4375,3.9375,0.8125,-0.29984,-0.412693,0.0490988
4519,18,2,7,60,85,5,20,1,0.374512,-0.256836,0.866211,1.5,3.0625,1.25,-0.29912,-0.411065,0.0490657
4519,-4,-22,-50,-80,-97,-41,5,13,0.374512,-0.256836,0.866211,1.5,3.0625,1.25,-0.29912,-0.411065,0.0490657
4532,-12,-5,-72,-55,-22,11,-31,-9,0.374512,-0.256836,0.866211,1.5,3.0625,1.25,-0.29912,-0.411065,0.0490657
4532,-12,3,51,73,68,8,1,-6,0.374512,-0.256836,0.866211,1.5,3.0625,1.25,-0.29912,-0.411065,0.0490657
4539,11,-5,-27,-121,-128,-25,-10,15,0.368164,-0.229492,0.839844,3.6875,-0.9375,4.375,-0.297761,-0.410718,0.0504899
4539,2,2,-27,62,58,-51,-10,7,0.368164,-0.229492,0.839844,3.6875,-0.9375,4.375,-0.297761,-0.410718,0.0504899
4555,-2,-11,30,-7,26,87,30,-3,0.368164,-0.229492,0.839844,3.6875,-0.9375,4.375,-0.297761,-0.410718,0.0504899
4555,9,13,11,10,-2,-25,-10,6,0.368164,-0.229492,0.839844,3.6875,-0.9375,4.375,-0.297761,-0.410718,0.0504899
4556,-16,-15,-33,8,8,-19,-25,-27,0.404785,-0.268066,0.857422,-0.125,0.5625,2.4375,-0.298197,-0.41046,0.0514241
4556,-26,3,7,-68,-83,-13,16,-10,0.404785,-0.268066,0.857422,-0.125,0.5625,2.4375,-0.298197,-0.41046,0.0514241
4577,-19,-13,-38,-89,-128,-38,-37,-15,0.404785,-0.268066,0.857422,-0.125,0.5625,2.4375,-0.298197,-0.41046,0.0514241
4577,-19,8,55,-12,46,-8,27,-9,0.404785,-0.268066,0.857422,-0.125,0.5625,2.4375,-0.298197,-0.41046,0.0514241
4579,41,4,16,127,124,86,24,16,0.397949,-0.287598,0.85498,2.1875,5.1875,0.875,-0.297969,-0.408828,0.0513735
4579,36,17,28,48,24,-8,6,18,0.397949,-0.287598,0.85498,2.1875,5.1875,0.875,-0.297969,-0.408828,0.0513735
4592,-19,-24,-81,-91,-95,-73,-43,-22,0.397949,-0.287598,0.85498,2.1875,5.1875,0.875,-0.297969,-0.408828,0.0513735
4592,-27,-4,46,74,35,29,10,-15,0.397949,-0.287598,0.85498,2.1875,5.1875,0.875,-0.297969,-0.408828,0.0513735
4599,-15,-6,-41,36,46,-12,13,1,0.381836,-0.258301,0.836914,3.4375,4.6875,1.0625,-0.296713,-0.407199,0.0512351
4599,4,5,37,32,20,37,5,-1,0.381836,-0.258301,0.836914,3.4375,4.6875,1.0625,-0.296713,-0.407199,0.0512351
4623,7,14,58,58,24,9,1,13,0.381836,-0.258301,0.836914,3.4375,4.6875,1.0625,-0.296713,-0.407199,0.0512351
4623,19,-13,-84,-70,-56,-23,-15,7,0.381836,-0.258301,0.836914,3.4375,4.6875,1.0625,-0.296713,-0.407199,0.0512351
4624,-22,-9,-10,-114,-76,-36,-6,-13,0.342285,-0.270508,0.858887,1.75,1.375,5.3125,-0.296992,-0.405162,0.0531198
4624,-12,5,62,84,124,69,-9,5,0.342285,-0.270508,0.858887,1.75,1.375,5.3125,-0.296992,-0.405162,0.0531198
4638,21,24,45,15,-14,-37,9,11,0.342285,-0.270508,0.858887,1.75,1.375,5.3125,-0.296992,-0.405162,0.0531198
4638,1,0,-17,-59,-54,29,1,-9,0.342285,-0.270508,0.858887,1.75,1.375,5.3125,-0.296992,-0.405162,0.0531198
4639,9,1,5,-22,-19,-7,44,22,0.378418,-0.243652,0.856445,-1.5625,1.375,1.3125,-0.297253,-0.404509,0.0533231
4639,-17,-21,-62,-128,-95,-17,-20,-33,0.378418,-0.243652,0.856445,-1.5625,1.375,1.3125,-0.297253,-0.404509,0.0533231
4652,8,0,61,83,111,24,7,14,0.378418,-0.243652,0.856445,-1.5625,1.375,1.3125,-0.297253,-0.404509,0.0533231
4652,-2,19,53,127,114,-5,-6,-4,0.378418,-0.243652,0.856445,-1.5625,1.375,1.3125,-0.297253,-0.404509,0.0533231
4658,-17,12,20,-66,-82,8,18,-5,0.364746,-0.251953,0.853516,-1.375,4.125,-0.0625,-0.297266,-0.402818,0.0526911
4658,22,-20,-38,-104,-120,-47,-25,2,0.364746,-0.251953,0.853516,-1.375,4.125,-0.0625,-0.297266,-0.402818,0.0526911
4674,20,1,-15,13,25,3,12,-3,0.364746,-0.251953,0.853516,-1.375,4.125,-0.0625,-0.297266,-0.402818,0.0526911
4674,-16,1,-30,64,110,14,-14,3,0.364746,-0.251953,0.853516,-1.375,4.125,-0.0625,-0.297266,-0.402818,0.0526911
4676,20,4,33,92,45,32,-9,5,0.398926,-0.267578,0.857422,5,4.25,0.25,-0.295512,-0.401724,0.0524075
4676,-23,1,22,-67,-34,-22,10,0,0.398926,-0.267578,0.857422,5,4.25,0.25,-0.295512,-0.401724,0.0524075
4697,-8,-11,-47,-31,-66,-23,-20,-16,0.398926,-0.267578,0.857422,5,4.25,0.25,-0.295512,-0.401724,0.0524075
4697,-13,-20,-20,-16,-50,10,-1,-13,0.398926,-0.267578,0.857422,5,4.25,0.25,-0.295512,-0.401724,0.0524075
4699,18,8,18,3,18,-31,-3,0,0.377441,-0.244629,0.84375,7.0625,1.6875,1.875,-0.292919,-0.401159,0.0527893
4699,-19,11,23,74,75,14,-5,16,0.377441,-0.244629,0.84375,7.0625,1.6875,1.875,-0.292919,-0.401159,0.0527893
4712,6,-26,10,1,-12,11,-11,0,0.377441,-0.244629,0.84375,7.0625,1.6875,1.875,-0.292919,-0.401159,0.0527893
4712,-1,-2,17,-85,-65,-40,-10,-9,0.377441,-0.244629,0.84375,7.0625,1.6875,1.875,-0.292919,-0.401159,0.0527893
4719,-13,-7,-43,-59,-112,-36,-27,-9,0.388184,-0.269531,0.830566,2.1875,0.875,1.6875,-0.292938,-0.401049,0.0535329
4719,4,-16,-26,-28,2,67,7,2,0.388184,-0.269531,0.830566,2.1875,0.875,1.6875,-0.292938,-0.401049,0.0535329
4735,-4,29,96,97,121,49,20,8,0.388184,-0.269531,0.830566,2.1875,0.875,1.6875,-0.292938,-0.401049,0.0535329
4735,21,1,3,56,6,9,6,12,0.388184,-0.269531,0.830566,2.1875,0.875,1.6875,-0.292938,-0.401049,0.0535329
4736,-44,-2,22,-59,-69,-25,-25,-13,0.364258,-0.28418,0.835449,-1.5625,2,-0.4375,-0.294011,-0.400171,0.0534958
4736,26,-4,-24,16,-6,-13,7,2,0.364258,-0.28418,0.835449,-1.5625,2,-0.4375,-0.294011,-0.400171,0.0534958
4757,-28,3,40,-44,-32,-38,-17,-11,0.364258,-0.28418,0.835449,-1.5625,2,-0.4375,-0.294011,-0.400171,0.0534958
4757,-5,-6,-27,-15,-36,16,29,-7,0.364258,-0.28418,0.835449,-1.5625,2,-0.4375,-0.294011,-0.400171,0.0534958
4759,4,-5,13,124,127,20,-30,5,0.374023,-0.286621,0.847168,1.125,2.375,-2.0625,-0.294079,-0.399518,0.0527801
4759,-25,-8,-24,45,5,-8,8,-3,0.374023,-0.286621,0.847168,1.125,2.375,-2.0625,-0.294079,-0.399518,0.0527801
4771,-18,-2,-40,-59,-71,-9,-11,-11,0.374023,-0.286621,0.847168,1.125,2.375,-2.0625,-0.294079,-0.399518,0.0527801
4771,-2,-12,-3,-70,-60,-18,-12,-2,0.374023,-0.286621,0.847168,1.125,2.375,-2.0625,-0.294079,-0.399518,0.0527801
4780,22,23,43,4,52,14,40,7,0.375488,-0.27002,0.835938,1.625,-1.4375,1.6875,-0.294183,-0.399904,0.0537362
4780,13,-4,10,40,17,-5,7,13,0.375488,-0.27002,0.835938,1.625,-1.4375,1.6875,-0.294183,-0.399904,0.0537362
4794,-20,-6,-37,-18,2,-36,-56,-26,0.375488,-0.27002,0.835938,1.625,-1.4375,1.6875,-0.294183,-0.399904,0.0537362
4794,23,4,-31,-120,-89,40,-24,12,0.375488,-0.27002,0.835938,1.625,-1.4375,1.6875,-0.294183,-0.399904,0.0537362
4796,-21,-8,2,104,55,1,-9,-9,0.399414,-0.26123,0.836914,-1.4375,-1.125,3.3125,-0.295375,-0.40058,0.0550982
4796,-7,5,63,61,59,57,-8,1,0.399414,-0.26123,0.836914,-1.4375,-1.125,3.3125,-0.295375,-0.40058,0.0550982
4817,36,1,-62,-95,-49,-47,42,13,0.399414,-0.26123,0.836914,-1.4375,-1.125,3.3125,-0.295375,-0.40058,0.0550982
4817,3,-19,-24,-44,18,-12,13,-11,0.399414,-0.26123,0.836914,-1.4375,-1.125,3.3125,-0.295375,-0.40058,0.0550982
4818,2,15,42,31,4,14,-47,-19,0.382812,-0.249023,0.84668,-3.4375,0.25,-0.0625,-0.296232,-0.400739,0.0549209
4818,-27,-2,54,81,45,-21,-4,-5,0.382812,-0.249023,0.84668,-3.4375,0.25,-0.0625,-0.296232,-0.400739,0.0549209
4831,-6,1,26,-19,-57,7,0,-7,0.382812,-0.249023,0.84668,-3.4375,0.25,-0.0625,-0.296232,-0.400739,0.0549209
4831,-15,-15,-27,-11,14,10,7,-4,0.382812,-0.249023,0.84668,-3.4375,0.25,-0.0625,-0.296232,-0.400739,0.0549209
4840,8,-1,-6,12,36,7,13,20,0.371582,-0.249023,0.850586,-0.5625,0.875,-2.625,-0.295867,-0.400527,0.0538034
4840,4,0,-40,-94,-109,-41,-2,0,0.371582,-0.249023,0.850586,-0.5625,0.875,-2.625,-0.295867,-0.400527,0.0538034
4854,-5,-13,-56,-34,6,-6,-21,-3,0.371582,-0.249023,0.850586,-0.5625,0.875,-2.625,-0.295867,-0.400527,0.0538034
4854,-6,3,40,109,127,-8,-3,-4,0.371582,-0.249023,0.850586,-0.5625,0.875,-2.625,-0.295867,-0.400527,0.0538034
4856,4,-4,18,5,-53,23,21,4,0.39502,-0.255371,0.863281,1.875,1.125,0.5625,-0.294984,-0.400386,0.0538526
4856,10,15,12,-36,-12,-26,-23,-15,0.39502,-0.255371,0.863281,1.875,1.125,0.5625,-0.294984,-0.400386,0.0538526
4878,4,0,-11,-15,-34,-1,16,20,0.39502,-0.255371,0.863281,1.875,1.125,0.5625,-0.294984,-0.400386,0.0538526
4878,13,8,16,-5,-29,-37,-17,25,0.39502,-0.255371,0.863281,1.875,1.125,0.5625,-0.294984,-0.400386,0.0538526
4879,-26,-10,13,17,18,32,-26,-46,0.385254,-0.251465,0.890625,-0.3125,3.125,3.0625,-0.294872,-0.398914,0.0543618
4879,3,-3,-7,-63,-82,-24,-11,-6,0.385254,-0.251465,0.890625,-0.3125,3.125,3.0625,-0.294872,-0.398914,0.0543618
4891,-22,-18,-59,-65,0,2,56,-3,0.385254,-0.251465,0.890625,-0.3125,3.125,3.0625,-0.294872,-0.398914,0.0543618
4891,-15,16,90,104,74,-19,-38,2,0.385254,-0.251465,0.890625,-0.3125,3.125,3.0625,-0.294872,-0.398914,0.0543618
4900,13,0,35,41,37,21,23,15,0.333008,-0.236816,0.883301,4.6875,6.1875,0.9375,-0.292415,-0.395597,0.0537267
4900,40,15,0,54,39,28,5,5,0.333008,-0.236816,0.883301,4.6875,6.1875,0.9375,-0.292415,-0.395597,0.0537267
4915,-3,15,100,-17,-31,-6,1,3,0.333008,-0.236816,0.883301,4.6875,6.1875,0.9375,-0.292415,-0.395597,0.0537267
4915,-20,-5,-51,-77,-61,-4,17,-13,0.333008,-0.236816,0.883301,4.6875,6.1875,0.9375,-0.292415,-0.395597,0.0537267
4917,-8,-4,1,-14,-30,-20,-8,13,0.347656,-0.249023,0.851074,2.8125,4.625,-2,-0.290823,-0.393889,0.0525096
4917,14,-3,-57,-46,-4,26,-1,0,0.347656,-0.249023,0.851074,2.8125,4.625,-2,-0.290823,-0.393889,0.0525096
4938,-25,0,45,127,87,16,-11,-4,0.347656,-0.249023,0.851074,2.8125,4.625,-2,-0.290823,-0.393889,0.0525096
4938,10,21,47,35,7,29,13,6,0.347656,-0.249023,0.851074,2.8125,4.625,-2,-0.290823,-0.393889,0.0525096
4940,12,-19,-96,-128,-128,-49,9,-5,0.418457,-0.289551,0.865234,0.75,4.75,1.9375,-0.291371,-0.392946,0.0529797
4940,10,4,-30,60,107,30,33,14,0.418457,-0.289551,0.865234,0.75,4.75,1.9375,-0.291371,-0.392946,0.0529797
4952,-3,4,69,117,76,10,-57,-1,0.418457,-0.289551,0.865234,0.75,4.75,1.9375,-0.291371,-0.392946,0.0529797
4952,6,6,-3,-87,-80,-19,3,1,0.418457,-0.289551,0.865234,0.75,4.75,1.9375,-0.291371,-0.392946,0.0529797
4960,0,14,56,32,19,4,41,3,0.382812,-0.295898,0.866211,0.875,5.3125,2.625,-0.292027,-0.390949,0.0536915
4960,22,-18,-113,-24,-74,-44,-28,7,0.382812,-0.295898,0.866211,0.875,5.3125,2.625,-0.292027,-0.390949,0.0536915
4975,17,9,26,-66,-27,12,3,-6,0.382812,-0.295898,0.866211,0.875,5.3125,2.625,-0.292027,-0.390949,0.0536915
4975,-7,-20,25,-1,112,21,21,8,0.382812,-0.295898,0.866211,0.875,5.3125,2.625,-0.292027,-0.390949,0.0536915
4976,-25,-4,-33,41,33,6,-11,-2,0.327148,-0.236816,0.844727,4.75,5.6875,1.8125,-0.28998,-0.388197,0.0536133
4976,-5,11,13,-46,-21,-3,5,9,0.327148,-0.236816,0.844727,4.75,5.6875,1.8125,-0.28998,-0.388197,0.0536133
4998,-3,-3,-56,-11,16,-11,29,-8,0.327148,-0.236816,0.844727,4.75,5.6875,1.8125,-0.28998,-0.388197,0.0536133
4998,23,-13,-49,-91,-128,-16,-39,4,0.327148,-0.236816,0.844727,4.75,5.6875,1.8125,-0.28998,-0.388197,0.0536133
4999,10,20,81,58,105,16,-15,9,0.364258,-0.237305,0.848633,-1.1875,5.25,1.125,-0.289946,-0.386456,0.0533482
4999,5,1,-8,55,53,3,5,-10,0.364258,-0.237305,0.848633,-1.1875,5.25,1.125,-0.289946,-0.386456,0.0533482
5012,13,-6,-17,-63,-67,-52,-18,10,0.364258,-0.237305,0.848633,-1.1875,5.25,1.125,-0.289946,-0.386456,0.0533482
5012,-33,-8,-65,-109,-100,-10,0,-18,0.364258,-0.237305,0.848633,-1.1875,5.25,1.125,-0.289946,-0.386456,0.0533482
5020,41,-7,-20,-18,12,18,-1,-1,0.447754,-0.28125,0.865723,-4.25,5.5625,0.8125,-0.291779,-0.386225,0.0531783
5020,-43,-2,28,-1,14,-28,-10,1,0.447754,-0.28125,0.865723,-4.25,5.5625,0.8125,-0.291779,-0.386225,0.0531783
5036,-3,-8,-71,-68,-3,22,10,4,0.447754,-0.28125,0.865723,-4.25,5.5625,0.8125,-0.291779,-0.386225,0.0531783
5036,19,8,25,111,127,-5,14,1,0.447754,-0.28125,0.865723,-4.25,5.5625,0.8125,-0.291779,-0.386225,0.0531783
5038,-4,8,14,33,-45,9,10,1,0.377441,-0.262695,0.869141,1.1875,6.1875,2,-0.29145,-0.384206,0.0533048
5038,14,7,49,28,68,12,10,0,0.377441,-0.262695,0.869141,1.1875,6.1875,2,-0.29145,-0.384206,0.0533048
5057,4,-1,-19,94,33,16,12,3,0.377441,-0.262695,0.869141,1.1875,6.1875,2,-0.29145,-0.384206,0.0533048
5057,-17,6,103,32,-21,4,6,-4,0.377441,-0.262695,0.869141,1.1875,6.1875,2,-0.29145,-0.384206,0.0533048
5059,-7,-18,-70,-124,-86,-29,-14,-19,0.365723,-0.260254,0.845703,-2.625,5.0625,-1.1875,-0.29219,-0.382826,0.0523635
5059,-6,-25,-78,-114,-122,-34,2,4,0.365723,-0.260254,0.845703,-2.625,5.0625,-1.1875,-0.29219,-0.382826,0.0523635
5071,-15,-14,-85,-97,-94,1,-4,-9,0.365723,-0.260254,0.845703,-2.625,5.0625,-1.1875,-0.29219,-0.382826,0.0523635
5071,-22,0,16,127,77,16,3,-18,0.365723,-0.260254,0.845703,-2.625,5.0625,-1.1875,-0.29219,-0.382826,0.0523635
5080,11,-5,-18,-99,38,17,2,2,0.384766,-0.269043,0.84668,-0.75,3.6875,3,-0.293049,-0.381849,0.0531346
5080,-11,7,38,0,85,-11,-12,-2,0.384766,-0.269043,0.84668,-0.75,3.6875,3,-0.293049,-0.381849,0.0531346
5095,8,14,94,119,123,74,13,1,0.384766,-0.269043,0.84668,-0.75,3.6875,3,-0.293049,-0.381849,0.0531346
5095,26,11,10,14,-82,-19,-9,23,0.384766,-0.269043,0.84668,-0.75,3.6875,3,-0.293049,-0.381849,0.0531346
5097,20,-13,-24,-39,15,-2,21,4,0.334473,-0.266602,0.884277,-7,2.75,1.5625,-0.29553,-0.380046,0.053471
5097,-28,-5,-8,-46,19,-4,-21,-9,0.334473,-0.266602,0.884277,-7,2.75,1.5625,-0.29553,-0.380046,0.053471
5118,24,4,10,10,-15,-22,-8,4,0.334473,-0.266602,0.884277,-7,2.75,1.5625,-0.29553,-0.380046,0.053471
5118,-7,0,8,-109,-84,19,-8,-10,0.334473,-0.266602,0.884277,-7,2.75,1.5625,-0.29553,-0.380046,0.053471
5119,-2,-19,-27,66,-26,-22,-2,2,0.35498,-0.265625,0.847168,-11.375,5,-3.375,-0.298865,-0.378678,0.0516521
5119,17,15,60,-8,14,15,7,4,0.35498,-0.265625,0.847168,-11.375,5,-3.375,-0.298865,-0.378678,0.0516521
5132,-29,-22,-51,62,80,-13,-19,-12,0.35498,-0.265625,0.847168,-11.375,5,-3.375,-0.298865,-0.378678,0.0516521
5132,9,-3,-41,-5,-35,-3,-4,0,0.35498,-0.265625,0.847168,-11.375,5,-3.375,-0.298865,-0.378678,0.0516521
5140,-12,-4,-43,-69,27,-17,2,3,0.34668,-0.270996,0.852539,-1.5625,5.5625,0.9375,-0.299455,-0.376561,0.0514411
5140,27,4,69,16,88,25,-10,-7,0.34668,-0.270996,0.852539,-1.5625,5.5625,0.9375,-0.299455,-0.376561,0.0514411
5155,-22,8,-4,69,17,6,8,3,0.34668,-0.270996,0.852539,-1.5625,5.5625,0.9375,-0.299455,-0.376561,0.0514411
5155,2,2,38,45,19,18,20,9,0.34668,-0.270996,0.852539,-1.5625,5.5625,0.9375,-0.299455,-0.376561,0.0514411
5156,13,6,-44,-20,-2,-13,-4,-3,0.340332,-0.268066,0.846191,2.875,5.4375,3.9375,-0.298999,-0.374158,0.0523614
5156,-26,-13,-31,-40,-91,-3,8,3,0.340332,-0.268066,0.846191,2.875,5.4375,3.9375,-0.298999,-0.374158,0.0523614
5178,25,-8,4,-128,-104,-42,-18,-1,0.340332,-0.268066,0.846191,2.875,5.4375,3.9375,-0.298999,-0.374158,0.0523614
5178,-24,15,-9,-8,124,35,-2,-11,0.340332,-0.268066,0.846191,2.875,5.4375,3.9375,-0.298999,-0.374158,0.0523614
5179,-15,-16,52,74,-35,-26,-6,4,0.374512,-0.260742,0.844238,-0.4375,8.0625,2.8125,-0.299159,-0.371762,0.0525173
5179,48,12,17,7,70,19,-36,1,0.374512,-0.260742,0.844238,-0.4375,8.0625,2.8125,-0.299159,-0.371762,0.0525173
5199,-70,-12,-17,-47,-111,-28,-6,-11,0.374512,-0.260742,0.844238,-0.4375,8.0625,2.8125,-0.299159,-0.371762,0.0525173
5199,1,-9,-35,0,69,1,-6,-7,0.374512,-0.260742,0.844238,-0.4375,8.0625,2.8125,-0.299159,-0.371762,0.0525173
5207,-13,15,83,89,105,26,-5,-12,0.296875,-0.279785,0.864746,-1.8125,9.75,-0.0625,-0.299733,-0.367359,0.0515701
5207,-3,11,27,-35,-114,-4,9,1,0.296875,-0.279785,0.864746,-1.8125,9.75,-0.0625,-0.299733,-0.367359,0.0515701
5215,20,-8,-18,22,42,10,10,1,0.296875,-0.279785,0.864746,-1.8125,9.75,-0.0625,-0.299733,-0.367359,0.0515701
5215,10,-13,-85,-74,-69,-30,-7,1,0.296875,-0.279785,0.864746,-1.8125,9.75,-0.0625,-0.299733,-0.367359,0.0515701
5217,-25,1,-16,-93,-100,-19,-9,-10,0.35498,-0.235352,0.848145,1.0625,7.5,-3.75,-0.29794,-0.365573,0.0491946
5217,-20,-21,-64,2,30,-2,11,6,0.35498,-0.235352,0.848145,1.0625,7.5,-3.75,-0.29794,-0.365573,0.0491946
5238,13,7,21,-1,109,34,5,-11,0.35498,-0.235352,0.848145,1.0625,7.5,-3.75,-0.29794,-0.365573,0.0491946
5238,3,4,19,127,53,17,2,7,0.35498,-0.235352,0.848145,1.0625,7.5,-3.75,-0.29794,-0.365573,0.0491946
5239,4,2,-1,41,-19,12,22,16,0.393555,-0.251465,0.851562,-1.0625,6.0625,3.6875,-0.298228,-0.364488,0.04971
5239,-9,13,35,-100,-122,-53,-13,-7,0.393555,-0.251465,0.851562,-1.0625,6.0625,3.6875,-0.298228,-0.364488,0.04971
5260,-1,-11,-19,-77,-28,51,10,3,0.393555,-0.251465,0.851562,-1.0625,6.0625,3.6875,-0.298228,-0.364488,0.04971
5260,9,-1,16,46,89,-1,7,-3,0.393555,-0.251465,0.851562,-1.0625,6.0625,3.6875,-0.298228,-0.364488,0.04971
5262,16,-5,4,-3,-12,-12,-27,3,0.333008,-0.267578,0.856934,-4.3125,6.1875,2.75,-0.29991,-0.361943,0.0500047
5262,-6,9,31,91,79,9,-3,-3,0.333008,-0.267578,0.856934,-4.3125,6.1875,2.75,-0.29991,-0.361943,0.0500047
5275,19,21,7,-84,-95,-23,6,7,0.333008,-0.267578,0.856934,-4.3125,6.1875,2.75,-0.29991,-0.361943,0.0500047
5275,-26,-39,-61,37,52,28,7,-18,0.333008,-0.267578,0.856934,-4.3125,6.1875,2.75,-0.29991,-0.361943,0.0500047
5277,4,20,34,30,41,1,-13,11,0.322266,-0.26123,0.865234,0.75,9.25,-1.125,-0.298973,-0.35864,0.0485635
5277,-9,-6,28,-61,-62,-9,-6,-14,0.322266,-0.26123,0.865234,0.75,9.25,-1.125,-0.298973,-0.35864,0.0485635
5298,18,20,-4,15,-19,3,-5,13,0.322266,-0.26123,0.865234,0.75,9.25,-1.125,-0.298973,-0.35864,0.0485635
5298,5,-7,-54,-92,-33,-22,-5,-7,0.322266,-0.26123,0.865234,0.75,9.25,-1.125,-0.298973,-0.35864,0.0485635
5299,-3,-4,29,59,23,14,-9,-3,0.334961,-0.217773,0.858398,-0.1875,7.9375,-2.125,-0.297347,-0.356293,0.0465234
5299,3,-9,-24,25,5,12,40,18,0.334961,-0.217773,0.858398,-0.1875,7.9375,-2.125,-0.297347,-0.356293,0.0465234
5320,-18,-8,-20,1,17,4,-20,-7,0.334961,-0.217773,0.858398,-0.1875,7.9375,-2.125,-0.297347,-0.356293,0.0465234
5320,2,14,18,-108,-112,-40,0,-14,0.334961,-0.217773,0.858398,-0.1875,7.9375,-2.125,-0.297347,-0.356293,0.0465234
5322,-32,0,-28,-85,-69,-4,-32,-19,0.350586,-0.290039,0.890625,-1.3125,7.6875,1.3125,-0.29807,-0.353685,0.046378
5322,39,-5,9,72,60,-1,-31,11,0.350586,-0.290039,0.890625,-1.3125,7.6875,1.3125,-0.29807,-0.353685,0.046378
5335,-10,19,91,-6,-15,2,102,6,0.350586,-0.290039,0.890625,-1.3125,7.6875,1.3125,-0.29807,-0.353685,0.046378
5335,-8,-8,17,11,-5,57,35,-2,0.350586,-0.290039,0.890625,-1.3125,7.6875,1.3125,-0.29807,-0.353685,0.046378
5337,18,9,-27,-101,-59,24,-14,-1,0.410645,-0.341309,0.871582,2.75,6.25,3.125,-0.299091,-0.352779,0.0474274
5337,8,12,-19,-60,-107,-39,-3,-7,0.410645,-0.341309,0.871582,2.75,6.25,3.125,-0.299091,-0.352779,0.0474274
5357,1,-26,-45,-32,-41,-26,-33,-16,0.410645,-0.341309,0.871582,2.75,6.25,3.125,-0.299091,-0.352779,0.0474274
5357,-55,-9,62,-33,10,-30,-31,-17,0.410645,-0.341309,0.871582,2.75,6.25,3.125,-0.299091,-0.352779,0.0474274
5359,24,1,-30,33,34,-2,41,25,0.340332,-0.206543,0.816406,-2,2.0625,5.375,-0.299139,-0.352214,0.0486071
5359,-14,1,-49,-7,-11,22,5,-26,0.340332,-0.206543,0.816406,-2,2.0625,5.375,-0.299139,-0.352214,0.0486071
5380,-1,-2,70,94,95,11,-18,0,0.340332,-0.206543,0.816406,-2,2.0625,5.375,-0.299139,-0.352214,0.0486071
5380,5,-11,-88,-128,-115,-36,27,-4,0.340332,-0.206543,0.816406,-2,2.0625,5.375,-0.299139,-0.352214,0.0486071
5382,-30,-18,-38,59,123,30,-35,-18,0.239258,-0.204102,0.86084,-2.6875,7.5,5.625,-0.298897,-0.347237,0.049291
5382,5,24,81,103,102,46,-9,13,0.239258,-0.204102,0.86084,-2.6875,7.5,5.625,-0.298897,-0.347237,0.049291
5395,14,-13,-36,-88,-75,-32,-6,7,0.239258,-0.204102,0.86084,-2.6875,7.5,5.625,-0.298897,-0.347237,0.049291
5395,31,-5,-16,105,29,-6,8,10,0.239258,-0.204102,0.86084,-2.6875,7.5,5.625,-0.298897,-0.347237,0.049291
5401,-8,-9,-61,-128,-13,-32,12,-18,0.233887,-0.274414,0.895508,-5.1875,11.1875,-1.125,-0.30006,-0.341312,0.0477066
5401,-27,7,-19,47,35,26,36,-12,0.233887,-0.274414,0.895508,-5.1875,11.1875,-1.125,-0.30006,-0.341312,0.0477066
5418,24,-6,17,38,-63,6,2,9,0.233887,-0.274414,0.895508,-5.1875,11.1875,-1.125,-0.30006,-0.341312,0.0477066
5418,0,13,23,-69,-85,-3,-21,0,0.233887,-0.274414,0.895508,-5.1875,11.1875,-1.125,-0.30006,-0.341312,0.0477066
5420,14,-5,27,90,64,-11,2,9,0.255859,-0.277832,0.899902,-0.6875,9.9375,-0.3125,-0.299972,-0.336368,0.0464217
5420,10,3,-4,5,23,22,41,-1,0.255859,-0.277832,0.899902,-0.6875,9.9375,-0.3125,-0.299972,-0.336368,0.0464217
5440,-4,11,50,-21,-15,-11,-4,-1,0.255859,-0.277832,0.899902,-0.6875,9.9375,-0.3125,-0.299972,-0.336368,0.0464217
5440,-9,-12,-54,-4,34,13,-8,-6,0.255859,-0.277832,0.899902,-0.6875,9.9375,-0.3125,-0.299972,-0.336368,0.0464217
5441,0,5,2,-30,-63,-10,-3,8,0.357422,-0.335449,0.885742,6,9.75,1.4375,-0.299231,-0.333609,0.0464897
5441,-9,-21,-49,-125,-111,-40,-26,-3,0.357422,-0.335449,0.885742,6,9.75,1.4375,-0.299231,-0.333609,0.0464897
5455,17,-5,-2,-2,19,-2,-7,5,0.357422,-0.335449,0.885742,6,9.75,1.4375,-0.299231,-0.333609,0.0464897
5455,-30,-3,-46,-55,-43,-7,-2,3,0.357422,-0.335449,0.885742,6,9.75,1.4375,-0.299231,-0.333609,0.0464897
5461,-17,3,45,85,60,47,32,-1,0.336914,-0.237305,0.834961,6.375,7.625,8.5,-0.297185,-0.331041,0.0485014
5461,-19,-3,14,113,64,21,-33,-1,0.336914,-0.237305,0.834961,6.375,7.625,8.5,-0.297185,-0.331041,0.0485014
5477,31,-1,4,-9,0,0,14,-7,0.336914,-0.237305,0.834961,6.375,7.625,8.5,-0.297185,-0.331041,0.0485014
5477,-23,-8,-18,-61,-25,-18,-29,-8,0.336914,-0.237305,0.834961,6.375,7.625,8.5,-0.297185,-0.331041,0.0485014
5479,23,4,-5,76,59,-26,10,0,0.26709,-0.268066,0.837402,-5.625,7,9.5625,-0.30019,-0.327029,0.0511415
5479,0,-13,-23,-18,-42,11,-17,-6,0.26709,-0.268066,0.837402,-5.625,7,9.5625,-0.30019,-0.327029,0.0511415
5500,-5,-1,-15,-33,-23,32,29,11,0.26709,-0.268066,0.837402,-5.625,7,9.5625,-0.30019,-0.327029,0.0511415
5500,25,34,125,127,92,64,-8,-11,0.26709,-0.268066,0.837402,-5.625,7,9.5625,-0.30019,-0.327029,0.0511415
5501,-39,-20,-26,-128,-128,-41,12,-7,0.247559,-0.264648,0.874512,-10.8125,5.9375,-1.5625,-0.303319,-0.323819,0.0499175
5501,8,-4,-41,-66,10,-31,-15,1,0.247559,-0.264648,0.874512,-10.8125,5.9375,-1.5625,-0.303319,-0.323819,0.0499175
5514,0,-4,-16,32,7,4,0,5,0.247559,-0.264648,0.874512,-10.8125,5.9375,-1.5625,-0.303319,-0.323819,0.0499175
5514,-7,5,63,78,67,5,-13,-2,0.247559,-0.264648,0.874512,-10.8125,5.9375,-1.5625,-0.303319,-0.323819,0.0499175
5522,15,0,11,3,-15,7,-1,16,0.342285,-0.318848,0.893555,-8.125,4.9375,-0.3125,-0.306833,-0.322778,0.0494585
5522,-4,-1,48,-95,-84,-17,-4,-17,0.342285,-0.318848,0.893555,-8.125,4.9375,-0.3125,-0.306833,-0.322778,0.0494585
5538,-25,-8,-8,46,-15,-16,-23,2,0.342285,-0.318848,0.893555,-8.125,4.9375,-0.3125,-0.306833,-0.322778,0.0494585
5538,12,-12,-37,-83,-39,-24,-6,3,0.342285,-0.318848,0.893555,-8.125,4.9375,-0.3125,-0.306833,-0.322778,0.0494585
5539,-15,5,116,37,19,6,-3,-14,0.316895,-0.264648,0.860352,3.75,2.375,9.5625,-0.306256,-0.321307,0.0525103
5539,18,-12,-51,20,-5,3,30,23,0.316895,-0.264648,0.860352,3.75,2.375,9.5625,-0.306256,-0.321307,0.0525103
5560,-9,11,47,-85,-6,1,29,-1,0.316895,-0.264648,0.860352,3.75,2.375,9.5625,-0.306256,-0.321307,0.0525103
5560,13,6,22,127,103,-8,-77,-28,0.316895,-0.264648,0.860352,3.75,2.375,9.5625,-0.306256,-0.321307,0.0525103
5561,-12,-18,-15,-4,-22,-10,-3,3,0.241699,-0.188477,0.862305,4.125,-0.125,12.4375,-0.304248,-0.318859,0.0562956
5561,-10,-6,9,-93,-14,18,8,-1,0.241699,-0.188477,0.862305,4.125,-0.125,12.4375,-0.304248,-0.318859,0.0562956
5574,15,14,6,-31,-38,-53,-8,2,0.241699,-0.188477,0.862305,4.125,-0.125,12.4375,-0.304248,-0.318859,0.0562956
5574,11,0,-11,53,75,6,27,5,0.241699,-0.188477,0.862305,4.125,-0.125,12.4375,-0.304248,-0.318859,0.0562956
5583,11,29,59,40,50,59,52,7,0.274414,-0.229004,0.895996,-6.5625,0.6875,2.1875,-0.30538,-0.317834,0.0565645
5583,-1,-1,25,-33,-59,-32,-24,2,0.274414,-0.229004,0.895996,-6.5625,0.6875,2.1875,-0.30538,-0.317834,0.0565645
5598,4,-13,-9,-49,-40,-5,-29,-2,0.274414,-0.229004,0.895996,-6.5625,0.6875,2.1875,-0.30538,-0.317834,0.0565645
5598,-8,1,21,-36,-45,-41,11,4,0.274414,-0.229004,0.895996,-6.5625,0.6875,2.1875,-0.30538,-0.317834,0.0565645
5599,12,-9,-105,-47,-59,4,-21,-4,0.314453,-0.317871,0.879395,-11.6875,-3.1875,0,-0.310416,-0.318963,0.0572022
5599,13,4,37,38,23,22,20,8,0.314453,-0.317871,0.879395,-11.6875,-3.1875,0,-0.310416,-0.318963,0.0572022
5620,-17,-2,-14,34,61,8,1,-45,0.314453,-0.317871,0.879395,-11.6875,-3.1875,0,-0.310416,-0.318963,0.0572022
5620,-37,-16,3,-73,-42,-10,-16,14,0.314453,-0.317871,0.879395,-11.6875,-3.1875,0,-0.310416,-0.318963,0.0572022
5622,26,0,-28,30,-12,-20,-16,1,0.264648,-0.273438,0.895508,1.125,-4,8.75,-0.310824,-0.318305,0.0606677
5622,-17,-14,-84,-100,-97,-19,11,-8,0.264648,-0.273438,0.895508,1.125,-4,8.75,-0.310824,-0.318305,0.0606677
5635,-25,-5,-32,92,101,33,-14,-8,0.264648,-0.273438,0.895508,1.125,-4,8.75,-0.310824,-0.318305,0.0606677
5635,52,27,38,115,98,33,19,35,0.264648,-0.273438,0.895508,1.125,-4,8.75,-0.310824,-0.318305,0.0606677
5641,-21,-2,50,-48,-91,-14,-22,-7,0.175781,-0.238281,0.884277,6.125,-4,11.125,-0.308964,-0.315593,0.0646748
5641,-7,-23,-36,30,-15,-35,11,-9,0.175781,-0.238281,0.884277,6.125,-4,11.125,-0.308964,-0.315593,0.0646748
