0,-1,0,-2,-2,-1,-1,1,-1,0.960449,0.105957,0.189941,3.875,3.0625,-2.625,0.385932,-1.34433,-0.827955
0,0,-1,-1,-3,1,0,0,-2,0.960449,0.105957,0.189941,3.875,3.0625,-2.625,0.385932,-1.34433,-0.827955
0,-1,-1,-1,0,-1,0,-2,-1,0.960449,0.105957,0.189941,3.875,3.0625,-2.625,0.385932,-1.34433,-0.827955
0,0,-4,-1,-1,-1,-1,-1,-1,0.960449,0.105957,0.189941,3.875,3.0625,-2.625,0.385932,-1.34433,-0.827955
0,0,-1,-1,-1,-2,-2,-2,-1,0.960449,0.105957,0.189941,3.875,3.0625,-2.625,0.385932,-1.34433,-0.827955
0,-1,1,-2,-1,0,-1,-2,0,0.960449,0.105957,0.189941,3.875,3.0625,-2.625,0.385932,-1.34433,-0.827955
3,2,1,0,-1,-1,-3,-1,-1,0.960449,0.105957,0.189941,3.875,3.0625,-2.625,0.385932,-1.34433,-0.827955
3,-2,-1,-1,0,-2,0,-1,-2,0.960449,0.105957,0.189941,3.875,3.0625,-2.625,0.385932,-1.34433,-0.827955
12,-1,-3,0,0,-2,-1,-2,-1,0.960449,0.105957,0.189941,3.875,3.0625,-2.625,0.385932,-1.34433,-0.827955
12,-1,0,0,-1,-3,-1,-2,-1,0.960449,0.105957,0.189941,3.875,3.0625,-2.625,0.385932,-1.34433,-0.827955
20,-1,-3,-3,0,-1,0,0,-1,0.958496,0.121094,0.174805,-0.0625,2.875,-2.4375,0.392114,-1.34344,-0.834065
20,0,-2,-3,0,-2,-1,-2,-1,0.958496,0.121094,0.174805,-0.0625,2.875,-2.4375,0.392114,-1.34344,-0.834065
25,-2,-3,-4,1,1,0,0,-2,0.958496,0.121094,0.174805,-0.0625,2.875,-2.4375,0.392114,-1.34344,-0.834065
25,-1,-1,-1,-3,0,0,-3,0,0.958496,0.121094,0.174805,-0.0625,2.875,-2.4375,0.392114,-1.34344,-0.834065
40,0,0,-1,-1,-2,-2,-1,0,0.952148,0.10791,0.174316,-1.25,1.8125,-3.125,0.398657,-1.34277,-0.841074
40,0,-2,-4,0,-2,-1,0,-1,0.952148,0.10791,0.174316,-1.25,1.8125,-3.125,0.398657,-1.34277,-0.841074
49,-2,1,0,0,-1,0,-1,0,0.952148,0.10791,0.174316,-1.25,1.8125,-3.125,0.398657,-1.34277,-0.841074
49,0,2,2,-1,0,-2,1,-1,0.952148,0.10791,0.174316,-1.25,1.8125,-3.125,0.398657,-1.34277,-0.841074
64,-1,-1,1,-1,-1,-1,0,0,0.95459,0.09375,0.167969,-2.25,1.25,-4.9375,0.406011,-1.34225,-0.849178
64,-1,-3,0,-1,1,0,-2,-1,0.95459,0.09375,0.167969,-2.25,1.25,-4.9375,0.406011,-1.34225,-0.849178
71,1,0,-1,-1,-1,1,-3,-1,0.95459,0.09375,0.167969,-2.25,1.25,-4.9375,0.406011,-1.34225,-0.849178
71,0,-2,-2,-1,-2,1,-1,-1,0.95459,0.09375,0.167969,-2.25,1.25,-4.9375,0.406011,-1.34225,-0.849178
85,-3,-1,-2,-2,0,-1,-2,-1,0.950684,0.097168,0.163574,-3.5625,1.375,-5.5,0.413919,-1.34217,-0.858544
85,-2,1,0,-1,-1,-1,0,-1,0.950684,0.097168,0.163574,-3.5625,1.375,-5.5,0.413919,-1.34217,-0.858544
134,0,-2,-1,-1,-1,0,1,-1,0.953613,0.0874023,0.177246,-2.3125,1.5,-6.1875,0.428861,-1.34102,-0.874986
134,-2,-3,-2,-2,0,-2,-1,0,0.953613,0.0874023,0.177246,-2.3125,1.5,-6.1875,0.428861,-1.34102,-0.874986
134,-2,-2,-1,-2,-3,-2,-2,-2,0.953613,0.0874023,0.177246,-2.3125,1.5,-6.1875,0.428861,-1.34102,-0.874986
134,-2,1,0,-1,-1,-1,-1,-1,0.953613,0.0874023,0.177246,-2.3125,1.5,-6.1875,0.428861,-1.34102,-0.874986
135,-3,1,-1,0,0,1,0,-2,0.953613,0.0874023,0.177246,-2.3125,1.5,-6.1875,0.428861,-1.34102,-0.874986
135,1,0,-2,0,-2,0,0,-1,0.953613,0.0874023,0.177246,-2.3125,1.5,-6.1875,0.428861,-1.34102,-0.874986
139,1,-2,-2,-1,-1,0,-1,1,0.953613,0.0874023,0.177246,-2.3125,1.5,-6.1875,0.428861,-1.34102,-0.874986
139,0,-1,-2,-1,-1,-1,-3,-1,0.953613,0.0874023,0.177246,-2.3125,1.5,-6.1875,0.428861,-1.34102,-0.874986
141,1,1,1,-3,-2,1,-2,-1,0.938965,0.090332,0.207031,-3.3125,-0.1875,-5.75,0.435059,-1.33998,-0.882505
141,-1,-2,0,0,0,-1,0,-1,0.938965,0.090332,0.207031,-3.3125,-0.1875,-5.75,0.435059,-1.33998,-0.882505
145,-1,-2,0,-2,-1,-3,0,-2,0.938965,0.090332,0.207031,-3.3125,-0.1875,-5.75,0.435059,-1.33998,-0.882505
145,-1,1,1,-1,-1,-1,0,-1,0.938965,0.090332,0.207031,-3.3125,-0.1875,-5.75,0.435059,-1.33998,-0.882505
154,-1,-2,0,0,-2,-2,-1,-1,0.955566,0.0761719,0.197266,-3.9375,-2.0625,-6.875,0.442123,-1.33973,-0.891193
154,-1,-1,-1,0,0,0,1,-1,0.955566,0.0761719,0.197266,-3.9375,-2.0625,-6.875,0.442123,-1.33973,-0.891193
168,1,1,-1,-1,-1,-2,-1,-2,0.955566,0.0761719,0.197266,-3.9375,-2.0625,-6.875,0.442123,-1.33973,-0.891193
168,1,-2,-2,-1,-1,-2,-1,0,0.955566,0.0761719,0.197266,-3.9375,-2.0625,-6.875,0.442123,-1.33973,-0.891193
177,0,0,-1,-2,-2,-3,-2,-1,0.95752,0.0864258,0.199707,-3.25,-2.8125,-6.1875,0.450285,-1.33999,-0.900844
177,0,1,-1,-1,-3,-1,-2,0,0.95752,0.0864258,0.199707,-3.25,-2.8125,-6.1875,0.450285,-1.33999,-0.900844
199,-1,1,-4,-1,0,2,-1,-1,0.95752,0.0864258,0.199707,-3.25,-2.8125,-6.1875,0.450285,-1.33999,-0.900844
199,-2,0,1,-1,-2,-1,-1,-3,0.95752,0.0864258,0.199707,-3.25,-2.8125,-6.1875,0.450285,-1.33999,-0.900844
201,0,0,0,1,0,-1,-1,0,0.960449,0.0888672,0.193848,-4.25,-4,-5.6875,0.458561,-1.3409,-0.910961
201,0,0,-1,0,-3,-2,-1,1,0.960449,0.0888672,0.193848,-4.25,-4,-5.6875,0.458561,-1.3409,-0.910961
213,-1,-1,2,1,0,0,0,1,0.960449,0.0888672,0.193848,-4.25,-4,-5.6875,0.458561,-1.3409,-0.910961
213,0,0,-3,-2,0,0,1,0,0.960449,0.0888672,0.193848,-4.25,-4,-5.6875,0.458561,-1.3409,-0.910961
220,-2,-3,-1,-2,0,-1,1,-2,0.958496,0.0874023,0.19873,-5,-4.5,-4.625,0.464574,-1.3414,-0.918923
220,-4,-5,1,-1,-1,0,-1,-2,0.958496,0.0874023,0.19873,-5,-4.5,-4.625,0.464574,-1.3414,-0.918923
237,-1,-3,0,-2,-2,-2,0,-1,0.958496,0.0874023,0.19873,-5,-4.5,-4.625,0.464574,-1.3414,-0.918923
237,0,-1,1,-1,-1,-2,-2,-1,0.958496,0.0874023,0.19873,-5,-4.5,-4.625,0.464574,-1.3414,-0.918923
238,-2,0,0,-1,-1,-2,-2,-1,0.960938,0.078125,0.195801,-2.5,-5.25,-3.625,0.469873,-1.34288,-0.925342
238,0,1,1,-1,1,-1,-2,-1,0.960938,0.078125,0.195801,-2.5,-5.25,-3.625,0.469873,-1.34288,-0.925342
259,-1,-1,-3,0,-1,-2,-2,-1,0.960938,0.078125,0.195801,-2.5,-5.25,-3.625,0.469873,-1.34288,-0.925342
259,-2,0,-2,-2,-2,-2,-1,-1,0.960938,0.078125,0.195801,-2.5,-5.25,-3.625,0.469873,-1.34288,-0.925342
261,1,-1,-4,1,-1,-1,0,0,0.96582,0.0830078,0.194824,-0.125,-5.25,-2.875,0.475943,-1.34431,-0.931733
261,-1,0,-2,-1,-2,0,0,-2,0.96582,0.0830078,0.194824,-0.125,-5.25,-2.875,0.475943,-1.34431,-0.931733
274,-1,0,-1,1,0,0,-1,-1,0.96582,0.0830078,0.194824,-0.125,-5.25,-2.875,0.475943,-1.34431,-0.931733
274,-1,-1,-2,0,1,0,0,-1,0.96582,0.0830078,0.194824,-0.125,-5.25,-2.875,0.475943,-1.34431,-0.931733
280,0,0,-1,-1,-1,-1,1,0,0.967773,0.0932617,0.195312,0.0625,-5.3125,-1.625,0.48041,-1.3456,-0.93628
280,0,-3,1,-2,-1,-1,-1,-1,0.967773,0.0932617,0.195312,0.0625,-5.3125,-1.625,0.48041,-1.3456,-0.93628
297,0,-1,2,-2,-2,-2,0,-2,0.967773,0.0932617,0.195312,0.0625,-5.3125,-1.625,0.48041,-1.3456,-0.93628
297,-2,1,0,0,-1,-1,0,-1,0.967773,0.0932617,0.195312,0.0625,-5.3125,-1.625,0.48041,-1.3456,-0.93628
298,1,-3,0,1,-1,-1,-3,0,0.96582,0.0961914,0.195801,-2.5,-5.125,-1.125,0.48408,-1.34696,-0.94098
298,1,-2,0,-2,-1,-3,0,-3,0.96582,0.0961914,0.195801,-2.5,-5.125,-1.125,0.48408,-1.34696,-0.94098
319,-2,-1,-3,-2,-1,-1,0,-1,0.96582,0.0961914,0.195801,-2.5,-5.125,-1.125,0.48408,-1.34696,-0.94098
319,0,-1,-3,-2,1,-1,-2,0,0.96582,0.0961914,0.195801,-2.5,-5.125,-1.125,0.48408,-1.34696,-0.94098
321,-2,2,-1,-2,-2,0,1,-1,0.953125,0.0878906,0.192383,-3.0625,-4.6875,-0.0625,0.48512,-1.34888,-0.943245
321,0,4,-1,-1,-1,-1,-3,1,0.953125,0.0878906,0.192383,-3.0625,-4.6875,-0.0625,0.48512,-1.34888,-0.943245
333,1,1,0,-1,0,0,-1,0,0.953125,0.0878906,0.192383,-3.0625,-4.6875,-0.0625,0.48512,-1.34888,-0.943245
333,-2,0,1,-2,-1,-1,0,-3,0.953125,0.0878906,0.192383,-3.0625,-4.6875,-0.0625,0.48512,-1.34888,-0.943245
340,-1,2,-2,0,-1,-1,1,-3,0.946289,0.0849609,0.200684,-2.0625,-4.0625,0.8125,0.484485,-1.35004,-0.943429
340,0,0,-2,0,0,0,-3,-1,0.946289,0.0849609,0.200684,-2.0625,-4.0625,0.8125,0.484485,-1.35004,-0.943429
357,-1,1,0,0,-1,-2,0,0,0.946289,0.0849609,0.200684,-2.0625,-4.0625,0.8125,0.484485,-1.35004,-0.943429
357,-1,-4,-1,0,-1,-1,-2,0,0.946289,0.0849609,0.200684,-2.0625,-4.0625,0.8125,0.484485,-1.35004,-0.943429
358,-1,-1,-1,1,0,-1,-2,-1,0.944824,0.0859375,0.202637,-0.1875,-4.0625,1.25,0.483436,-1.35112,-0.942397
358,-1,0,0,1,0,1,-2,-3,0.944824,0.0859375,0.202637,-0.1875,-4.0625,1.25,0.483436,-1.35112,-0.942397
379,-3,-1,0,-2,-2,0,-1,0,0.944824,0.0859375,0.202637,-0.1875,-4.0625,1.25,0.483436,-1.35112,-0.942397
379,0,-2,0,-2,-1,-2,0,0,0.944824,0.0859375,0.202637,-0.1875,-4.0625,1.25,0.483436,-1.35112,-0.942397
381,-2,-3,1,-1,-1,-1,-2,-3,0.943359,0.0957031,0.191406,0.0625,-3.625,1.6875,0.483123,-1.3525,-0.942099
381,-2,-1,-3,0,-1,-1,1,-1,0.943359,0.0957031,0.191406,0.0625,-3.625,1.6875,0.483123,-1.3525,-0.942099
394,0,3,-2,1,-1,-1,-2,-3,0.943359,0.0957031,0.191406,0.0625,-3.625,1.6875,0.483123,-1.3525,-0.942099
394,0,2,2,0,-2,0,-2,-1,0.943359,0.0957031,0.191406,0.0625,-3.625,1.6875,0.483123,-1.3525,-0.942099
401,-2,0,0,-1,-2,-1,-1,-1,0.933105,0.090332,0.203125,0.0625,-3.375,2.5,0.480451,-1.35351,-0.939473
401,0,0,-1,-2,1,-2,1,-1,0.933105,0.090332,0.203125,0.0625,-3.375,2.5,0.480451,-1.35351,-0.939473
417,-1,-2,-1,0,1,-3,0,0,0.933105,0.090332,0.203125,0.0625,-3.375,2.5,0.480451,-1.35351,-0.939473
417,0,-1,-2,-2,-3,-3,-2,0,0.933105,0.090332,0.203125,0.0625,-3.375,2.5,0.480451,-1.35351,-0.939473
419,0,0,-3,-2,1,-1,-2,0,0.939453,0.0834961,0.20166,0.9375,-3.5625,3,0.477184,-1.35493,-0.935873
419,-2,-2,-1,-1,0,-1,-1,-2,0.939453,0.0834961,0.20166,0.9375,-3.5625,3,0.477184,-1.35493,-0.935873
440,-3,-3,0,0,-1,0,-1,0,0.939453,0.0834961,0.20166,0.9375,-3.5625,3,0.477184,-1.35493,-0.935873
440,0,-2,-1,2,1,-2,-2,-1,0.939453,0.0834961,0.20166,0.9375,-3.5625,3,0.477184,-1.35493,-0.935873
441,1,-5,2,-4,-1,-2,0,1,0.942871,0.09375,0.214355,1.5,-3.875,3.5,0.473446,-1.35574,-0.931468
441,-2,-1,-1,-2,-3,-2,0,-1,0.942871,0.09375,0.214355,1.5,-3.875,3.5,0.473446,-1.35574,-0.931468
454,-1,-2,0,-1,-3,-2,-2,-1,0.942871,0.09375,0.214355,1.5,-3.875,3.5,0.473446,-1.35574,-0.931468
454,-1,-4,1,-2,0,1,0,0,0.942871,0.09375,0.214355,1.5,-3.875,3.5,0.473446,-1.35574,-0.931468
461,-2,-1,-2,-1,-3,2,-1,0,0.947266,0.0849609,0.204102,3.9375,-4.8125,3.5625,0.471257,-1.35766,-0.928061
461,-3,-4,-3,-3,-1,-2,-1,0,0.947266,0.0849609,0.204102,3.9375,-4.8125,3.5625,0.471257,-1.35766,-0.928061
477,0,-2,0,1,-3,0,-1,-3,0.947266,0.0849609,0.204102,3.9375,-4.8125,3.5625,0.471257,-1.35766,-0.928061
477,0,-6,-1,0,1,-1,0,0,0.947266,0.0849609,0.204102,3.9375,-4.8125,3.5625,0.471257,-1.35766,-0.928061
478,0,-2,-3,0,-1,-1,-1,0,0.963867,0.100098,0.206055,3.3125,-4.6875,4.25,0.469736,-1.35917,-0.925218
478,-2,-1,0,-2,-3,0,-1,0,0.963867,0.100098,0.206055,3.3125,-4.6875,4.25,0.469736,-1.35917,-0.925218
500,-1,1,-3,-2,0,0,0,0,0.963867,0.100098,0.206055,3.3125,-4.6875,4.25,0.469736,-1.35917,-0.925218
500,-2,2,-1,-2,-1,-1,1,-1,0.963867,0.100098,0.206055,3.3125,-4.6875,4.25,0.469736,-1.35917,-0.925218
501,0,3,0,-1,-1,0,-1,-3,0.974609,0.100586,0.203613,3.8125,-5.125,5.5625,0.465826,-1.36115,-0.919935
501,0,-3,0,-2,2,-1,-1,-2,0.974609,0.100586,0.203613,3.8125,-5.125,5.5625,0.465826,-1.36115,-0.919935
513,0,-1,-1,0,-2,-2,0,0,0.974609,0.100586,0.203613,3.8125,-5.125,5.5625,0.465826,-1.36115,-0.919935
513,-1,1,1,1,0,-2,0,-3,0.974609,0.100586,0.203613,3.8125,-5.125,5.5625,0.465826,-1.36115,-0.919935
522,-1,-1,-1,-1,-1,-1,0,0,0.984863,0.0981445,0.199707,3.5625,-5.1875,6.75,0.460999,-1.36332,-0.913681
522,-1,-1,-2,-1,-2,-1,0,-1,0.984863,0.0981445,0.199707,3.5625,-5.1875,6.75,0.460999,-1.36332,-0.913681
537,0,-2,-1,-3,0,0,-2,-1,0.984863,0.0981445,0.199707,3.5625,-5.1875,6.75,0.460999,-1.36332,-0.913681
537,-1,0,0,-1,0,-1,0,-1,0.984863,0.0981445,0.199707,3.5625,-5.1875,6.75,0.460999,-1.36332,-0.913681
538,-1,-1,-1,-1,-3,-2,-2,0,0.979492,0.0898438,0.193848,6.5625,-5.3125,8.875,0.45343,-1.3663,-0.903682
538,-2,-3,-1,-1,0,0,-1,-2,0.979492,0.0898438,0.193848,6.5625,-5.3125,8.875,0.45343,-1.3663,-0.903682
559,-1,-2,-3,0,0,1,-2,0,0.979492,0.0898438,0.193848,6.5625,-5.3125,8.875,0.45343,-1.3663,-0.903682
559,1,-1,-2,-2,-2,-1,-2,0,0.979492,0.0898438,0.193848,6.5625,-5.3125,8.875,0.45343,-1.3663,-0.903682
561,0,-2,-1,-1,1,-2,1,0,0.963379,0.0961914,0.198242,10.125,-5.1875,10.8125,0.444272,-1.36891,-0.890649
561,0,1,-1,1,-2,0,0,-1,0.963379,0.0961914,0.198242,10.125,-5.1875,10.8125,0.444272,-1.36891,-0.890649
573,-1,0,-2,-1,-2,1,-3,-1,0.963379,0.0961914,0.198242,10.125,-5.1875,10.8125,0.444272,-1.36891,-0.890649
573,-2,0,-4,0,0,1,1,-1,0.963379,0.0961914,0.198242,10.125,-5.1875,10.8125,0.444272,-1.36891,-0.890649
582,0,-1,1,-3,0,-2,-3,-1,0.939453,0.102051,0.195312,13.125,-5.3125,12.8125,0.434278,-1.37185,-0.875726
582,-2,-1,0,-2,1,-1,0,-1,0.939453,0.102051,0.195312,13.125,-5.3125,12.8125,0.434278,-1.37185,-0.875726
597,-1,-1,0,-1,-1,-1,-2,-2,0.939453,0.102051,0.195312,13.125,-5.3125,12.8125,0.434278,-1.37185,-0.875726
597,-2,-2,-2,-1,-2,-2,-1,-2,0.939453,0.102051,0.195312,13.125,-5.3125,12.8125,0.434278,-1.37185,-0.875726
598,-1,-1,0,0,-2,-2,0,-1,0.907227,0.10791,0.189941,14.3125,-5.25,14.3125,0.422391,-1.37438,-0.858357
598,0,-1,-3,1,0,-1,0,-1,0.907227,0.10791,0.189941,14.3125,-5.25,14.3125,0.422391,-1.37438,-0.858357
619,-1,0,-1,-1,-1,-2,1,-1,0.907227,0.10791,0.189941,14.3125,-5.25,14.3125,0.422391,-1.37438,-0.858357
619,0,1,-2,-1,2,-1,0,-1,0.907227,0.10791,0.189941,14.3125,-5.25,14.3125,0.422391,-1.37438,-0.858357
621,-1,-2,0,-2,0,-1,-1,-1,0.875488,0.0952148,0.197754,16.9375,-5.625,15.4375,0.408498,-1.37733,-0.838242
621,-1,0,0,1,-1,0,-1,0,0.875488,0.0952148,0.197754,16.9375,-5.625,15.4375,0.408498,-1.37733,-0.838242
633,-3,-4,-1,-2,-1,0,0,-1,0.875488,0.0952148,0.197754,16.9375,-5.625,15.4375,0.408498,-1.37733,-0.838242
633,0,-1,-1,-1,-2,0,-2,-1,0.875488,0.0952148,0.197754,16.9375,-5.625,15.4375,0.408498,-1.37733,-0.838242
642,0,-1,-5,-1,-1,-1,0,-1,0.861816,0.0810547,0.198242,20.125,-6.3125,15.375,0.394759,-1.38053,-0.817041
642,1,1,-2,-2,-1,-2,-4,-1,0.861816,0.0810547,0.198242,20.125,-6.3125,15.375,0.394759,-1.38053,-0.817041
655,0,-1,-1,-2,-1,-1,0,0,0.861816,0.0810547,0.198242,20.125,-6.3125,15.375,0.394759,-1.38053,-0.817041
655,-1,0,-1,-1,-2,1,-1,0,0.861816,0.0810547,0.198242,20.125,-6.3125,15.375,0.394759,-1.38053,-0.817041
664,-1,0,-1,1,0,-1,0,0,0.865234,0.0664062,0.213379,24.4375,-7.125,14.625,0.380903,-1.38327,-0.794345
664,-1,-2,-1,1,-1,0,-1,-1,0.865234,0.0664062,0.213379,24.4375,-7.125,14.625,0.380903,-1.38327,-0.794345
678,0,-2,0,0,0,-1,0,0,0.865234,0.0664062,0.213379,24.4375,-7.125,14.625,0.380903,-1.38327,-0.794345
678,-2,0,-1,-1,-2,-1,-3,-2,0.865234,0.0664062,0.213379,24.4375,-7.125,14.625,0.380903,-1.38327,-0.794345
686,-1,-2,-2,0,0,0,0,-1,0.886719,0.050293,0.217773,29.9375,-8.0625,12.6875,0.370515,-1.38628,-0.773382
686,-1,0,-1,1,-1,-1,-1,-2,0.886719,0.050293,0.217773,29.9375,-8.0625,12.6875,0.370515,-1.38628,-0.773382
692,-2,-1,-1,-2,-1,0,0,0,0.886719,0.050293,0.217773,29.9375,-8.0625,12.6875,0.370515,-1.38628,-0.773382
692,2,-1,1,-2,-1,0,-2,1,0.886719,0.050293,0.217773,29.9375,-8.0625,12.6875,0.370515,-1.38628,-0.773382
701,-3,-3,0,1,0,-1,-2,0,0.927246,0.046875,0.22168,32.9375,-8.375,10.75,0.36364,-1.38883,-0.754704
701,-1,-2,-1,-2,-2,-3,-1,0,0.927246,0.046875,0.22168,32.9375,-8.375,10.75,0.36364,-1.38883,-0.754704
716,-1,1,-2,0,0,0,-1,-3,0.927246,0.046875,0.22168,32.9375,-8.375,10.75,0.36364,-1.38883,-0.754704
716,2,-1,0,-2,-1,-1,-2,-1,0.927246,0.046875,0.22168,32.9375,-8.375,10.75,0.36364,-1.38883,-0.754704
718,-2,2,-2,-1,-1,-2,-1,-2,0.976562,0.0517578,0.220215,35,-8.0625,9,0.361256,-1.39149,-0.74002
718,0,1,-2,-2,-1,0,0,-1,0.976562,0.0517578,0.220215,35,-8.0625,9,0.361256,-1.39149,-0.74002
739,-1,2,0,-1,-2,-1,-1,0,0.976562,0.0517578,0.220215,35,-8.0625,9,0.361256,-1.39149,-0.74002
739,-2,-4,-2,0,-3,-1,0,-2,0.976562,0.0517578,0.220215,35,-8.0625,9,0.361256,-1.39149,-0.74002
741,0,-2,0,0,-2,-1,0,-1,1.01123,0.0478516,0.227051,35.5625,-7.25,6.8125,0.361313,-1.39365,-0.727653
741,-1,-1,0,0,0,-1,-1,-1,1.01123,0.0478516,0.227051,35.5625,-7.25,6.8125,0.361313,-1.39365,-0.727653
753,0,-3,0,-1,-1,-2,-1,0,1.01123,0.0478516,0.227051,35.5625,-7.25,6.8125,0.361313,-1.39365,-0.727653
753,-1,-1,2,0,1,-2,-1,0,1.01123,0.0478516,0.227051,35.5625,-7.25,6.8125,0.361313,-1.39365,-0.727653
761,0,0,0,-2,-1,0,0,-1,1.0498,0.0585938,0.215332,32.4375,-5.3125,4.6875,0.36435,-1.39507,-0.719308
761,-1,2,1,-1,-3,0,-1,-2,1.0498,0.0585938,0.215332,32.4375,-5.3125,4.6875,0.36435,-1.39507,-0.719308
776,-1,1,-1,0,0,-1,-2,-2,1.0498,0.0585938,0.215332,32.4375,-5.3125,4.6875,0.36435,-1.39507,-0.719308
776,-1,-1,-2,-1,-1,-1,-1,1,1.0498,0.0585938,0.215332,32.4375,-5.3125,4.6875,0.36435,-1.39507,-0.719308
782,-2,1,0,-2,-2,0,-1,-1,1.05566,0.078125,0.200684,25.6875,-2.5,4.3125,0.367214,-1.39579,-0.713104
782,-1,-1,-1,-2,0,0,1,-1,1.05566,0.078125,0.200684,25.6875,-2.5,4.3125,0.367214,-1.39579,-0.713104
799,0,0,0,-1,-1,0,-1,-2,1.05566,0.078125,0.200684,25.6875,-2.5,4.3125,0.367214,-1.39579,-0.713104
799,-3,-3,-2,-2,1,0,-1,-3,1.05566,0.078125,0.200684,25.6875,-2.5,4.3125,0.367214,-1.39579,-0.713104
800,0,1,-2,-2,-2,-1,-1,0,1.04883,0.0800781,0.211914,19,-0.0625,4.6875,0.364959,-1.39493,-0.703974
800,-1,0,-1,-1,0,-2,-1,1,1.04883,0.0800781,0.211914,19,-0.0625,4.6875,0.364959,-1.39493,-0.703974
813,0,0,2,0,-2,-1,0,0,1.04883,0.0800781,0.211914,19,-0.0625,4.6875,0.364959,-1.39493,-0.703974
813,0,0,0,0,-3,-1,0,-2,1.04883,0.0800781,0.211914,19,-0.0625,4.6875,0.364959,-1.39493,-0.703974
822,-2,1,-2,0,0,-2,-3,0,1.03711,0.0522461,0.218262,15.9375,1.75,5.3125,0.355559,-1.3945,-0.688977
822,1,-3,0,-1,-1,-1,-2,-1,1.03711,0.0522461,0.218262,15.9375,1.75,5.3125,0.355559,-1.3945,-0.688977
836,-1,-1,-1,-1,0,0,-1,-1,1.03711,0.0522461,0.218262,15.9375,1.75,5.3125,0.355559,-1.3945,-0.688977
836,-1,-2,0,-2,2,-3,-2,-2,1.03711,0.0522461,0.218262,15.9375,1.75,5.3125,0.355559,-1.3945,-0.688977
843,-1,0,-1,-2,-1,-1,0,-3,1.01562,0.0400391,0.22998,18.1875,3.25,6.5,0.342498,-1.39306,-0.669348
843,-2,-1,-1,0,-2,-2,-2,-1,1.01562,0.0400391,0.22998,18.1875,3.25,6.5,0.342498,-1.39306,-0.669348
859,-1,-2,0,-1,-1,-2,-1,-1,1.01562,0.0400391,0.22998,18.1875,3.25,6.5,0.342498,-1.39306,-0.669348
859,-2,-2,-2,-1,-3,1,-1,-2,1.01562,0.0400391,0.22998,18.1875,3.25,6.5,0.342498,-1.39306,-0.669348
861,1,-2,-1,-2,-2,-1,-1,-1,0.991699,0.0361328,0.248047,25.4375,4.125,7.6875,0.327959,-1.3907,-0.645731
861,-2,0,0,-1,-2,0,-2,-2,0.991699,0.0361328,0.248047,25.4375,4.125,7.6875,0.327959,-1.3907,-0.645731
872,-1,-1,-3,-1,-1,-3,-2,-2,0.991699,0.0361328,0.248047,25.4375,4.125,7.6875,0.327959,-1.3907,-0.645731
872,-2,-1,0,-1,-1,-2,-2,-2,0.991699,0.0361328,0.248047,25.4375,4.125,7.6875,0.327959,-1.3907,-0.645731
882,0,-4,-3,0,0,0,0,-1,0.964844,0.034668,0.260742,33,3.875,8.75,0.314713,-1.38863,-0.620789
882,-4,-2,-1,-1,-1,-1,0,-1,0.964844,0.034668,0.260742,33,3.875,8.75,0.314713,-1.38863,-0.620789
896,0,-2,0,1,1,0,0,1,0.964844,0.034668,0.260742,33,3.875,8.75,0.314713,-1.38863,-0.620789
896,-1,0,0,-1,-2,-2,-1,-1,0.964844,0.034668,0.260742,33,3.875,8.75,0.314713,-1.38863,-0.620789
903,-2,-3,0,0,-2,1,0,-1,0.941406,0.0385742,0.253418,36.5,3.25,9.25,0.303582,-1.38601,-0.596476
903,0,1,-2,-1,-1,0,-3,-1,0.941406,0.0385742,0.253418,36.5,3.25,9.25,0.303582,-1.38601,-0.596476
919,1,1,0,-1,0,-3,-1,-1,0.941406,0.0385742,0.253418,36.5,3.25,9.25,0.303582,-1.38601,-0.596476
919,-3,-1,-1,0,0,-3,-1,0,0.941406,0.0385742,0.253418,36.5,3.25,9.25,0.303582,-1.38601,-0.596476
921,0,0,0,-1,-1,-1,-1,-1,0.922363,0.0385742,0.256836,39.6875,2.125,9.8125,0.293796,-1.38464,-0.572797
921,2,-1,-2,-1,-2,-2,3,1,0.922363,0.0385742,0.256836,39.6875,2.125,9.8125,0.293796,-1.38464,-0.572797
942,-2,0,-1,-2,-1,-1,0,-1,0.922363,0.0385742,0.256836,39.6875,2.125,9.8125,0.293796,-1.38464,-0.572797
942,-1,0,0,0,-1,-1,0,0,0.922363,0.0385742,0.256836,39.6875,2.125,9.8125,0.293796,-1.38464,-0.572797
944,-2,1,0,0,-2,-2,-2,-1,0.918457,0.0322266,0.258301,42.5625,1.1875,9.3125,0.286255,-1.38362,-0.550234
944,-3,-2,0,0,0,-2,-2,-1,0.918457,0.0322266,0.258301,42.5625,1.1875,9.3125,0.286255,-1.38362,-0.550234
956,-1,-2,-3,0,-2,-2,-2,-1,0.918457,0.0322266,0.258301,42.5625,1.1875,9.3125,0.286255,-1.38362,-0.550234
956,-1,-1,-1,-1,-1,-3,0,0,0.918457,0.0322266,0.258301,42.5625,1.1875,9.3125,0.286255,-1.38362,-0.550234
963,-1,-3,0,-1,-1,0,-1,0,0.924805,0.0185547,0.260254,46.125,0.5625,8.625,0.279425,-1.38213,-0.527103
963,1,-2,0,-1,2,-2,-1,-2,0.924805,0.0185547,0.260254,46.125,0.5625,8.625,0.279425,-1.38213,-0.527103
980,-3,-2,-3,1,-1,1,0,-2,0.924805,0.0185547,0.260254,46.125,0.5625,8.625,0.279425,-1.38213,-0.527103
980,0,1,-3,-1,1,0,-2,-2,0.924805,0.0185547,0.260254,46.125,0.5625,8.625,0.279425,-1.38213,-0.527103
981,-1,1,-1,-2,-1,0,-2,-1,0.927246,0.0136719,0.251465,51.0625,0.1875,7.25,0.276895,-1.38138,-0.506721
981,0,0,0,0,-1,-1,-1,0,0.927246,0.0136719,0.251465,51.0625,0.1875,7.25,0.276895,-1.38138,-0.506721
1003,-3,2,-1,-3,0,-2,-2,0,0.927246,0.0136719,0.251465,51.0625,0.1875,7.25,0.276895,-1.38138,-0.506721
1003,-2,3,-1,-2,-1,-1,1,0,0.927246,0.0136719,0.251465,51.0625,0.1875,7.25,0.276895,-1.38138,-0.506721
1004,-3,-1,-1,-2,0,0,0,-2,0.924805,0.0288086,0.255859,54.625,0.5,6.875,0.278021,-1.37959,-0.488508
1004,-1,-4,-2,-3,-2,1,-1,1,0.924805,0.0288086,0.255859,54.625,0.5,6.875,0.278021,-1.37959,-0.488508
1016,0,-3,-1,0,-1,-1,-2,-2,0.924805,0.0288086,0.255859,54.625,0.5,6.875,0.278021,-1.37959,-0.488508
1016,-1,-5,-1,-1,-1,-1,-1,-1,0.924805,0.0288086,0.255859,54.625,0.5,6.875,0.278021,-1.37959,-0.488508
1023,-1,-3,-2,0,0,-3,-3,-1,0.931152,0.0327148,0.253418,56.125,0.5,6.4375,0.281188,-1.37863,-0.471934
1023,-1,0,-2,-1,-1,-1,1,0,0.931152,0.0327148,0.253418,56.125,0.5,6.4375,0.281188,-1.37863,-0.471934
1039,-1,0,-1,0,0,-2,0,0,0.931152,0.0327148,0.253418,56.125,0.5,6.4375,0.281188,-1.37863,-0.471934
1039,-1,0,-1,-1,1,1,-1,-1,0.931152,0.0327148,0.253418,56.125,0.5,6.4375,0.281188,-1.37863,-0.471934
1040,1,-1,-1,0,-1,-1,0,-1,0.931152,0.0400391,0.246582,55.3125,1.4375,5.4375,0.286298,-1.37687,-0.457603
1040,1,-2,-3,0,-1,-1,-2,-1,0.931152,0.0400391,0.246582,55.3125,1.4375,5.4375,0.286298,-1.37687,-0.457603
1062,0,-2,0,-2,-1,-1,-1,-2,0.931152,0.0400391,0.246582,55.3125,1.4375,5.4375,0.286298,-1.37687,-0.457603
1062,-1,-1,1,-1,0,-2,0,-1,0.931152,0.0400391,0.246582,55.3125,1.4375,5.4375,0.286298,-1.37687,-0.457603
1063,-1,-2,1,-2,0,-1,-1,-1,0.933594,0.0322266,0.247559,54,1.8125,5,0.290616,-1.3753,-0.442978
1063,-2,1,-2,1,-1,0,-1,-1,0.933594,0.0322266,0.247559,54,1.8125,5,0.290616,-1.3753,-0.442978
1075,1,0,0,-1,-1,0,0,0,0.933594,0.0322266,0.247559,54,1.8125,5,0.290616,-1.3753,-0.442978
1075,2,0,1,-1,-1,0,-1,0,0.933594,0.0322266,0.247559,54,1.8125,5,0.290616,-1.3753,-0.442978
1084,-3,-2,-2,-1,-1,0,-2,-2,0.936523,0.027832,0.251465,54.5625,2.1875,4.5,0.294812,-1.37362,-0.428072
1084,-1,0,1,-2,-2,-2,-1,-1,0.936523,0.027832,0.251465,54.5625,2.1875,4.5,0.294812,-1.37362,-0.428072
1098,2,1,0,-2,0,0,0,-2,0.936523,0.027832,0.251465,54.5625,2.1875,4.5,0.294812,-1.37362,-0.428072
1098,0,2,-3,-1,0,0,-3,0,0.936523,0.027832,0.251465,54.5625,2.1875,4.5,0.294812,-1.37362,-0.428072
1114,-2,3,-1,1,-1,-1,-3,-1,0.94043,0.0117188,0.255371,57.5625,2.1875,4.0625,0.299384,-1.37183,-0.412561
1114,-1,-3,-1,0,-1,0,-3,-1,0.94043,0.0117188,0.255371,57.5625,2.1875,4.0625,0.299384,-1.37183,-0.412561
1121,-2,-2,-2,0,-3,-2,0,-2,0.94043,0.0117188,0.255371,57.5625,2.1875,4.0625,0.299384,-1.37183,-0.412561
1121,-1,-1,-2,1,-1,-1,-2,-2,0.94043,0.0117188,0.255371,57.5625,2.1875,4.0625,0.299384,-1.37183,-0.412561
1123,0,1,-2,-2,-2,-1,0,0,0.946777,0.0107422,0.249023,59.5,2.0625,2.75,0.306292,-1.37004,-0.398702
1123,-1,1,-1,-1,-1,-2,1,1,0.946777,0.0107422,0.249023,59.5,2.0625,2.75,0.306292,-1.37004,-0.398702
1144,-1,0,0,-1,1,-1,0,-1,0.946777,0.0107422,0.249023,59.5,2.0625,2.75,0.306292,-1.37004,-0.398702
1144,-1,-3,0,1,0,1,0,-2,0.946777,0.0107422,0.249023,59.5,2.0625,2.75,0.306292,-1.37004,-0.398702
1145,2,-1,-1,-2,1,-1,0,-1,0.946777,0.0166016,0.242676,59.375,1.625,1.75,0.315847,-1.36857,-0.387597
1145,2,0,-2,-2,-2,-1,-2,-1,0.946777,0.0166016,0.242676,59.375,1.625,1.75,0.315847,-1.36857,-0.387597
1158,-1,1,-1,-3,-1,-2,-1,0,0.946777,0.0166016,0.242676,59.375,1.625,1.75,0.315847,-1.36857,-0.387597
1158,0,0,0,-2,-1,1,-1,-1,0.946777,0.0166016,0.242676,59.375,1.625,1.75,0.315847,-1.36857,-0.387597
1167,1,-2,1,-1,0,0,0,-1,0.955078,0.00830078,0.23584,58.875,0.875,-0.3125,0.327641,-1.36799,-0.379016
1167,1,-1,1,0,0,0,-1,0,0.955078,0.00830078,0.23584,58.875,0.875,-0.3125,0.327641,-1.36799,-0.379016
1182,-2,-4,-2,-2,-3,0,-1,-1,0.955078,0.00830078,0.23584,58.875,0.875,-0.3125,0.327641,-1.36799,-0.379016
1182,0,-2,-1,0,-3,-2,-1,-1,0.955078,0.00830078,0.23584,58.875,0.875,-0.3125,0.327641,-1.36799,-0.379016
1183,-2,-1,2,-1,0,-1,-1,-2,0.969727,0.015625,0.223633,56.75,0.75,-3,0.344598,-1.36677,-0.376354
1183,-1,-1,-3,-1,-1,0,-1,-1,0.969727,0.015625,0.223633,56.75,0.75,-3,0.344598,-1.36677,-0.376354
1204,-1,0,0,-2,-1,1,0,1,0.969727,0.015625,0.223633,56.75,0.75,-3,0.344598,-1.36677,-0.376354
1204,-1,-1,-3,-2,0,-2,-1,0,0.969727,0.015625,0.223633,56.75,0.75,-3,0.344598,-1.36677,-0.376354
1206,1,-1,-2,-1,-3,-2,0,1,0.964355,0.012207,0.207031,54.375,0.5,-5.125,0.363881,-1.3662,-0.376985
1206,-4,-1,0,1,0,-1,-3,-2,0.964355,0.012207,0.207031,54.375,0.5,-5.125,0.363881,-1.3662,-0.376985
1218,-2,1,-2,0,-2,1,-2,-2,0.964355,0.012207,0.207031,54.375,0.5,-5.125,0.363881,-1.3662,-0.376985
1218,0,0,-1,-1,-1,-1,-1,0,0.964355,0.012207,0.207031,54.375,0.5,-5.125,0.363881,-1.3662,-0.376985
1227,-3,-1,-3,0,-1,0,-1,0,0.97168,0.00488281,0.194336,52.375,0.375,-8.1875,0.386035,-1.36529,-0.381263
1227,-3,-1,-1,-1,0,-1,-2,0,0.97168,0.00488281,0.194336,52.375,0.375,-8.1875,0.386035,-1.36529,-0.381263
1241,-1,0,1,1,0,0,0,-1,0.97168,0.00488281,0.194336,52.375,0.375,-8.1875,0.386035,-1.36529,-0.381263
1241,-2,-2,0,0,0,-1,-1,-1,0.97168,0.00488281,0.194336,52.375,0.375,-8.1875,0.386035,-1.36529,-0.381263
1248,2,1,-2,-3,-1,0,1,-2,0.994629,0.0136719,0.171875,52.125,1.125,-11.625,0.414885,-1.36456,-0.392408
1248,-2,-2,-2,-2,-2,1,1,-2,0.994629,0.0136719,0.171875,52.125,1.125,-11.625,0.414885,-1.36456,-0.392408
1272,-2,-5,0,0,0,-1,-3,-2,0.994629,0.0136719,0.171875,52.125,1.125,-11.625,0.414885,-1.36456,-0.392408
1272,-1,0,-2,-3,-2,-3,-3,-3,0.994629,0.0136719,0.171875,52.125,1.125,-11.625,0.414885,-1.36456,-0.392408
1273,2,3,-1,-1,-3,-2,1,0,1.06689,0.0410156,0.162598,49.8125,1.625,-16.625,0.45175,-1.36301,-0.412524
1273,0,2,-2,-3,-2,-1,0,0,1.06689,0.0410156,0.162598,49.8125,1.625,-16.625,0.45175,-1.36301,-0.412524
1277,0,2,-4,-1,0,-2,-1,-1,1.06689,0.0410156,0.162598,49.8125,1.625,-16.625,0.45175,-1.36301,-0.412524
1277,2,2,0,0,-1,0,0,0,1.06689,0.0410156,0.162598,49.8125,1.625,-16.625,0.45175,-1.36301,-0.412524
1287,-3,-2,-1,-1,-1,-2,-1,0,1.17432,0.0449219,0.164551,47.5,0.8125,-20.125,0.492498,-1.36153,-0.437379
1287,0,-1,3,-2,0,-2,-1,0,1.17432,0.0449219,0.164551,47.5,0.8125,-20.125,0.492498,-1.36153,-0.437379
1301,-1,-4,1,0,-2,-2,-4,0,1.17432,0.0449219,0.164551,47.5,0.8125,-20.125,0.492498,-1.36153,-0.437379
1301,-2,-1,-2,0,-1,-1,1,-1,1.17432,0.0449219,0.164551,47.5,0.8125,-20.125,0.492498,-1.36153,-0.437379
1308,-1,-1,0,0,-1,-2,-2,-1,1.19287,0.0761719,0.117188,40.1875,0.25,-20.6875,0.536322,-1.36063,-0.467834
1308,1,0,-2,-2,-1,0,0,-2,1.19287,0.0761719,0.117188,40.1875,0.25,-20.6875,0.536322,-1.36063,-0.467834
1324,-1,1,-1,-2,-2,1,-1,0,1.19287,0.0761719,0.117188,40.1875,0.25,-20.6875,0.536322,-1.36063,-0.467834
1324,-1,-2,-2,-1,0,-1,2,-1,1.19287,0.0761719,0.117188,40.1875,0.25,-20.6875,0.536322,-1.36063,-0.467834
1326,-2,-1,1,0,0,-1,0,-1,1.07129,0.150879,0.0737305,30,1.5625,-17.3125,0.579245,-1.35915,-0.500584
1326,-2,-2,-1,3,-2,-1,-2,-3,1.07129,0.150879,0.0737305,30,1.5625,-17.3125,0.579245,-1.35915,-0.500584
1338,-2,-2,-2,0,-1,-1,-1,-1,1.07129,0.150879,0.0737305,30,1.5625,-17.3125,0.579245,-1.35915,-0.500584
1338,0,-3,-3,0,-2,0,0,-1,1.07129,0.150879,0.0737305,30,1.5625,-17.3125,0.579245,-1.35915,-0.500584
1347,-3,-4,-2,-1,-2,1,-1,-2,0.952148,0.187988,0.0288086,15.8125,3.5,-15.5,0.618137,-1.35703,-0.533984
1347,-2,-1,1,0,-2,-1,-1,-1,0.952148,0.187988,0.0288086,15.8125,3.5,-15.5,0.618137,-1.35703,-0.533984
1361,0,-1,-2,-1,1,-1,0,-2,0.952148,0.187988,0.0288086,15.8125,3.5,-15.5,0.618137,-1.35703,-0.533984
1361,-2,0,-1,-2,0,-1,-2,0,0.952148,0.187988,0.0288086,15.8125,3.5,-15.5,0.618137,-1.35703,-0.533984
1368,1,0,-4,-2,0,-1,-1,1,0.908691,0.17334,0.0170898,5.3125,5.8125,-15.8125,0.648886,-1.35389,-0.562904
1368,-2,8,-1,-1,-1,-2,1,1,0.908691,0.17334,0.0170898,5.3125,5.8125,-15.8125,0.648886,-1.35389,-0.562904
1385,-4,-12,-1,-1,-1,0,1,0,0.908691,0.17334,0.0170898,5.3125,5.8125,-15.8125,0.648886,-1.35389,-0.562904
1385,0,-1,2,-1,-3,-2,0,0,0.908691,0.17334,0.0170898,5.3125,5.8125,-15.8125,0.648886,-1.35389,-0.562904
1386,-2,-6,-1,-1,0,-1,-2,-1,0.916016,0.128418,0.0288086,2.0625,7.625,-17.4375,0.673415,-1.35074,-0.586884
1386,3,-4,-2,-1,1,-2,-1,-1,0.916016,0.128418,0.0288086,2.0625,7.625,-17.4375,0.673415,-1.35074,-0.586884
1398,1,6,0,0,-1,-3,-1,1,0.916016,0.128418,0.0288086,2.0625,7.625,-17.4375,0.673415,-1.35074,-0.586884
1398,-6,-4,-5,-1,-2,-2,-1,-1,0.916016,0.128418,0.0288086,2.0625,7.625,-17.4375,0.673415,-1.35074,-0.586884
1406,-3,4,-2,-1,-2,-1,-2,0,0.925781,0.0917969,0.0219727,8.8125,10.75,-18.375,0.693931,-1.34676,-0.604355
1406,-1,2,-1,1,-1,-1,0,-1,0.925781,0.0917969,0.0219727,8.8125,10.75,-18.375,0.693931,-1.34676,-0.604355
1421,0,1,-1,0,-1,-1,-2,-1,0.925781,0.0917969,0.0219727,8.8125,10.75,-18.375,0.693931,-1.34676,-0.604355
1421,0,2,-1,-1,-2,-1,-2,-2,0.925781,0.0917969,0.0219727,8.8125,10.75,-18.375,0.693931,-1.34676,-0.604355
1428,-3,-6,0,-4,-3,-1,-2,-2,0.879883,0.127441,0.00341797,22.875,14.1875,-17.625,0.718631,-1.34215,-0.620922
1428,-2,-3,-2,-3,0,1,-1,1,0.879883,0.127441,0.00341797,22.875,14.1875,-17.625,0.718631,-1.34215,-0.620922
1444,1,1,1,-1,0,-2,-1,1,0.879883,0.127441,0.00341797,22.875,14.1875,-17.625,0.718631,-1.34215,-0.620922
1444,2,-3,1,1,1,0,-2,0,0.879883,0.127441,0.00341797,22.875,14.1875,-17.625,0.718631,-1.34215,-0.620922
1446,-3,-3,-1,-1,0,-1,0,-2,0.82666,0.197266,-0.00830078,27.3125,15.8125,-17.4375,0.747524,-1.33549,-0.639956
1446,3,-2,0,0,0,-1,-1,-1,0.82666,0.197266,-0.00830078,27.3125,15.8125,-17.4375,0.747524,-1.33549,-0.639956
1466,-7,-5,-4,-2,-2,-2,-1,-3,0.82666,0.197266,-0.00830078,27.3125,15.8125,-17.4375,0.747524,-1.33549,-0.639956
1466,-1,2,-1,-2,-1,-1,-1,-1,0.82666,0.197266,-0.00830078,27.3125,15.8125,-17.4375,0.747524,-1.33549,-0.639956
1467,-1,0,-1,-2,0,-1,1,-2,0.793457,0.262695,-0.00292969,18.75,15.75,-16.0625,0.774795,-1.32793,-0.660216
1467,-1,-2,2,-3,-3,0,7,-1,0.793457,0.262695,-0.00292969,18.75,15.75,-16.0625,0.774795,-1.32793,-0.660216
1481,-3,3,1,0,0,-1,-6,-1,0.793457,0.262695,-0.00292969,18.75,15.75,-16.0625,0.774795,-1.32793,-0.660216
1481,1,-4,1,-2,-1,-1,-1,-1,0.793457,0.262695,-0.00292969,18.75,15.75,-16.0625,0.774795,-1.32793,-0.660216
1488,-1,-1,-2,1,1,1,-3,2,0.806152,0.264648,0.0229492,8.875,13.625,-13.25,0.793819,-1.32126,-0.675627
1488,-2,-2,-1,0,2,0,0,-1,0.806152,0.264648,0.0229492,8.875,13.625,-13.25,0.793819,-1.32126,-0.675627
1504,1,0,-1,-1,-2,-1,1,0,0.806152,0.264648,0.0229492,8.875,13.625,-13.25,0.793819,-1.32126,-0.675627
1504,1,2,-2,1,-1,-1,0,0,0.806152,0.264648,0.0229492,8.875,13.625,-13.25,0.793819,-1.32126,-0.675627
1505,0,-1,0,-1,0,-2,0,-1,0.859863,0.26123,0.0610352,4.875,10.6875,-10.875,0.808798,-1.31595,-0.688463
1505,-4,1,-2,-2,-2,0,-2,0,0.859863,0.26123,0.0610352,4.875,10.6875,-10.875,0.808798,-1.31595,-0.688463
1527,3,1,-1,-2,0,-2,0,0,0.859863,0.26123,0.0610352,4.875,10.6875,-10.875,0.808798,-1.31595,-0.688463
1527,-7,-3,-2,-1,-2,-1,-3,-2,0.859863,0.26123,0.0610352,4.875,10.6875,-10.875,0.808798,-1.31595,-0.688463
1528,2,0,-2,-2,-3,-2,1,-1,0.915527,0.268555,0.0751953,3.125,9,-8.5,0.821478,-1.31176,-0.699522
1528,4,2,-1,0,-3,-3,-2,0,0.915527,0.268555,0.0751953,3.125,9,-8.5,0.821478,-1.31176,-0.699522
1542,1,1,0,-1,-1,0,0,-2,0.915527,0.268555,0.0751953,3.125,9,-8.5,0.821478,-1.31176,-0.699522
1542,-6,-2,-2,-2,-1,-2,1,-4,0.915527,0.268555,0.0751953,3.125,9,-8.5,0.821478,-1.31176,-0.699522
1548,1,10,1,-1,1,0,-1,1,0.948242,0.272949,0.0639648,0.1875,8.625,-6.25,0.831796,-1.30813,-0.709297
1548,-7,-27,-2,1,0,-1,-3,-3,0.948242,0.272949,0.0639648,0.1875,8.625,-6.25,0.831796,-1.30813,-0.709297
1563,-3,-3,-2,-2,-2,-1,-1,-2,0.948242,0.272949,0.0639648,0.1875,8.625,-6.25,0.831796,-1.30813,-0.709297
1563,3,-1,0,0,-1,0,-2,1,0.948242,0.272949,0.0639648,0.1875,8.625,-6.25,0.831796,-1.30813,-0.709297
1571,-2,0,0,0,-1,-1,-3,-1,0.916016,0.257324,0.0541992,2.75,9,-1.9375,0.838139,-1.30584,-0.713981
1571,2,6,0,-1,-1,-1,-3,0,0.916016,0.257324,0.0541992,2.75,9,-1.9375,0.838139,-1.30584,-0.713981
1587,-1,1,1,1,0,-2,-1,-3,0.916016,0.257324,0.0541992,2.75,9,-1.9375,0.838139,-1.30584,-0.713981
1587,1,-1,1,-3,-2,-2,-1,1,0.916016,0.257324,0.0541992,2.75,9,-1.9375,0.838139,-1.30584,-0.713981
1588,-2,-8,-3,0,1,-1,-3,-1,0.848145,0.228516,0.0546875,7.8125,8.625,0.6875,0.842477,-1.30476,-0.7149
1588,1,1,0,-2,0,0,1,-1,0.848145,0.228516,0.0546875,7.8125,8.625,0.6875,0.842477,-1.30476,-0.7149
1600,0,-7,-2,-1,2,-2,-1,-3,0.848145,0.228516,0.0546875,7.8125,8.625,0.6875,0.842477,-1.30476,-0.7149
1600,-2,5,-1,-2,-1,-1,0,-1,0.848145,0.228516,0.0546875,7.8125,8.625,0.6875,0.842477,-1.30476,-0.7149
1609,3,0,-2,1,-2,-2,0,-1,0.779297,0.211426,0.0390625,18.4375,8.3125,3.1875,0.848254,-1.30431,-0.713422
1609,-9,-3,-4,-1,-2,-2,0,-4,0.779297,0.211426,0.0390625,18.4375,8.3125,3.1875,0.848254,-1.30431,-0.713422
1624,-2,-2,-3,-3,-2,-1,-9,3,0.779297,0.211426,0.0390625,18.4375,8.3125,3.1875,0.848254,-1.30431,-0.713422
1624,2,-1,0,-1,-2,0,10,-2,0.779297,0.211426,0.0390625,18.4375,8.3125,3.1875,0.848254,-1.30431,-0.713422
1625,1,-3,-1,1,0,-1,-8,-1,0.719238,0.228516,0.0405273,27,8.125,4.5,0.857077,-1.30374,-0.71202
1625,-6,-1,-1,-1,0,0,-3,-1,0.719238,0.228516,0.0405273,27,8.125,4.5,0.857077,-1.30374,-0.71202
1647,0,2,1,-1,-2,-3,-1,-1,0.719238,0.228516,0.0405273,27,8.125,4.5,0.857077,-1.30374,-0.71202
1647,-1,-2,-4,1,-3,-1,4,0,0.719238,0.228516,0.0405273,27,8.125,4.5,0.857077,-1.30374,-0.71202
1648,0,-1,0,-1,-2,-3,2,1,0.699219,0.25,0.0498047,26.9375,8,5.5625,0.865732,-1.30248,-0.710457
1648,4,4,2,0,-1,0,-3,-1,0.699219,0.25,0.0498047,26.9375,8,5.5625,0.865732,-1.30248,-0.710457
1660,1,2,-1,-2,0,2,3,0,0.699219,0.25,0.0498047,26.9375,8,5.5625,0.865732,-1.30248,-0.710457
1660,-1,18,1,-2,0,0,-4,-1,0.699219,0.25,0.0498047,26.9375,8,5.5625,0.865732,-1.30248,-0.710457
1669,-2,-41,-6,-4,-1,1,1,-3,0.694336,0.243164,0.0566406,25.5,7.375,6.75,0.871976,-1.30184,-0.70691
1669,2,2,-2,1,-3,0,-2,1,0.694336,0.243164,0.0566406,25.5,7.375,6.75,0.871976,-1.30184,-0.70691
1684,1,1,0,0,-3,1,0,-1,0.694336,0.243164,0.0566406,25.5,7.375,6.75,0.871976,-1.30184,-0.70691
1684,-2,1,-3,2,0,-2,-5,0,0.694336,0.243164,0.0566406,25.5,7.375,6.75,0.871976,-1.30184,-0.70691
1686,-1,13,0,-3,-1,-2,-3,-3,0.72168,0.213867,0.0698242,28.1875,5.4375,8.5625,0.876821,-1.30235,-0.701217
1686,-1,1,-1,0,0,-2,3,-1,0.72168,0.213867,0.0698242,28.1875,5.4375,8.5625,0.876821,-1.30235,-0.701217
1706,6,0,0,-1,-1,-3,0,-2,0.72168,0.213867,0.0698242,28.1875,5.4375,8.5625,0.876821,-1.30235,-0.701217
1706,-1,-9,-1,0,0,-1,-4,-1,0.72168,0.213867,0.0698242,28.1875,5.4375,8.5625,0.876821,-1.30235,-0.701217
1707,-3,3,-1,0,1,-3,1,-3,0.73584,0.213379,0.0532227,28.1875,4.75,9.5,0.883275,-1.30408,-0.696996
1707,1,-8,-1,-1,-1,1,-3,0,0.73584,0.213379,0.0532227,28.1875,4.75,9.5,0.883275,-1.30408,-0.696996
1721,-1,2,0,-1,-1,0,0,-2,0.73584,0.213379,0.0532227,28.1875,4.75,9.5,0.883275,-1.30408,-0.696996
1721,-6,-7,-1,0,-1,-1,-5,-3,0.73584,0.213379,0.0532227,28.1875,4.75,9.5,0.883275,-1.30408,-0.696996
1735,-1,8,-4,-1,1,1,0,1,0.737305,0.210449,0.0527344,25.4375,4.4375,12.0625,0.886312,-1.30643,-0.690352
1735,1,23,-1,-2,0,-2,0,-2,0.737305,0.210449,0.0527344,25.4375,4.4375,12.0625,0.886312,-1.30643,-0.690352
1744,1,22,1,1,-1,-1,-1,3,0.737305,0.210449,0.0527344,25.4375,4.4375,12.0625,0.886312,-1.30643,-0.690352
1744,-3,-15,-4,-2,1,0,-2,-1,0.737305,0.210449,0.0527344,25.4375,4.4375,12.0625,0.886312,-1.30643,-0.690352
1746,-2,0,0,-2,-3,-1,-1,0,0.736328,0.165039,0.0527344,26.375,3.3125,15.5625,0.885722,-1.31075,-0.679755
1746,2,-42,-3,-1,0,-2,-3,1,0.736328,0.165039,0.0527344,26.375,3.3125,15.5625,0.885722,-1.31075,-0.679755
1767,-4,-9,-2,0,-1,-2,0,-3,0.736328,0.165039,0.0527344,26.375,3.3125,15.5625,0.885722,-1.31075,-0.679755
1767,-1,-25,1,-1,-2,-2,-2,-3,0.736328,0.165039,0.0527344,26.375,3.3125,15.5625,0.885722,-1.31075,-0.679755
1768,1,-58,3,1,-2,0,-1,-2,0.76709,0.130371,0.059082,37.625,1.3125,19.0625,0.885017,-1.31723,-0.665193
1768,0,-42,0,-2,-2,-1,-1,0,0.76709,0.130371,0.059082,37.625,1.3125,19.0625,0.885017,-1.31723,-0.665193
1781,-3,-29,0,0,1,1,1,0,0.76709,0.130371,0.059082,37.625,1.3125,19.0625,0.885017,-1.31723,-0.665193
1781,0,8,0,0,0,0,2,1,0.76709,0.130371,0.059082,37.625,1.3125,19.0625,0.885017,-1.31723,-0.665193
1790,1,62,-2,-1,-3,0,0,1,0.821777,0.140137,0.0600586,46.4375,-0.375,19,0.889335,-1.32375,-0.652643
1790,1,11,-1,-2,-2,-1,0,0,0.821777,0.140137,0.0600586,46.4375,-0.375,19,0.889335,-1.32375,-0.652643
1805,-14,19,-6,-3,-3,0,-3,-3,0.821777,0.140137,0.0600586,46.4375,-0.375,19,0.889335,-1.32375,-0.652643
1805,7,26,2,1,1,-1,-1,-1,0.821777,0.140137,0.0600586,46.4375,-0.375,19,0.889335,-1.32375,-0.652643
1806,-2,-1,-8,0,-2,-2,-1,-2,0.910156,0.14209,0.0878906,45.125,-2.375,18.75,0.893004,-1.33077,-0.640028
1806,1,30,1,1,-1,1,-1,-2,0.910156,0.14209,0.0878906,45.125,-2.375,18.75,0.893004,-1.33077,-0.640028
1827,0,3,1,-3,-2,-1,2,-1,0.910156,0.14209,0.0878906,45.125,-2.375,18.75,0.893004,-1.33077,-0.640028
1827,8,19,2,-4,-2,2,10,1,0.910156,0.14209,0.0878906,45.125,-2.375,18.75,0.893004,-1.33077,-0.640028
1828,-9,6,-2,-3,-1,-1,-12,-7,1.0166,0.0966797,0.0878906,45.0625,-4.125,19,0.895071,-1.33915,-0.626143
1828,-6,18,1,2,0,-3,-2,-1,1.0166,0.0966797,0.0878906,45.0625,-4.125,19,0.895071,-1.33915,-0.626143
1850,4,-1,1,0,1,0,-7,2,1.0166,0.0966797,0.0878906,45.0625,-4.125,19,0.895071,-1.33915,-0.626143
1850,-6,-19,-5,1,0,-3,-2,-2,1.0166,0.0966797,0.0878906,45.0625,-4.125,19,0.895071,-1.33915,-0.626143
1851,3,57,4,-3,-1,-2,-9,-1,1.10742,0.0668945,0.0576172,46.9375,-3,17,0.899122,-1.34859,-0.613357
1851,-5,26,0,-2,-3,-1,14,-2,1.10742,0.0668945,0.0576172,46.9375,-3,17,0.899122,-1.34859,-0.613357
1864,1,-15,-3,0,-1,-1,-1,1,1.10742,0.0668945,0.0576172,46.9375,-3,17,0.899122,-1.34859,-0.613357
1864,-1,-11,-2,-2,-3,-1,-4,0,1.10742,0.0668945,0.0576172,46.9375,-3,17,0.899122,-1.34859,-0.613357
1866,-1,-26,-4,2,0,1,5,1,1.10889,0.0893555,0.027832,47.375,0.5,16.875,0.901761,-1.35657,-0.599052
1866,1,11,2,1,0,0,-6,-1,1.10889,0.0893555,0.027832,47.375,0.5,16.875,0.901761,-1.35657,-0.599052
1887,9,75,12,1,-1,0,1,-1,1.10889,0.0893555,0.027832,47.375,0.5,16.875,0.901761,-1.35657,-0.599052
1887,-11,-79,-11,-1,2,-1,-5,-3,1.10889,0.0893555,0.027832,47.375,0.5,16.875,0.901761,-1.35657,-0.599052
1889,0,-25,-10,-3,0,1,12,0,1.10986,0.112793,-0.00488281,37.75,2.0625,15.5,0.905914,-1.36423,-0.589298
1889,9,35,5,-3,-4,-3,-9,-1,1.10986,0.112793,-0.00488281,37.75,2.0625,15.5,0.905914,-1.36423,-0.589298
1901,-12,-63,-14,-7,-4,-4,3,-2,1.10986,0.112793,-0.00488281,37.75,2.0625,15.5,0.905914,-1.36423,-0.589298
1901,10,30,9,1,-2,0,-4,-1,1.10986,0.112793,-0.00488281,37.75,2.0625,15.5,0.905914,-1.36423,-0.589298
1909,2,-14,0,1,0,-1,-1,1,1.10352,0.0830078,0.0219727,29.9375,1.6875,16.4375,0.900516,-1.37161,-0.573004
1909,-1,-17,1,1,0,3,18,3,1.10352,0.0830078,0.0219727,29.9375,1.6875,16.4375,0.900516,-1.37161,-0.573004
1924,2,-12,-1,1,-1,-1,-24,-4,1.10352,0.0830078,0.0219727,29.9375,1.6875,16.4375,0.900516,-1.37161,-0.573004
1924,2,-16,2,-2,-2,-1,-1,3,1.10352,0.0830078,0.0219727,29.9375,1.6875,16.4375,0.900516,-1.37161,-0.573004
1926,1,-25,3,1,-1,-1,-3,-1,1.10596,0.0864258,-0.0141602,16.875,3.9375,14.125,0.893942,-1.37816,-0.560069
1926,3,12,4,1,0,-2,0,-1,1.10596,0.0864258,-0.0141602,16.875,3.9375,14.125,0.893942,-1.37816,-0.560069
1946,-9,11,-1,2,1,2,9,-3,1.10596,0.0864258,-0.0141602,16.875,3.9375,14.125,0.893942,-1.37816,-0.560069
1946,-5,-8,-20,-8,-3,-3,-7,0,1.10596,0.0864258,-0.0141602,16.875,3.9375,14.125,0.893942,-1.37816,-0.560069
1948,-2,40,10,1,-2,0,3,-1,1.10303,0.104004,0.00585938,14.6875,5,12.0625,0.885833,-1.38356,-0.546201
1948,5,-50,-17,-5,-1,0,-7,1,1.10303,0.104004,0.00585938,14.6875,5,12.0625,0.885833,-1.38356,-0.546201
1960,-17,-31,6,1,2,1,7,0,1.10303,0.104004,0.00585938,14.6875,5,12.0625,0.885833,-1.38356,-0.546201
1960,3,59,3,0,0,-1,1,-2,1.10303,0.104004,0.00585938,14.6875,5,12.0625,0.885833,-1.38356,-0.546201
1968,-5,17,-8,-3,-3,-1,-1,0,1.10303,0.0961914,0.0131836,10.25,6.125,11.5,0.874068,-1.38821,-0.530364
1968,-4,-18,-2,-2,-2,-3,-5,-2,1.10303,0.0961914,0.0131836,10.25,6.125,11.5,0.874068,-1.38821,-0.530364
1984,5,-10,-11,-7,-6,-4,-2,-3,1.10303,0.0961914,0.0131836,10.25,6.125,11.5,0.874068,-1.38821,-0.530364
1984,-4,-13,-1,0,-1,-3,0,-2,1.10303,0.0961914,0.0131836,10.25,6.125,11.5,0.874068,-1.38821,-0.530364
1986,6,11,3,2,2,0,-4,2,1.11035,0.0878906,0.0200195,9.5625,7.25,12.25,0.857331,-1.3923,-0.50985
1986,-6,-5,2,2,0,-1,-6,1,1.11035,0.0878906,0.0200195,9.5625,7.25,12.25,0.857331,-1.3923,-0.50985
2007,7,46,10,3,3,1,-5,0,1.11035,0.0878906,0.0200195,9.5625,7.25,12.25,0.857331,-1.3923,-0.50985
2007,-6,-18,-2,1,-1,-1,0,-3,1.11035,0.0878906,0.0200195,9.5625,7.25,12.25,0.857331,-1.3923,-0.50985
2009,-9,-105,-20,-3,-1,-1,-1,-5,1.08936,0.0864258,-0.0166016,10.75,9.5625,14.25,0.839062,-1.39771,-0.486942
2009,7,17,1,1,-3,-3,8,-1,1.08936,0.0864258,-0.0166016,10.75,9.5625,14.25,0.839062,-1.39771,-0.486942
2021,-1,1,1,0,-1,-1,-14,-3,1.08936,0.0864258,-0.0166016,10.75,9.5625,14.25,0.839062,-1.39771,-0.486942
2021,0,-10,0,0,0,2,7,0,1.08936,0.0864258,-0.0166016,10.75,9.5625,14.25,0.839062,-1.39771,-0.486942
2030,-1,31,15,-1,-1,-3,-9,3,1.05713,0.081543,-0.000488281,14.5625,9,14.75,0.818078,-1.40182,-0.460429
2030,-8,-38,-11,-4,-3,-2,-12,-4,1.05713,0.081543,-0.000488281,14.5625,9,14.75,0.818078,-1.40182,-0.460429
2044,2,-19,-5,-3,-1,-2,4,4,1.05713,0.081543,-0.000488281,14.5625,9,14.75,0.818078,-1.40182,-0.460429
2044,0,16,4,-3,-4,-1,14,-1,1.05713,0.081543,-0.000488281,14.5625,9,14.75,0.818078,-1.40182,-0.460429
2046,0,-13,-1,1,0,0,2,-1,1.0542,0.0820312,0.0224609,12.5,7.75,12.0625,0.800028,-1.40585,-0.437307
2046,-6,-17,-3,-1,0,1,3,0,1.0542,0.0820312,0.0224609,12.5,7.75,12.0625,0.800028,-1.40585,-0.437307
2075,-3,42,4,-2,-3,-2,2,-1,1.0542,0.0820312,0.0224609,12.5,7.75,12.0625,0.800028,-1.40585,-0.437307
2075,-10,-18,-3,-3,0,-2,-7,-3,1.0542,0.0820312,0.0224609,12.5,7.75,12.0625,0.800028,-1.40585,-0.437307
2076,5,8,2,0,0,0,2,1,1.04492,0.0966797,0.0102539,12.1875,8.3125,8.9375,0.788246,-1.4081,-0.420863
2076,1,14,3,4,-1,0,-5,-2,1.04492,0.0966797,0.0102539,12.1875,8.3125,8.9375,0.788246,-1.4081,-0.420863
2080,-4,12,6,2,-2,0,4,0,1.04492,0.0966797,0.0102539,12.1875,8.3125,8.9375,0.788246,-1.4081,-0.420863
2080,0,11,-15,-4,-2,-1,-7,0,1.04492,0.0966797,0.0102539,12.1875,8.3125,8.9375,0.788246,-1.4081,-0.420863
2089,0,18,6,-2,0,-1,-10,-1,1.04932,0.078125,0.00341797,14.1875,7.875,6.8125,0.778758,-1.41062,-0.406033
2089,-1,7,-4,-3,-1,-1,0,-1,1.04932,0.078125,0.00341797,14.1875,7.875,6.8125,0.778758,-1.41062,-0.406033
2103,4,-21,-4,1,-1,0,2,-1,1.04932,0.078125,0.00341797,14.1875,7.875,6.8125,0.778758,-1.41062,-0.406033
2103,-2,44,10,1,-1,-3,2,-1,1.04932,0.078125,0.00341797,14.1875,7.875,6.8125,0.778758,-1.41062,-0.406033
2111,-5,-8,-3,-2,-2,-16,-2,-4,1.0625,0.0888672,0.00488281,12.125,8.0625,4.875,0.77264,-1.41198,-0.395338
2111,3,5,-2,-1,0,-12,-3,0,1.0625,0.0888672,0.00488281,12.125,8.0625,4.875,0.77264,-1.41198,-0.395338
2126,2,0,-1,-1,-2,-3,1,1,1.0625,0.0888672,0.00488281,12.125,8.0625,4.875,0.77264,-1.41198,-0.395338
2126,-1,16,6,0,-1,2,-8,-3,1.0625,0.0888672,0.00488281,12.125,8.0625,4.875,0.77264,-1.41198,-0.395338
2128,0,-4,-6,0,-1,9,3,-1,1.04932,0.119629,0.0107422,2.0625,7,3.25,0.769338,-1.41315,-0.390928
2128,-12,21,1,-4,0,6,-5,-2,1.04932,0.119629,0.0107422,2.0625,7,3.25,0.769338,-1.41315,-0.390928
2140,-3,16,-7,-2,-3,3,0,0,1.04932,0.119629,0.0107422,2.0625,7,3.25,0.769338,-1.41315,-0.390928
2140,-6,-32,-1,1,1,4,-3,-1,1.04932,0.119629,0.0107422,2.0625,7,3.25,0.769338,-1.41315,-0.390928
2149,-6,-8,-3,0,-2,1,2,-1,1.05518,0.114258,0.00683594,-5.6875,5.5,2.375,0.767751,-1.4145,-0.390998
2149,-1,6,6,2,1,3,3,0,1.05518,0.114258,0.00683594,-5.6875,5.5,2.375,0.767751,-1.4145,-0.390998
2164,-1,-6,-1,-1,-3,0,-3,-1,1.05518,0.114258,0.00683594,-5.6875,5.5,2.375,0.767751,-1.4145,-0.390998
2164,13,8,14,-4,-1,-1,1,2,1.05518,0.114258,0.00683594,-5.6875,5.5,2.375,0.767751,-1.4145,-0.390998
2166,-6,2,9,5,1,-1,1,-1,1.06348,0.133301,0.0229492,-11.6875,4.125,-1.375,0.771779,-1.41441,-0.398839
2166,0,19,-27,-4,-2,0,-2,0,1.06348,0.133301,0.0229492,-11.6875,4.125,-1.375,0.771779,-1.41441,-0.398839
2187,-2,-63,-11,1,3,0,1,-2,1.06348,0.133301,0.0229492,-11.6875,4.125,-1.375,0.771779,-1.41441,-0.398839
2187,1,9,-4,-1,-3,-2,-2,-1,1.06348,0.133301,0.0229492,-11.6875,4.125,-1.375,0.771779,-1.41441,-0.398839
2188,5,17,14,-4,-3,-2,3,1,1.07617,0.143555,0.0371094,-9.875,-0.9375,-3.5,0.786861,-1.41443,-0.417464
2188,-14,-18,17,2,-1,-2,-6,-6,1.07617,0.143555,0.0371094,-9.875,-0.9375,-3.5,0.786861,-1.41443,-0.417464
2201,6,2,-7,-1,0,1,1,1,1.07617,0.143555,0.0371094,-9.875,-0.9375,-3.5,0.786861,-1.41443,-0.417464
2201,5,20,10,1,0,-2,-2,1,1.07617,0.143555,0.0371094,-9.875,-0.9375,-3.5,0.786861,-1.41443,-0.417464
2210,-4,-10,10,2,1,1,-2,-2,1.10938,0.0986328,0.0141602,-12.5,-0.75,-6.8125,0.803552,-1.41527,-0.43844
2210,4,-5,-29,-3,0,0,0,3,1.10938,0.0986328,0.0141602,-12.5,-0.75,-6.8125,0.803552,-1.41527,-0.43844
2224,0,8,-17,-4,-3,-2,1,-1,1.10938,0.0986328,0.0141602,-12.5,-0.75,-6.8125,0.803552,-1.41527,-0.43844
2224,-11,-20,-14,-5,-5,-4,-4,-5,1.10938,0.0986328,0.0141602,-12.5,-0.75,-6.8125,0.803552,-1.41527,-0.43844
2225,12,12,3,-1,-1,0,2,1,1.11035,0.0795898,0.0546875,-16.625,-1.3125,-1.6875,0.805277,-1.41776,-0.44581
2225,11,-1,11,-1,0,-3,-1,-1,1.11035,0.0795898,0.0546875,-16.625,-1.3125,-1.6875,0.805277,-1.41776,-0.44581
2246,-5,-4,13,0,1,-2,0,-3,1.11035,0.0795898,0.0546875,-16.625,-1.3125,-1.6875,0.805277,-1.41776,-0.44581
2246,1,-1,0,2,0,0,-1,0,1.11035,0.0795898,0.0546875,-16.625,-1.3125,-1.6875,0.805277,-1.41776,-0.44581
2248,-2,-4,-9,-3,0,-1,0,-2,1.11475,0.0708008,0.0458984,-13.25,-1.25,-3.1875,0.809414,-1.4188,-0.454775
2248,-5,-4,-5,-1,-2,0,-1,0,1.11475,0.0708008,0.0458984,-13.25,-1.25,-3.1875,0.809414,-1.4188,-0.454775
2260,-1,-2,-9,-5,-4,0,-2,-2,1.11475,0.0708008,0.0458984,-13.25,-1.25,-3.1875,0.809414,-1.4188,-0.454775
2260,-1,-1,-7,-2,-1,2,0,-1,1.11475,0.0708008,0.0458984,-13.25,-1.25,-3.1875,0.809414,-1.4188,-0.454775
2269,-6,12,-1,-3,-2,2,-1,-1,1.12256,0.114258,0.0522461,-10.6875,-1.25,-0.75,0.815371,-1.42046,-0.464293
2269,-6,10,48,4,-1,-2,-2,0,1.12256,0.114258,0.0522461,-10.6875,-1.25,-0.75,0.815371,-1.42046,-0.464293
2284,-3,3,-25,0,2,-2,1,3,1.12256,0.114258,0.0522461,-10.6875,-1.25,-0.75,0.815371,-1.42046,-0.464293
2284,-4,-8,-1,3,0,-3,-3,-15,1.12256,0.114258,0.0522461,-10.6875,-1.25,-0.75,0.815371,-1.42046,-0.464293
2286,-1,2,-7,-1,-2,0,0,0,1.11475,0.162109,0.0541992,-10.125,-0.9375,-3.3125,0.830447,-1.42039,-0.482743
2286,2,-7,-11,-2,-2,-2,-1,-3,1.11475,0.162109,0.0541992,-10.125,-0.9375,-3.3125,0.830447,-1.42039,-0.482743
2307,3,3,16,1,1,0,-1,7,1.11475,0.162109,0.0541992,-10.125,-0.9375,-3.3125,0.830447,-1.42039,-0.482743
2307,1,1,1,0,0,2,2,3,1.11475,0.162109,0.0541992,-10.125,-0.9375,-3.3125,0.830447,-1.42039,-0.482743
2308,1,-5,-12,-4,-1,-3,-2,-3,1.11914,0.187012,0.0458984,-16.0625,-1,-6.125,0.849761,-1.41855,-0.507804
2308,4,7,7,-3,-2,-2,-2,-2,1.11914,0.187012,0.0458984,-16.0625,-1,-6.125,0.849761,-1.41855,-0.507804
2320,-5,2,16,2,1,-2,-1,-4,1.11914,0.187012,0.0458984,-16.0625,-1,-6.125,0.849761,-1.41855,-0.507804
2320,0,-9,-27,-4,0,0,-1,1,1.11914,0.187012,0.0458984,-16.0625,-1,-6.125,0.849761,-1.41855,-0.507804
2329,-2,-2,-2,0,-1,0,1,7,1.13818,0.193848,0.0366211,-28.125,1.875,-3.8125,0.85815,-1.41745,-0.525762
2329,-2,-12,-10,-5,-4,-1,-5,-7,1.13818,0.193848,0.0366211,-28.125,1.875,-3.8125,0.85815,-1.41745,-0.525762
2343,4,11,4,0,0,0,0,-3,1.13818,0.193848,0.0366211,-28.125,1.875,-3.8125,0.85815,-1.41745,-0.525762
2343,2,-1,1,-1,-1,0,0,5,1.13818,0.193848,0.0366211,-28.125,1.875,-3.8125,0.85815,-1.41745,-0.525762
2350,-1,4,-13,-2,-2,-2,-2,-2,1.14697,0.193848,0.0395508,-32.5625,6.4375,-5.125,0.859283,-1.41501,-0.538068
2350,0,-7,-6,1,1,1,-1,2,1.14697,0.193848,0.0395508,-32.5625,6.4375,-5.125,0.859283,-1.41501,-0.538068
2366,8,-3,3,0,0,0,-3,4,1.14697,0.193848,0.0395508,-32.5625,6.4375,-5.125,0.859283,-1.41501,-0.538068
2366,-8,7,9,1,-3,-3,-3,-11,1.14697,0.193848,0.0395508,-32.5625,6.4375,-5.125,0.859283,-1.41501,-0.538068
2368,-10,-6,-5,-4,-3,-3,0,0,1.13379,0.176758,0.0166016,-36.9375,11.75,-3,0.847523,-1.4123,-0.538736
2368,4,7,-2,-1,-2,-1,0,1,1.13379,0.176758,0.0166016,-36.9375,11.75,-3,0.847523,-1.4123,-0.538736
2380,-1,1,4,-2,-1,0,0,-5,1.13379,0.176758,0.0166016,-36.9375,11.75,-3,0.847523,-1.4123,-0.538736
2380,4,-3,3,2,3,2,2,11,1.13379,0.176758,0.0166016,-36.9375,11.75,-3,0.847523,-1.4123,-0.538736
2389,-5,-8,-5,-4,-5,-6,-9,-8,1.14844,0.195312,0.0410156,-42,19.375,-3.5625,0.822518,-1.40676,-0.528065
2389,-4,-2,-5,-2,0,-3,0,-1,1.14844,0.195312,0.0410156,-42,19.375,-3.5625,0.822518,-1.40676,-0.528065
2403,2,-3,1,1,0,-1,1,4,1.14844,0.195312,0.0410156,-42,19.375,-3.5625,0.822518,-1.40676,-0.528065
2403,2,-4,-4,-1,-1,-2,-1,-1,1.14844,0.195312,0.0410156,-42,19.375,-3.5625,0.822518,-1.40676,-0.528065
2410,1,-7,-2,1,3,4,5,10,1.13916,0.143555,0.0810547,-43.3125,26.5625,-0.375,0.775576,-1.40142,-0.495423
2410,-4,-6,2,-2,-1,-1,0,-4,1.13916,0.143555,0.0810547,-43.3125,26.5625,-0.375,0.775576,-1.40142,-0.495423
2426,-2,8,-3,-4,-5,-7,-3,-4,1.13916,0.143555,0.0810547,-43.3125,26.5625,-0.375,0.775576,-1.40142,-0.495423
2426,0,19,0,-1,0,-2,1,2,1.13916,0.143555,0.0810547,-43.3125,26.5625,-0.375,0.775576,-1.40142,-0.495423
2428,7,36,3,1,-1,-1,0,1,1.10254,0.100586,0.115234,-37.375,32.625,2.4375,0.714745,-1.39483,-0.4468
2428,2,17,-5,-1,-1,0,-2,7,1.10254,0.100586,0.115234,-37.375,32.625,2.4375,0.714745,-1.39483,-0.4468
2449,4,5,-1,-1,-1,1,-1,-12,1.10254,0.100586,0.115234,-37.375,32.625,2.4375,0.714745,-1.39483,-0.4468
2449,2,-9,2,-5,-3,-1,-11,-8,1.10254,0.100586,0.115234,-37.375,32.625,2.4375,0.714745,-1.39483,-0.4468
2450,-15,-22,1,1,1,-1,15,-13,1.05957,0.097168,0.111328,-32,35.75,1.0625,0.659782,-1.38652,-0.402252
2450,-3,-23,-3,2,1,1,3,3,1.05957,0.097168,0.111328,-32,35.75,1.0625,0.659782,-1.38652,-0.402252
2462,0,-13,0,1,2,1,-1,2,1.05957,0.097168,0.111328,-32,35.75,1.0625,0.659782,-1.38652,-0.402252
2462,-6,-18,1,1,2,1,3,6,1.05957,0.097168,0.111328,-32,35.75,1.0625,0.659782,-1.38652,-0.402252
2472,-1,-1,-2,-5,-6,-3,3,-4,1.06006,0.12793,0.125,-37.625,40.6875,0.4375,0.60658,-1.37621,-0.361364
2472,-6,-6,-5,-4,-6,16,3,-28,1.06006,0.12793,0.125,-37.625,40.6875,0.4375,0.60658,-1.37621,-0.361364
2487,0,-11,-5,-6,-3,-13,-21,26,1.06006,0.12793,0.125,-37.625,40.6875,0.4375,0.60658,-1.37621,-0.361364
2487,2,0,1,-1,1,1,7,2,1.06006,0.12793,0.125,-37.625,40.6875,0.4375,0.60658,-1.37621,-0.361364
2488,6,-1,3,1,2,-1,3,26,1.01074,0.125488,0.180176,-37.4375,43.1875,1.625,0.551822,-1.36368,-0.318718
2488,0,-3,2,4,3,1,2,-4,1.01074,0.125488,0.180176,-37.4375,43.1875,1.625,0.551822,-1.36368,-0.318718
2509,-3,4,-2,-1,0,5,8,-4,1.01074,0.125488,0.180176,-37.4375,43.1875,1.625,0.551822,-1.36368,-0.318718
2509,2,4,-2,-4,-6,-9,-7,10,1.01074,0.125488,0.180176,-37.4375,43.1875,1.625,0.551822,-1.36368,-0.318718
2511,-2,4,1,1,0,2,-20,-17,0.961914,0.0766602,0.211914,-31.375,45.5,1.625,0.498291,-1.34987,-0.275271
2511,4,9,2,1,0,-4,-14,19,0.961914,0.0766602,0.211914,-31.375,45.5,1.625,0.498291,-1.34987,-0.275271
2523,0,-7,-2,2,1,7,54,17,0.961914,0.0766602,0.211914,-31.375,45.5,1.625,0.498291,-1.34987,-0.275271
2523,-1,-2,0,-2,-4,-7,-14,-40,0.961914,0.0766602,0.211914,-31.375,45.5,1.625,0.498291,-1.34987,-0.275271
2532,8,25,2,1,-2,-1,-35,-19,0.944336,0.120605,0.260742,-24,45,0.8125,0.457091,-1.33477,-0.241619
2532,-29,40,-9,-4,0,0,37,-20,0.944336,0.120605,0.260742,-24,45,0.8125,0.457091,-1.33477,-0.241619
2545,-2,29,-2,0,-2,-7,-26,24,0.944336,0.120605,0.260742,-24,45,0.8125,0.457091,-1.33477,-0.241619
2545,17,19,1,-2,1,10,7,14,0.944336,0.120605,0.260742,-24,45,0.8125,0.457091,-1.33477,-0.241619
2554,8,-23,-6,-4,-4,-9,21,-21,0.907227,0.0649414,0.259766,-20,44.75,5.125,0.412498,-1.32071,-0.203118
2554,-12,-28,0,-3,-1,-3,-12,-11,0.907227,0.0649414,0.259766,-20,44.75,5.125,0.412498,-1.32071,-0.203118
2569,1,-19,2,0,-3,1,7,-23,0.907227,0.0649414,0.259766,-20,44.75,5.125,0.412498,-1.32071,-0.203118
2569,-9,-20,-1,-1,-2,-5,-19,-6,0.907227,0.0649414,0.259766,-20,44.75,5.125,0.412498,-1.32071,-0.203118
2571,1,-16,1,2,2,4,24,2,0.896973,0.090332,0.231934,-18.5625,41.3125,3.875,0.379646,-1.30754,-0.175891
2571,14,-17,-1,2,4,18,-32,55,0.896973,0.090332,0.231934,-18.5625,41.3125,3.875,0.379646,-1.30754,-0.175891
2583,-33,-21,-6,-5,-5,-8,3,-95,0.896973,0.090332,0.231934,-18.5625,41.3125,3.875,0.379646,-1.30754,-0.175891
2583,-1,-7,4,2,-2,-5,-14,0,0.896973,0.090332,0.231934,-18.5625,41.3125,3.875,0.379646,-1.30754,-0.175891
2591,-1,-9,1,1,0,-3,13,22,0.883789,0.0810547,0.254395,-18.0625,37.875,-0.3125,0.354995,-1.29485,-0.156923
2591,13,-2,0,1,-2,-1,12,7,0.883789,0.0810547,0.254395,-18.0625,37.875,-0.3125,0.354995,-1.29485,-0.156923
2607,3,-11,2,3,0,1,-27,-1,0.883789,0.0810547,0.254395,-18.0625,37.875,-0.3125,0.354995,-1.29485,-0.156923
2607,2,-5,-2,1,2,1,9,4,0.883789,0.0810547,0.254395,-18.0625,37.875,-0.3125,0.354995,-1.29485,-0.156923
2608,3,-5,-1,-1,1,7,16,4,0.886719,0.0371094,0.266113,-18.375,34.9375,3.5625,0.326111,-1.28355,-0.133958
2608,-1,-12,-3,-2,-4,-12,-24,-10,0.886719,0.0371094,0.266113,-18.375,34.9375,3.5625,0.326111,-1.28355,-0.133958
2629,-7,-5,1,-2,-3,-2,-12,5,0.886719,0.0371094,0.266113,-18.375,34.9375,3.5625,0.326111,-1.28355,-0.133958
2629,-12,-4,-3,-1,-2,-4,8,1,0.886719,0.0371094,0.266113,-18.375,34.9375,3.5625,0.326111,-1.28355,-0.133958
2631,-6,-1,-1,-4,-3,-1,-5,15,0.879883,0.000976562,0.265625,-8.4375,33.4375,9.125,0.294688,-1.27377,-0.104667
2631,8,4,2,-4,-3,-5,5,6,0.879883,0.000976562,0.265625,-8.4375,33.4375,9.125,0.294688,-1.27377,-0.104667
2642,6,4,-2,-1,0,-3,-8,1,0.879883,0.000976562,0.265625,-8.4375,33.4375,9.125,0.294688,-1.27377,-0.104667
2642,-9,-2,-4,2,1,5,12,3,0.879883,0.000976562,0.265625,-8.4375,33.4375,9.125,0.294688,-1.27377,-0.104667
2652,4,8,1,2,3,3,-15,-1,0.870605,-0.00341797,0.274902,-1,31.3125,11.6875,0.26599,-1.26479,-0.0754816
2652,-1,3,1,-4,-2,-5,3,-11,0.870605,-0.00341797,0.274902,-1,31.3125,11.6875,0.26599,-1.26479,-0.0754816
2667,4,2,-2,-3,-2,1,3,10,0.870605,-0.00341797,0.274902,-1,31.3125,11.6875,0.26599,-1.26479,-0.0754816
2667,-3,0,-2,-1,0,1,20,-3,0.870605,-0.00341797,0.274902,-1,31.3125,11.6875,0.26599,-1.26479,-0.0754816
2669,5,2,-1,-2,-2,-4,-17,4,0.916016,-0.00830078,0.261719,4.8125,29.375,16.875,0.236111,-1.25737,-0.0429334
2669,-2,1,1,-1,-1,-6,7,-11,0.916016,-0.00830078,0.261719,4.8125,29.375,16.875,0.236111,-1.25737,-0.0429334
2688,1,-1,-1,-1,1,1,-2,14,0.916016,-0.00830078,0.261719,4.8125,29.375,16.875,0.236111,-1.25737,-0.0429334
2688,-5,10,-1,0,-1,1,-8,-10,0.916016,-0.00830078,0.261719,4.8125,29.375,16.875,0.236111,-1.25737,-0.0429334
2691,-2,63,-6,-3,-5,-4,-4,-1,0.931641,-0.027832,0.310547,9.625,29.6875,20.375,0.204352,-1.24887,-0.00669225
2691,-2,17,0,-1,-2,-3,14,-18,0.931641,-0.027832,0.310547,9.625,29.6875,20.375,0.204352,-1.24887,-0.00669225
2703,-19,-1,-1,-2,1,3,-20,-22,0.931641,-0.027832,0.310547,9.625,29.6875,20.375,0.204352,-1.24887,-0.00669225
2703,1,-10,-2,-2,-4,-5,11,29,0.931641,-0.027832,0.310547,9.625,29.6875,20.375,0.204352,-1.24887,-0.00669225
2712,-1,-20,3,0,1,8,-5,10,0.891113,-0.0117188,0.318848,13,30.125,23.875,0.174006,-1.24016,0.0296118
2712,7,-7,0,1,0,-12,2,18,0.891113,-0.0117188,0.318848,13,30.125,23.875,0.174006,-1.24016,0.0296118
2726,13,1,0,2,2,1,3,3,0.891113,-0.0117188,0.318848,13,30.125,23.875,0.174006,-1.24016,0.0296118
2726,3,-13,-3,-4,-4,-4,-10,-3,0.891113,-0.0117188,0.318848,13,30.125,23.875,0.174006,-1.24016,0.0296118
2729,-8,-15,0,0,-2,2,7,0,0.869629,0.065918,0.323242,9,29.5,21.75,0.151887,-1.23062,0.056467
2729,-3,-9,-1,4,1,2,-4,6,0.869629,0.065918,0.323242,9,29.5,21.75,0.151887,-1.23062,0.056467
2749,4,-6,1,3,-2,-1,8,6,0.869629,0.065918,0.323242,9,29.5,21.75,0.151887,-1.23062,0.056467
2749,10,5,1,-2,-3,-4,-7,-1,0.869629,0.065918,0.323242,9,29.5,21.75,0.151887,-1.23062,0.056467
2750,-3,11,-1,-4,-2,-3,-3,2,0.856934,0.0761719,0.342773,8.625,29.1875,18,0.13568,-1.22066,0.0771845
2750,-2,-17,-2,-4,-3,-2,-3,-7,0.856934,0.0761719,0.342773,8.625,29.1875,18,0.13568,-1.22066,0.0771845
2763,0,1,-4,-3,-1,-2,-3,3,0.856934,0.0761719,0.342773,8.625,29.1875,18,0.13568,-1.22066,0.0771845
2763,1,11,1,-1,-2,0,1,0,0.856934,0.0761719,0.342773,8.625,29.1875,18,0.13568,-1.22066,0.0771845
2772,-2,19,-1,-1,0,-1,-9,-14,0.879883,0.0351562,0.356934,1.3125,28.25,20.875,0.112716,-1.211,0.102101
2772,-21,-3,-3,0,-1,0,-6,-2,0.879883,0.0351562,0.356934,1.3125,28.25,20.875,0.112716,-1.211,0.102101
2787,16,4,2,1,-1,-1,17,24,0.879883,0.0351562,0.356934,1.3125,28.25,20.875,0.112716,-1.211,0.102101
2787,2,3,-1,-2,-3,4,-6,4,0.879883,0.0351562,0.356934,1.3125,28.25,20.875,0.112716,-1.211,0.102101
2788,-17,-17,-6,-4,-4,-10,-8,-21,0.882324,0.0258789,0.385254,-2.75,27.875,19.4375,0.0909748,-1.20112,0.124321
2788,-1,1,3,1,1,8,9,10,0.882324,0.0258789,0.385254,-2.75,27.875,19.4375,0.0909748,-1.20112,0.124321
2808,-1,-26,-1,4,5,3,0,1,0.882324,0.0258789,0.385254,-2.75,27.875,19.4375,0.0909748,-1.20112,0.124321
2808,-6,-37,-13,-4,-2,-4,1,-5,0.882324,0.0258789,0.385254,-2.75,27.875,19.4375,0.0909748,-1.20112,0.124321
2816,6,-7,2,-3,-2,-2,3,5,0.865234,0.00976562,0.392578,-3.1875,28.3125,21.6875,0.0673855,-1.19069,0.148289
2816,-6,-5,-2,-2,1,1,-3,-12,0.865234,0.00976562,0.392578,-3.1875,28.3125,21.6875,0.0673855,-1.19069,0.148289
2831,-11,29,15,6,1,5,-10,-32,0.817383,0.000976562,0.399902,-4.375,30.375,25.0625,0.0420113,-1.17915,0.17389
2831,-2,-6,1,10,5,3,-4,6,0.817383,0.000976562,0.399902,-4.375,30.375,25.0625,0.0420113,-1.17915,0.17389
2832,7,5,-4,-7,-5,-1,1,-1,0.817383,0.000976562,0.399902,-4.375,30.375,25.0625,0.0420113,-1.17915,0.17389
2832,-6,6,-6,-12,-10,-3,1,7,0.817383,0.000976562,0.399902,-4.375,30.375,25.0625,0.0420113,-1.17915,0.17389
2854,1,6,-5,-12,-2,-3,4,9,0.783691,-0.046875,0.402344,-0.75,28.9375,29.5,0.0130989,-1.16775,0.204467
2854,0,14,7,5,6,2,-4,-7,0.783691,-0.046875,0.402344,-0.75,28.9375,29.5,0.0130989,-1.16775,0.204467
2855,15,15,12,20,8,11,-7,9,0.783691,-0.046875,0.402344,-0.75,28.9375,29.5,0.0130989,-1.16775,0.204467
2855,28,37,13,14,2,-25,71,47,0.783691,-0.046875,0.402344,-0.75,28.9375,29.5,0.0130989,-1.16775,0.204467
2868,4,-21,-6,-4,-5,-5,-12,-35,0.788086,-0.0361328,0.456543,5.4375,26.1875,30.3125,-0.0116011,-1.15611,0.233076
2868,-55,-67,-41,-23,-12,-11,-18,-33,0.788086,-0.0361328,0.456543,5.4375,26.1875,30.3125,-0.0116011,-1.15611,0.233076
2869,-4,0,-5,-12,-5,-6,11,-10,0.788086,-0.0361328,0.456543,5.4375,26.1875,30.3125,-0.0116011,-1.15611,0.233076
2869,-16,31,1,-3,3,10,-19,-26,0.788086,-0.0361328,0.456543,5.4375,26.1875,30.3125,-0.0116011,-1.15611,0.233076
2891,-12,9,-3,-12,-8,-5,4,13,0.772949,-0.0180664,0.465332,13.0625,25.8125,21.875,-0.0241563,-1.14462,0.251801
2891,32,25,18,4,6,-1,23,33,0.772949,-0.0180664,0.465332,13.0625,25.8125,21.875,-0.0241563,-1.14462,0.251801
2891,27,11,8,20,8,2,-3,-4,0.772949,-0.0180664,0.465332,13.0625,25.8125,21.875,-0.0241563,-1.14462,0.251801
2891,-38,-17,-6,0,-4,-4,-30,-65,0.772949,-0.0180664,0.465332,13.0625,25.8125,21.875,-0.0241563,-1.14462,0.251801
2906,-13,7,-8,0,-2,-4,-1,5,0.690918,0.124512,0.474609,6.6875,26.6875,5.4375,-0.0177149,-1.13184,0.248699
2906,1,59,5,-8,-9,5,-3,8,0.690918,0.124512,0.474609,6.6875,26.6875,5.4375,-0.0177149,-1.13184,0.248699
2906,3,5,-7,-11,-3,-5,-6,8,0.690918,0.124512,0.474609,6.6875,26.6875,5.4375,-0.0177149,-1.13184,0.248699
2906,73,-61,9,3,12,12,7,101,0.690918,0.124512,0.474609,6.6875,26.6875,5.4375,-0.0177149,-1.13184,0.248699
2928,-46,86,-3,11,6,3,-5,-56,0.719238,0.175781,0.513672,-9.125,22.625,4.0625,-0.0133207,-1.12013,0.242423
2928,-71,4,25,24,3,-4,-14,-31,0.719238,0.175781,0.513672,-9.125,22.625,4.0625,-0.0133207,-1.12013,0.242423
2929,-28,-6,0,7,2,-7,-8,-28,0.719238,0.175781,0.513672,-9.125,22.625,4.0625,-0.0133207,-1.12013,0.242423
2929,-14,-31,-11,-5,-5,-3,2,-6,0.719238,0.175781,0.513672,-9.125,22.625,4.0625,-0.0133207,-1.12013,0.242423
2951,19,-17,-14,-21,-9,-16,-21,19,0.783691,-0.0883789,0.532715,-10.1875,16.5,18.9375,-0.0338394,-1.11112,0.260526
2951,54,24,3,-8,4,-1,9,14,0.783691,-0.0883789,0.532715,-10.1875,16.5,18.9375,-0.0338394,-1.11112,0.260526
2951,13,22,3,-8,-5,0,15,10,0.783691,-0.0883789,0.532715,-10.1875,16.5,18.9375,-0.0338394,-1.11112,0.260526
2951,10,-44,-18,-22,-5,5,3,56,0.783691,-0.0883789,0.532715,-10.1875,16.5,18.9375,-0.0338394,-1.11112,0.260526
2966,-87,-23,1,5,6,11,4,-60,0.804688,-0.111328,0.564453,-11.875,14.75,21.125,-0.056758,-1.10231,0.280606
2966,93,46,6,21,4,3,6,29,0.804688,-0.111328,0.564453,-11.875,14.75,21.125,-0.056758,-1.10231,0.280606
2967,-36,-47,17,12,4,2,-3,29,0.804688,-0.111328,0.564453,-11.875,14.75,21.125,-0.056758,-1.10231,0.280606
2967,23,67,-5,8,0,1,-10,2,0.804688,-0.111328,0.564453,-11.875,14.75,21.125,-0.056758,-1.10231,0.280606
2989,11,-17,-15,-10,-11,-2,1,-14,0.803223,-0.00585938,0.566895,38.9375,16.0625,9.5,-0.0480082,-1.0931,0.286298
2989,16,10,-19,-27,-3,-4,-8,6,0.803223,-0.00585938,0.566895,38.9375,16.0625,9.5,-0.0480082,-1.0931,0.286298
2989,15,6,11,-11,-1,4,20,48,0.803223,-0.00585938,0.566895,38.9375,16.0625,9.5,-0.0480082,-1.0931,0.286298
2989,-32,-18,-5,32,3,-10,-23,-62,0.803223,-0.00585938,0.566895,38.9375,16.0625,9.5,-0.0480082,-1.0931,0.286298
3011,25,-20,-6,-10,-8,-3,9,42,0.875977,0.119141,0.587402,40.1875,19.3125,8.5625,-0.0318183,-1.08367,0.285545
3011,-10,-35,-4,-20,-13,-9,-17,-54,0.875977,0.119141,0.587402,40.1875,19.3125,8.5625,-0.0318183,-1.08367,0.285545
3012,-39,-74,-36,-43,-15,-3,-5,13,0.875977,0.119141,0.587402,40.1875,19.3125,8.5625,-0.0318183,-1.08367,0.285545
3012,-13,14,17,-3,4,4,5,-17,0.875977,0.119141,0.587402,40.1875,19.3125,8.5625,-0.0318183,-1.08367,0.285545
3026,-15,-2,10,45,26,1,-1,0,0.969727,0.144043,0.643066,19.25,21.3125,12.4375,-0.024394,-1.07344,0.286937
3026,-2,7,27,48,16,9,-6,-25,0.969727,0.144043,0.643066,19.25,21.3125,12.4375,-0.024394,-1.07344,0.286937
3027,32,35,5,19,-3,2,25,-7,0.969727,0.144043,0.643066,19.25,21.3125,12.4375,-0.024394,-1.07344,0.286937
3027,85,43,-12,-20,-10,4,-9,39,0.969727,0.144043,0.643066,19.25,21.3125,12.4375,-0.024394,-1.07344,0.286937
3056,-31,-5,11,-20,-28,-31,-60,44,1.02051,0.0639648,0.675293,8,30.625,16.9375,-0.0277648,-1.06044,0.295093
3056,-7,4,-11,-8,5,-7,-26,-28,1.02051,0.0639648,0.675293,8,30.625,16.9375,-0.0277648,-1.06044,0.295093
3057,7,-79,12,21,17,-2,-22,5,1.02051,0.0639648,0.675293,8,30.625,16.9375,-0.0277648,-1.06044,0.295093
3057,66,-40,2,-12,1,30,54,6,1.02051,0.0639648,0.675293,8,30.625,16.9375,-0.0277648,-1.06044,0.295093
3071,80,-48,-28,-40,-5,13,46,127,1.06543,0.0356445,0.666016,2.3125,34.625,15.875,-0.0330788,-1.04709,0.302955
3071,-44,-40,-48,-67,-39,-46,-42,-28,1.06543,0.0356445,0.666016,2.3125,34.625,15.875,-0.0330788,-1.04709,0.302955
3071,-31,-6,-34,4,8,15,-22,-89,1.06543,0.0356445,0.666016,2.3125,34.625,15.875,-0.0330788,-1.04709,0.302955
3071,2,39,75,74,37,14,38,12,1.06543,0.0356445,0.666016,2.3125,34.625,15.875,-0.0330788,-1.04709,0.302955
3086,30,-6,-39,-34,-43,-87,-27,7,0.994141,-0.00292969,0.647949,20.75,32.125,11.5625,-0.0312764,-1.03463,0.309587
3086,-8,30,16,-66,0,100,29,78,0.994141,-0.00292969,0.647949,20.75,32.125,11.5625,-0.0312764,-1.03463,0.309587
3086,-48,6,-12,16,-64,-46,-83,-31,0.994141,-0.00292969,0.647949,20.75,32.125,11.5625,-0.0312764,-1.03463,0.309587
3086,-26,28,1,41,67,10,-20,-34,0.994141,-0.00292969,0.647949,20.75,32.125,11.5625,-0.0312764,-1.03463,0.309587
3108,54,43,83,23,43,20,9,30,0.897949,0.03125,0.459961,29.1875,15.8125,13.6875,-0.0267929,-1.03046,0.316792
3108,23,-2,-2,17,-5,-16,98,5,0.897949,0.03125,0.459961,29.1875,15.8125,13.6875,-0.0267929,-1.03046,0.316792
3109,75,18,9,48,29,23,-34,22,0.897949,0.03125,0.459961,29.1875,15.8125,13.6875,-0.0267929,-1.03046,0.316792
3109,-30,8,57,47,-2,-5,37,84,0.897949,0.03125,0.459961,29.1875,15.8125,13.6875,-0.0267929,-1.03046,0.316792
3131,103,28,-15,71,18,42,100,-96,1.03271,-0.127441,0.432617,9.375,-8.6875,0.375,-0.0294644,-1.03723,0.322033
3131,-74,61,-6,-34,-4,-72,-104,-65,1.03271,-0.127441,0.432617,9.375,-8.6875,0.375,-0.0294644,-1.03723,0.322033
3132,5,60,-18,-33,-42,-36,9,69,1.03271,-0.127441,0.432617,9.375,-8.6875,0.375,-0.0294644,-1.03723,0.322033
3132,-52,1,-40,-58,-77,-67,-81,-42,1.03271,-0.127441,0.432617,9.375,-8.6875,0.375,-0.0294644,-1.03723,0.322033
3146,40,18,7,-26,64,73,75,94,1.35986,-0.160156,0.394531,29.25,-11.625,4.25,-0.0291928,-1.04942,0.331462
3146,45,-29,0,76,22,87,127,67,1.35986,-0.160156,0.394531,29.25,-11.625,4.25,-0.0291928,-1.04942,0.331462
3147,-33,-24,-13,-28,-25,-28,-80,-121,1.35986,-0.160156,0.394531,29.25,-11.625,4.25,-0.0291928,-1.04942,0.331462
3147,2,34,-29,-45,-29,-63,-4,-22,1.35986,-0.160156,0.394531,29.25,-11.625,4.25,-0.0291928,-1.04942,0.331462
3168,-54,-100,-11,32,12,43,58,-29,1.02344,-0.0112305,0.305176,49.0625,-5.5625,7.1875,-0.0167983,-1.0572,0.33682
3168,-14,-58,33,-21,-4,1,-71,-16,1.02344,-0.0112305,0.305176,49.0625,-5.5625,7.1875,-0.0167983,-1.0572,0.33682
3169,7,17,-51,-50,-22,-14,25,79,1.02344,-0.0112305,0.305176,49.0625,-5.5625,7.1875,-0.0167983,-1.0572,0.33682
3169,48,-26,-35,-3,26,39,18,44,1.02344,-0.0112305,0.305176,49.0625,-5.5625,7.1875,-0.0167983,-1.0572,0.33682
3191,-25,9,100,51,3,-5,-57,-42,0.869141,0.0561523,0.422363,21.1875,-5,1.4375,-0.00748982,-1.06036,0.335435
3191,27,-20,-36,86,18,17,42,-33,0.869141,0.0561523,0.422363,21.1875,-5,1.4375,-0.00748982,-1.06036,0.335435
3192,65,-15,-28,-68,20,13,-21,97,0.869141,0.0561523,0.422363,21.1875,-5,1.4375,-0.00748982,-1.06036,0.335435
3192,-75,-21,8,-31,-73,-36,-51,-29,0.869141,0.0561523,0.422363,21.1875,-5,1.4375,-0.00748982,-1.06036,0.335435
3205,-49,1,-54,89,36,-8,-1,-29,1.0918,0.106445,0.523438,1.0625,6.875,-20,0.0104828,-1.05981,0.316686
3205,37,-7,55,79,48,10,-5,102,1.0918,0.106445,0.523438,1.0625,6.875,-20,0.0104828,-1.05981,0.316686
3213,41,38,115,-5,9,19,50,-13,1.0918,0.106445,0.523438,1.0625,6.875,-20,0.0104828,-1.05981,0.316686
3213,-14,-31,-108,-28,-17,3,4,5,1.0918,0.106445,0.523438,1.0625,6.875,-20,0.0104828,-1.05981,0.316686
3228,27,-8,39,-54,-50,-23,-31,48,1.11768,0.124023,0.504883,-10.6875,16.8125,-12.0625,0.0198505,-1.05655,0.303208
3228,-47,-16,-33,-67,-44,-30,-36,-21,1.11768,0.124023,0.504883,-10.6875,16.8125,-12.0625,0.0198505,-1.05655,0.303208
3229,108,2,31,-2,-3,29,108,63,1.11768,0.124023,0.504883,-10.6875,16.8125,-12.0625,0.0198505,-1.05655,0.303208
3229,-44,-13,18,10,46,28,-60,-47,1.11768,0.124023,0.504883,-10.6875,16.8125,-12.0625,0.0198505,-1.05655,0.303208
3251,-58,-17,-15,1,-20,-27,-80,-128,1.10059,0.118652,0.535645,-1.75,21.5,0,0.0242944,-1.05092,0.298891
3251,-10,-6,-79,-96,-53,-36,-3,-27,1.10059,0.118652,0.535645,-1.75,21.5,0,0.0242944,-1.05092,0.298891
3252,-27,-22,-19,-24,25,31,32,-17,1.10059,0.118652,0.535645,-1.75,21.5,0,0.0242944,-1.05092,0.298891
3252,23,12,82,29,42,13,-20,14,1.10059,0.118652,0.535645,-1.75,21.5,0,0.0242944,-1.05092,0.298891
3274,-31,14,24,71,1,2,-18,1,1.17773,0.21582,0.581543,5.3125,26,-8.5,0.0401745,-1.04372,0.285376
3274,32,30,22,37,37,24,27,40,1.17773,0.21582,0.581543,5.3125,26,-8.5,0.0401745,-1.04372,0.285376
3275,-19,-40,-13,-70,-45,-7,17,30,1.17773,0.21582,0.581543,5.3125,26,-8.5,0.0401745,-1.04372,0.285376
3275,-43,1,-103,-83,-23,-11,-7,-73,1.17773,0.21582,0.581543,5.3125,26,-8.5,0.0401745,-1.04372,0.285376
3288,104,38,50,24,36,32,29,70,1.12891,0.21582,0.566406,-1.0625,27.125,-12.75,0.0554991,-1.03618,0.269973
3288,-107,-36,42,6,-34,-47,-102,-68,1.12891,0.21582,0.566406,-1.0625,27.125,-12.75,0.0554991,-1.03618,0.269973
3289,8,1,-87,-20,-2,-9,-11,-8,1.12891,0.21582,0.566406,-1.0625,27.125,-12.75,0.0554991,-1.03618,0.269973
3289,64,-13,14,109,37,21,54,27,1.12891,0.21582,0.566406,-1.0625,27.125,-12.75,0.0554991,-1.03618,0.269973
3311,53,5,40,-38,-17,-23,-12,63,0.974609,0.0673828,0.616211,-8.75,27.8125,-9.125,0.0584638,-1.02559,0.263387
3311,-8,-5,-52,-6,-61,-69,-16,41,0.974609,0.0673828,0.616211,-8.75,27.8125,-9.125,0.0584638,-1.02559,0.263387
3312,-53,-16,-62,-67,-17,-8,-19,-44,0.974609,0.0673828,0.616211,-8.75,27.8125,-9.125,0.0584638,-1.02559,0.263387
3312,1,-2,24,-5,35,88,6,23,0.974609,0.0673828,0.616211,-8.75,27.8125,-9.125,0.0584638,-1.02559,0.263387
3326,5,8,57,90,72,4,15,9,0.959961,-0.0473633,0.63623,-7.4375,29.8125,-2.375,0.0523917,-1.01442,0.266246
3326,71,27,35,31,48,24,-3,54,0.959961,-0.0473633,0.63623,-7.4375,29.8125,-2.375,0.0523917,-1.01442,0.266246
3327,-34,-3,-16,-54,-33,-34,-22,-87,0.959961,-0.0473633,0.63623,-7.4375,29.8125,-2.375,0.0523917,-1.01442,0.266246
3327,13,1,-12,-50,-47,-18,34,5,0.959961,-0.0473633,0.63623,-7.4375,29.8125,-2.375,0.0523917,-1.01442,0.266246
3349,0,-15,-56,-107,-53,-5,27,14,0.902832,-0.0371094,0.633301,5.6875,31.375,-1.3125,0.0509226,-1.00232,0.269296
3349,-9,-22,0,-50,-18,-8,16,6,0.902832,-0.0371094,0.633301,5.6875,31.375,-1.3125,0.0509226,-1.00232,0.269296
3350,-10,3,-5,39,23,-9,-12,34,0.902832,-0.0371094,0.633301,5.6875,31.375,-1.3125,0.0509226,-1.00232,0.269296
3350,-87,-13,60,61,5,-32,-105,-105,0.902832,-0.0371094,0.633301,5.6875,31.375,-1.3125,0.0509226,-1.00232,0.269296
3371,-15,22,-31,49,42,10,10,28,0.819824,0.0800781,0.589844,16.4375,35.625,2.625,0.05652,-0.988789,0.270253
3371,59,39,82,71,37,25,8,-21,0.819824,0.0800781,0.589844,16.4375,35.625,2.625,0.05652,-0.988789,0.270253
3372,2,-9,-36,32,-7,1,12,62,0.819824,0.0800781,0.589844,16.4375,35.625,2.625,0.05652,-0.988789,0.270253
3372,11,-34,-64,-94,-53,-10,3,-56,0.819824,0.0800781,0.589844,16.4375,35.625,2.625,0.05652,-0.988789,0.270253
3385,-34,-15,-68,-128,-82,-39,-42,-42,0.768555,0.108887,0.530762,7.8125,36.875,-5.6875,0.0643193,-0.975559,0.265421
3385,3,-25,-76,-123,-14,-53,12,2,0.768555,0.108887,0.530762,7.8125,36.875,-5.6875,0.0643193,-0.975559,0.265421
3386,-15,22,38,127,123,118,81,-37,0.768555,0.108887,0.530762,7.8125,36.875,-5.6875,0.0643193,-0.975559,0.265421
3386,44,31,110,93,10,-32,-29,44,0.768555,0.108887,0.530762,7.8125,36.875,-5.6875,0.0643193,-0.975559,0.265421
3408,13,-1,-66,-40,-30,0,24,-2,0.854492,0.0449219,0.493164,-2.6875,36.875,-13.0625,0.0692117,-0.964367,0.258559
3408,-16,22,9,52,52,11,-43,22,0.854492,0.0449219,0.493164,-2.6875,36.875,-13.0625,0.0692117,-0.964367,0.258559
3409,22,13,127,73,5,-10,-1,-6,0.854492,0.0449219,0.493164,-2.6875,36.875,-13.0625,0.0692117,-0.964367,0.258559
3409,0,-18,-127,-53,-15,-6,0,25,0.854492,0.0449219,0.493164,-2.6875,36.875,-13.0625,0.0692117,-0.964367,0.258559
3431,-4,13,40,-84,-31,-11,-2,28,0.870117,-0.00634766,0.50293,-4.875,36.0625,-14.9375,0.0717997,-0.953701,0.252553
3431,-24,-29,-1,12,-12,14,-4,-39,0.870117,-0.00634766,0.50293,-4.875,36.0625,-14.9375,0.0717997,-0.953701,0.252553
3431,25,-3,-33,6,14,-4,18,38,0.870117,-0.00634766,0.50293,-4.875,36.0625,-14.9375,0.0717997,-0.953701,0.252553
3431,23,-2,71,-26,-47,-58,9,12,0.870117,-0.00634766,0.50293,-4.875,36.0625,-14.9375,0.0717997,-0.953701,0.252553
3446,-98,-35,-59,-48,6,30,-58,-46,0.79248,0.012207,0.480469,-1.5,37.375,-10.0625,0.0738958,-0.942337,0.248951
3446,10,23,54,33,24,11,14,47,0.79248,0.012207,0.480469,-1.5,37.375,-10.0625,0.0738958,-0.942337,0.248951
3447,-18,13,38,76,18,-7,-17,-47,0.79248,0.012207,0.480469,-1.5,37.375,-10.0625,0.0738958,-0.942337,0.248951
3447,28,1,10,-43,-10,21,55,5,0.79248,0.012207,0.480469,-1.5,37.375,-10.0625,0.0738958,-0.942337,0.248951
3477,19,8,-92,-84,-56,-42,-25,-5,0.695312,0.00830078,0.493164,-6.0625,42.1875,-18.1875,0.0774636,-0.92776,0.241274
3477,-62,-18,-26,32,4,2,-12,-73,0.695312,0.00830078,0.493164,-6.0625,42.1875,-18.1875,0.0774636,-0.92776,0.241274
3477,-25,-3,73,84,62,11,17,11,0.695312,0.00830078,0.493164,-6.0625,42.1875,-18.1875,0.0774636,-0.92776,0.241274
3477,25,29,-39,-78,-30,-16,-12,8,0.695312,0.00830078,0.493164,-6.0625,42.1875,-18.1875,0.0774636,-0.92776,0.241274
3491,-9,-7,-11,102,42,15,-4,-14,0.646484,-0.0366211,0.546875,-11.8125,45.8125,-27.0625,0.08088,-0.910214,0.230332
3491,5,-7,11,7,-3,33,20,-31,0.646484,-0.0366211,0.546875,-11.8125,45.8125,-27.0625,0.08088,-0.910214,0.230332
3492,-1,-13,-17,-25,-42,-25,-15,31,0.646484,-0.0366211,0.546875,-11.8125,45.8125,-27.0625,0.08088,-0.910214,0.230332
3492,6,-2,-36,-4,30,6,15,-3,0.646484,-0.0366211,0.546875,-11.8125,45.8125,-27.0625,0.08088,-0.910214,0.230332
3506,-31,5,12,-2,-12,-15,-22,-10,0.632324,-0.0302734,0.580566,-12.4375,48.5625,-26.3125,0.0831923,-0.891252,0.22032
3506,45,15,-21,0,4,9,20,-19,0.632324,-0.0302734,0.580566,-12.4375,48.5625,-26.3125,0.0831923,-0.891252,0.22032
3507,-23,5,-4,-15,6,-7,-12,-28,0.632324,-0.0302734,0.580566,-12.4375,48.5625,-26.3125,0.0831923,-0.891252,0.22032
3507,-23,-17,9,-21,-15,18,9,2,0.632324,-0.0302734,0.580566,-12.4375,48.5625,-26.3125,0.0831923,-0.891252,0.22032
3528,15,5,-41,-38,-26,-9,9,-28,0.580078,-0.0107422,0.586426,-14.625,53.125,-23.9375,0.0840526,-0.870413,0.211447
3528,18,-9,27,22,17,-19,1,80,0.580078,-0.0107422,0.586426,-14.625,53.125,-23.9375,0.0840526,-0.870413,0.211447
3529,-29,7,19,30,4,-16,-40,-74,0.580078,-0.0107422,0.586426,-14.625,53.125,-23.9375,0.0840526,-0.870413,0.211447
3529,0,-1,-54,-7,-17,-19,8,30,0.580078,-0.0107422,0.586426,-14.625,53.125,-23.9375,0.0840526,-0.870413,0.211447
3551,24,-18,8,-66,-12,5,28,40,0.515137,-0.0205078,0.598145,-16.0625,56.5,-22.4375,0.0829824,-0.84745,0.204058
3551,34,18,5,58,49,64,15,-5,0.515137,-0.0205078,0.598145,-16.0625,56.5,-22.4375,0.0829824,-0.84745,0.204058
3551,28,11,64,50,31,7,24,28,0.515137,-0.0205078,0.598145,-16.0625,56.5,-22.4375,0.0829824,-0.84745,0.204058
3551,-32,-10,24,-25,-26,-15,-29,4,0.515137,-0.0205078,0.598145,-16.0625,56.5,-22.4375,0.0829824,-0.84745,0.204058
3565,5,3,-36,-11,-27,-23,-19,-20,0.440918,0.0112305,0.582031,-16.75,56.5,-28.3125,0.0847125,-0.823948,0.192897
3565,-13,-17,-19,-92,-12,-1,10,33,0.440918,0.0112305,0.582031,-16.75,56.5,-28.3125,0.0847125,-0.823948,0.192897
3567,53,-14,-15,-5,-9,10,27,44,0.440918,0.0112305,0.582031,-16.75,56.5,-28.3125,0.0847125,-0.823948,0.192897
3567,-52,6,41,-11,-22,-25,-23,5,0.440918,0.0112305,0.582031,-16.75,56.5,-28.3125,0.0847125,-0.823948,0.192897
3588,9,18,56,92,68,16,-11,-10,0.474609,0.00537109,0.621094,-10.25,55.9375,-28.4375,0.0881063,-0.800741,0.182139
3588,-3,10,56,-15,-48,-14,4,-13,0.474609,0.00537109,0.621094,-10.25,55.9375,-28.4375,0.0881063,-0.800741,0.182139
3589,1,-13,-68,-55,-25,-1,-11,13,0.474609,0.00537109,0.621094,-10.25,55.9375,-28.4375,0.0881063,-0.800741,0.182139
3589,57,7,74,51,18,20,31,22,0.474609,0.00537109,0.621094,-10.25,55.9375,-28.4375,0.0881063,-0.800741,0.182139
3611,-70,-15,-43,-88,-50,6,12,8,0.516602,0.0263672,0.631836,-10.6875,55.6875,-29.0625,0.091842,-0.778628,0.171063
3611,6,9,35,105,76,-27,-24,1,0.516602,0.0263672,0.631836,-10.6875,55.6875,-29.0625,0.091842,-0.778628,0.171063
3611,0,16,3,19,-12,-5,-5,-7,0.516602,0.0263672,0.631836,-10.6875,55.6875,-29.0625,0.091842,-0.778628,0.171063
3611,5,-17,-79,-72,-9,13,-10,-8,0.516602,0.0263672,0.631836,-10.6875,55.6875,-29.0625,0.091842,-0.778628,0.171063
3634,47,14,70,8,-26,-4,-1,63,0.44043,0.0419922,0.623535,-14.6875,52.875,-26.0625,0.0932118,-0.75671,0.161251
3634,-31,-13,-62,-21,0,-40,-7,-91,0.44043,0.0419922,0.623535,-14.6875,52.875,-26.0625,0.0932118,-0.75671,0.161251
3635,-21,-6,-9,-12,-13,-27,-15,11,0.44043,0.0419922,0.623535,-14.6875,52.875,-26.0625,0.0932118,-0.75671,0.161251
3635,1,25,42,127,93,54,81,3,0.44043,0.0419922,0.623535,-14.6875,52.875,-26.0625,0.0932118,-0.75671,0.161251
3648,-8,-7,24,41,25,-39,-50,20,0.347168,0.0625,0.645996,-21.0625,53.4375,-27.6875,0.0932473,-0.733037,0.150554
3648,8,-13,-69,-126,-95,-24,-29,27,0.347168,0.0625,0.645996,-21.0625,53.4375,-27.6875,0.0932473,-0.733037,0.150554
3649,2,-4,-64,-51,-43,-21,-35,7,0.347168,0.0625,0.645996,-21.0625,53.4375,-27.6875,0.0932473,-0.733037,0.150554
3649,-1,12,77,97,64,43,17,-18,0.347168,0.0625,0.645996,-21.0625,53.4375,-27.6875,0.0932473,-0.733037,0.150554
3680,9,2,26,47,-21,1,26,-14,0.379883,0.0615234,0.647461,-19.3125,54.75,-31.75,0.0945645,-0.709624,0.138202
3680,0,4,-28,-19,35,33,6,-7,0.379883,0.0615234,0.647461,-19.3125,54.75,-31.75,0.0945645,-0.709624,0.138202
3681,1,-7,-3,-11,-18,3,3,15,0.379883,0.0615234,0.647461,-19.3125,54.75,-31.75,0.0945645,-0.709624,0.138202
3681,0,27,49,-50,-30,-16,-21,-20,0.379883,0.0615234,0.647461,-19.3125,54.75,-31.75,0.0945645,-0.709624,0.138202
3685,-10,-23,-68,12,28,12,4,-39,0.421875,0.0844727,0.629883,-8.1875,56.875,-27.6875,0.0989688,-0.686953,0.127629
3685,24,-5,4,-60,-51,-11,12,20,0.421875,0.0844727,0.629883,-8.1875,56.875,-27.6875,0.0989688,-0.686953,0.127629
3693,-9,-2,15,-86,7,23,30,-13,0.421875,0.0844727,0.629883,-8.1875,56.875,-27.6875,0.0989688,-0.686953,0.127629
3693,-57,-6,83,122,117,-1,-42,-24,0.421875,0.0844727,0.629883,-8.1875,56.875,-27.6875,0.0989688,-0.686953,0.127629
3709,28,17,16,79,127,22,19,13,0.228027,0.197266,0.660156,-10,54.1875,-22.25,0.104165,-0.661624,0.117729
3709,-30,11,59,-31,123,-62,8,-17,0.228027,0.197266,0.660156,-10,54.1875,-22.25,0.104165,-0.661624,0.117729
3710,-25,-10,-46,-44,92,-80,-34,-24,0.228027,0.197266,0.660156,-10,54.1875,-22.25,0.104165,-0.661624,0.117729
3710,13,-7,-96,-74,-31,-69,-3,5,0.228027,0.197266,0.660156,-10,54.1875,-22.25,0.104165,-0.661624,0.117729
3739,-9,-10,51,-19,-87,-20,25,13,0.336426,0.118652,0.692383,-15.3125,55.5,-24.8125,0.105161,-0.637804,0.108616
3739,27,14,32,101,-123,51,-54,28,0.336426,0.118652,0.692383,-15.3125,55.5,-24.8125,0.105161,-0.637804,0.108616
3739,5,15,100,123,-102,113,34,-11,0.336426,0.118652,0.692383,-15.3125,55.5,-24.8125,0.105161,-0.637804,0.108616
3739,-4,-19,-50,-75,-111,-19,-15,10,0.336426,0.118652,0.692383,-15.3125,55.5,-24.8125,0.105161,-0.637804,0.108616
3745,14,-8,-77,-106,-116,-20,-7,-67,0.416504,0.0839844,0.702148,-14.3125,51.5,-21.1875,0.104513,-0.617486,0.101691
3745,-30,12,5,57,-93,-1,0,15,0.416504,0.0839844,0.702148,-14.3125,51.5,-21.1875,0.104513,-0.617486,0.101691
3753,7,3,37,81,-124,7,-4,-7,0.416504,0.0839844,0.702148,-14.3125,51.5,-21.1875,0.104513,-0.617486,0.101691
3753,27,-8,-46,12,-128,54,18,46,0.416504,0.0839844,0.702148,-14.3125,51.5,-21.1875,0.104513,-0.617486,0.101691
3768,21,18,-29,-66,-119,15,13,-9,0.535156,0.0859375,0.759277,-14,45.875,-20.4375,0.103544,-0.60096,0.0950262
3768,-47,-38,-9,-70,-59,36,42,-22,0.535156,0.0859375,0.759277,-14,45.875,-20.4375,0.103544,-0.60096,0.0950262
3769,-5,-2,-22,-114,34,8,-94,16,0.535156,0.0859375,0.759277,-14,45.875,-20.4375,0.103544,-0.60096,0.0950262
3769,-37,-14,1,117,74,57,17,-26,0.535156,0.0859375,0.759277,-14,45.875,-20.4375,0.103544,-0.60096,0.0950262
3791,-2,13,80,86,24,35,14,21,0.425293,0.107422,0.739746,1.8125,46.3125,-16.0625,0.107704,-0.582994,0.0898604
3791,26,-9,-64,-84,-68,2,-6,-8,0.425293,0.107422,0.739746,1.8125,46.3125,-16.0625,0.107704,-0.582994,0.0898604
3792,-3,4,-30,-24,-98,-20,14,31,0.425293,0.107422,0.739746,1.8125,46.3125,-16.0625,0.107704,-0.582994,0.0898604
3792,-5,-7,41,9,-2,4,-8,21,0.425293,0.107422,0.739746,1.8125,46.3125,-16.0625,0.107704,-0.582994,0.0898604
3807,-16,-26,-34,-100,-92,-69,-13,-10,0.403809,0.123047,0.733887,-3.1875,41.625,-14.75,0.110095,-0.566466,0.0849876
3807,3,14,29,127,56,122,4,-15,0.403809,0.123047,0.733887,-3.1875,41.625,-14.75,0.110095,-0.566466,0.0849876
3814,13,21,74,45,-33,14,42,25,0.403809,0.123047,0.733887,-3.1875,41.625,-14.75,0.110095,-0.566466,0.0849876
3814,27,9,-79,-128,-109,-55,-41,-4,0.403809,0.123047,0.733887,-3.1875,41.625,-14.75,0.110095,-0.566466,0.0849876
3828,-48,-21,-23,65,-49,-53,9,-39,0.461914,0.0571289,0.741211,-9.6875,40.375,-18.5,0.109051,-0.551932,0.0796694
3828,33,13,63,56,-14,-38,0,16,0.461914,0.0571289,0.741211,-9.6875,40.375,-18.5,0.109051,-0.551932,0.0796694
3829,13,-20,-38,-24,-20,-46,5,-9,0.461914,0.0571289,0.741211,-9.6875,40.375,-18.5,0.109051,-0.551932,0.0796694
3829,-31,-6,-47,-58,-74,-23,-1,-22,0.461914,0.0571289,0.741211,-9.6875,40.375,-18.5,0.109051,-0.551932,0.0796694
3850,-8,3,66,100,50,58,9,6,0.433594,0.059082,0.726562,-5.4375,36.1875,-14.6875,0.108839,-0.538699,0.0756016
3850,11,-13,-53,-55,-29,-56,-17,16,0.433594,0.059082,0.726562,-5.4375,36.1875,-14.6875,0.108839,-0.538699,0.0756016
3851,-21,9,-16,-48,-20,-19,-3,-10,0.433594,0.059082,0.726562,-5.4375,36.1875,-14.6875,0.108839,-0.538699,0.0756016
3851,17,3,60,109,93,39,38,-37,0.433594,0.059082,0.726562,-5.4375,36.1875,-14.6875,0.108839,-0.538699,0.0756016
3866,22,15,43,-19,43,-15,-63,16,0.35498,0.0688477,0.786133,-2.9375,32.4375,-10.6875,0.10886,-0.524838,0.0729121
3866,-9,-25,-53,-57,-26,11,0,-3,0.35498,0.0688477,0.786133,-2.9375,32.4375,-10.6875,0.10886,-0.524838,0.0729121
3881,-8,-10,-13,10,71,15,-18,-28,0.35498,0.0688477,0.786133,-2.9375,32.4375,-10.6875,0.10886,-0.524838,0.0729121
3881,6,-8,54,23,38,10,46,7,0.35498,0.0688477,0.786133,-2.9375,32.4375,-10.6875,0.10886,-0.524838,0.0729121
3889,-42,10,31,34,127,10,-32,-14,0.312988,0.131836,0.77002,-6.875,31.375,-13.25,0.109711,-0.510807,0.0683878
3889,17,18,20,76,81,-20,16,29,0.312988,0.131836,0.77002,-6.875,31.375,-13.25,0.109711,-0.510807,0.0683878
3889,13,-17,-34,-56,-27,-10,17,6,0.312988,0.131836,0.77002,-6.875,31.375,-13.25,0.109711,-0.510807,0.0683878
3889,15,-4,-27,-50,-12,6,2,8,0.312988,0.131836,0.77002,-6.875,31.375,-13.25,0.109711,-0.510807,0.0683878
3911,2,-5,-19,-52,-23,17,-29,7,0.317871,0.103516,0.76709,-3.3125,30.5625,-11.6875,0.110614,-0.497488,0.0648576
3911,-17,28,22,-14,30,-27,4,9,0.317871,0.103516,0.76709,-3.3125,30.5625,-11.6875,0.110614,-0.497488,0.0648576
3912,-4,-38,-31,19,65,-9,-20,-8,0.317871,0.103516,0.76709,-3.3125,30.5625,-11.6875,0.110614,-0.497488,0.0648576
3912,7,22,28,70,78,12,-3,0,0.317871,0.103516,0.76709,-3.3125,30.5625,-11.6875,0.110614,-0.497488,0.0648576
3925,54,-1,13,66,117,55,53,41,0.274414,0.105469,0.834473,2.25,31.125,-11.75,0.113222,-0.482664,0.0615221
3925,-35,-11,-20,-128,-17,-30,-16,-54,0.274414,0.105469,0.834473,2.25,31.125,-11.75,0.113222,-0.482664,0.0615221
3933,-15,16,62,108,53,-25,-15,-19,0.274414,0.105469,0.834473,2.25,31.125,-11.75,0.113222,-0.482664,0.0615221
3933,-18,6,-20,-12,-8,-2,-16,4,0.274414,0.105469,0.834473,2.25,31.125,-11.75,0.113222,-0.482664,0.0615221
3948,-2,-4,-28,-51,-43,-3,2,44,0.316406,0.155273,0.834473,-3,29.8125,-11.25,0.115213,-0.469428,0.0578003
3948,8,-6,40,74,58,-33,10,-10,0.316406,0.155273,0.834473,-3,29.8125,-11.25,0.115213,-0.469428,0.0578003
3949,-10,-20,-67,-81,-21,14,-54,8,0.316406,0.155273,0.834473,-3,29.8125,-11.25,0.115213,-0.469428,0.0578003
3949,24,-3,-21,-51,-12,-12,72,4,0.316406,0.155273,0.834473,-3,29.8125,-11.25,0.115213,-0.469428,0.0578003
3971,-50,15,65,46,-8,-15,-20,-87,0.359863,0.12207,0.837402,-5.4375,31.4375,-9.125,0.114967,-0.456831,0.055359
3971,-5,-2,-37,40,30,24,7,41,0.359863,0.12207,0.837402,-5.4375,31.4375,-9.125,0.114967,-0.456831,0.055359
3972,-2,5,-63,-37,-29,-89,-3,9,0.359863,0.12207,0.837402,-5.4375,31.4375,-9.125,0.114967,-0.456831,0.055359
3972,-15,-16,-35,-60,15,66,-17,-17,0.359863,0.12207,0.837402,-5.4375,31.4375,-9.125,0.114967,-0.456831,0.055359
3994,57,9,34,15,-52,15,31,59,0.376465,0.0913086,0.858398,-0.375,32.3125,-9,0.115599,-0.444562,0.0533368
3994,-21,11,-4,42,3,-6,-4,-15,0.376465,0.0913086,0.858398,-0.375,32.3125,-9,0.115599,-0.444562,0.0533368
3995,5,7,38,13,-18,-14,5,-37,0.376465,0.0913086,0.858398,-0.375,32.3125,-9,0.115599,-0.444562,0.0533368
3995,10,-3,-21,-42,-64,-27,-24,25,0.376465,0.0913086,0.858398,-0.375,32.3125,-9,0.115599,-0.444562,0.0533368
4017,1,-9,-70,-10,4,3,12,-10,0.388184,0.121094,0.887207,4.0625,32,-7.25,0.117942,-0.432516,0.051941
4017,27,-10,-8,-6,-5,-36,64,34,0.388184,0.121094,0.887207,4.0625,32,-7.25,0.117942,-0.432516,0.051941
4017,-11,-3,-30,-74,-38,52,-74,-39,0.388184,0.121094,0.887207,4.0625,32,-7.25,0.117942,-0.432516,0.051941
4017,-22,-7,74,46,0,-1,14,7,0.388184,0.121094,0.887207,4.0625,32,-7.25,0.117942,-0.432516,0.051941
4038,-14,-15,27,1,-70,-31,-35,3,0.367676,0.153809,0.867188,1.6875,33.25,-4.625,0.119922,-0.420285,0.0510522
4038,4,21,-9,-76,-27,11,11,7,0.367676,0.153809,0.867188,1.6875,33.25,-4.625,0.119922,-0.420285,0.0510522
4046,-10,-6,-11,60,73,21,30,-22,0.367676,0.153809,0.867188,1.6875,33.25,-4.625,0.119922,-0.420285,0.0510522
4046,23,-14,-62,-13,-13,1,-2,8,0.367676,0.153809,0.867188,1.6875,33.25,-4.625,0.119922,-0.420285,0.0510522
4048,-32,-7,-32,59,49,-28,-17,1,0.37207,0.133789,0.870117,-2.75,34.0625,-8.5,0.120478,-0.407928,0.0491127
4048,14,-14,-28,-23,-43,-31,-20,1,0.37207,0.133789,0.870117,-2.75,34.0625,-8.5,0.120478,-0.407928,0.0491127
4053,-19,-11,-15,-45,-46,88,75,-32,0.37207,0.133789,0.870117,-2.75,34.0625,-8.5,0.120478,-0.407928,0.0491127
4053,8,42,102,-14,42,-30,-79,25,0.37207,0.133789,0.870117,-2.75,34.0625,-8.5,0.120478,-0.407928,0.0491127
4068,0,-31,-45,11,52,-2,16,-11,0.411621,0.0927734,0.90625,0.625,32.8125,-8,0.120748,-0.396858,0.0477953
4068,-38,-5,-44,84,65,35,-5,-38,0.411621,0.0927734,0.90625,0.625,32.8125,-8,0.120748,-0.396858,0.0477953
4069,21,35,54,24,37,18,-6,31,0.411621,0.0927734,0.90625,0.625,32.8125,-8,0.120748,-0.396858,0.0477953
4069,28,-12,-16,-45,10,-28,12,42,0.411621,0.0927734,0.90625,0.625,32.8125,-8,0.120748,-0.396858,0.0477953
4091,-22,-4,-52,-93,-18,-29,-9,-43,0.401367,0.124512,0.890137,4.125,33.625,-7.5,0.123144,-0.385788,0.0464596
4091,-15,-7,69,18,40,-17,1,-7,0.401367,0.124512,0.890137,4.125,33.625,-7.5,0.123144,-0.385788,0.0464596
4091,14,13,106,42,66,-27,13,42,0.401367,0.124512,0.890137,4.125,33.625,-7.5,0.123144,-0.385788,0.0464596
4091,1,26,-24,-12,-11,-39,-10,-4,0.401367,0.124512,0.890137,4.125,33.625,-7.5,0.123144,-0.385788,0.0464596
4106,15,-7,3,-29,20,2,-6,19,0.362305,0.105957,0.871582,0.375,32.3125,-3.6875,0.123118,-0.374706,0.0465983
4106,-5,-36,-111,-30,-16,16,8,-19,0.362305,0.105957,0.871582,0.375,32.3125,-3.6875,0.123118,-0.374706,0.0465983
4114,-38,-26,15,83,-9,7,3,-8,0.362305,0.105957,0.871582,0.375,32.3125,-3.6875,0.123118,-0.374706,0.0465983
4114,15,34,92,127,66,13,0,-2,0.362305,0.105957,0.871582,0.375,32.3125,-3.6875,0.123118,-0.374706,0.0465983
4128,25,-12,-68,-107,-98,-10,7,2,0.342773,0.106445,0.876465,1.5,30.6875,-7.8125,0.124127,-0.363943,0.045163
4128,-13,24,27,-33,-54,-10,-26,-31,0.342773,0.106445,0.876465,1.5,30.6875,-7.8125,0.124127,-0.363943,0.045163
4129,23,-17,-30,47,38,10,19,22,0.342773,0.106445,0.876465,1.5,30.6875,-7.8125,0.124127,-0.363943,0.045163
4129,-1,-16,-1,-44,-39,-12,-9,8,0.342773,0.106445,0.876465,1.5,30.6875,-7.8125,0.124127,-0.363943,0.045163
4150,-21,8,-26,119,48,7,-4,-5,0.338379,0.120605,0.890137,5.9375,30.6875,-7.625,0.126874,-0.353127,0.0436898
4150,28,7,71,-13,-8,10,10,54,0.338379,0.120605,0.890137,5.9375,30.6875,-7.625,0.126874,-0.353127,0.0436898
4151,5,-21,-58,-110,-75,-10,14,-13,0.338379,0.120605,0.890137,5.9375,30.6875,-7.625,0.126874,-0.353127,0.0436898
4151,-48,-16,-31,65,-19,5,-24,-50,0.338379,0.120605,0.890137,5.9375,30.6875,-7.625,0.126874,-0.353127,0.0436898
4165,33,45,96,81,39,37,4,40,0.281738,0.152344,0.89502,2.125,29.9375,-6.3125,0.128821,-0.34154,0.0424285
4165,17,36,98,80,60,33,2,27,0.281738,0.152344,0.89502,2.125,29.9375,-6.3125,0.128821,-0.34154,0.0424285
4173,-3,-21,-81,-56,-1,-39,-1,43,0.281738,0.152344,0.89502,2.125,29.9375,-6.3125,0.128821,-0.34154,0.0424285
4173,-2,-40,-32,-59,-6,3,10,-6,0.281738,0.152344,0.89502,2.125,29.9375,-6.3125,0.128821,-0.34154,0.0424285
4188,12,15,6,-23,32,-3,1,-11,0.303223,0.124512,0.873535,-1.5,27.875,-4.875,0.128759,-0.33158,0.0419292
4188,12,-8,-24,-76,-67,-19,-15,-17,0.303223,0.124512,0.873535,-1.5,27.875,-4.875,0.128759,-0.33158,0.0419292
4189,-10,16,31,17,28,-26,9,-1,0.303223,0.124512,0.873535,-1.5,27.875,-4.875,0.128759,-0.33158,0.0419292
4189,-15,-28,-78,-42,-25,-25,-31,-31,0.303223,0.124512,0.873535,-1.5,27.875,-4.875,0.128759,-0.33158,0.0419292
4211,-2,19,93,106,83,92,-2,4,0.273438,0.11377,0.879883,2.0625,26.875,-2.5,0.129423,-0.321714,0.0423019
4211,4,-7,-4,34,26,1,-13,-1,0.273438,0.11377,0.879883,2.0625,26.875,-2.5,0.129423,-0.321714,0.0423019
4212,6,45,15,-96,-65,-26,-10,-31,0.273438,0.11377,0.879883,2.0625,26.875,-2.5,0.129423,-0.321714,0.0423019
4212,8,-5,-13,-6,-14,-13,-4,16,0.273438,0.11377,0.879883,2.0625,26.875,-2.5,0.129423,-0.321714,0.0423019
4225,2,5,81,27,-11,-8,30,-7,0.249023,0.141602,0.876465,2.4375,25.25,-5,0.131136,-0.311802,0.0415279
4225,-20,-32,-56,-82,-76,10,-5,-24,0.249023,0.141602,0.876465,2.4375,25.25,-5,0.131136,-0.311802,0.0415279
4233,-32,-46,-27,79,40,-11,-24,-20,0.249023,0.141602,0.876465,2.4375,25.25,-5,0.131136,-0.311802,0.0415279
4233,17,40,24,65,-4,16,35,29,0.249023,0.141602,0.876465,2.4375,25.25,-5,0.131136,-0.311802,0.0415279
4248,21,-29,-77,-106,-51,-14,-6,21,0.239258,0.132812,0.884766,1.8125,23.8125,-5.75,0.132395,-0.302367,0.0404446
4248,-31,-12,-9,7,-60,-4,-27,-19,0.239258,0.132812,0.884766,1.8125,23.8125,-5.75,0.132395,-0.302367,0.0404446
4256,1,15,53,49,59,0,0,-10,0.239258,0.132812,0.884766,1.8125,23.8125,-5.75,0.132395,-0.302367,0.0404446
4256,-5,15,44,10,50,-6,-15,-40,0.239258,0.132812,0.884766,1.8125,23.8125,-5.75,0.132395,-0.302367,0.0404446
4271,8,-19,-46,4,9,2,14,26,0.257812,0.126953,0.875977,0.875,21.5,-3.1875,0.132981,-0.294581,0.0403546
4271,-5,2,-24,-20,-11,-33,-44,-17,0.257812,0.126953,0.875977,0.875,21.5,-3.1875,0.132981,-0.294581,0.0403546
4272,-9,14,-24,-75,-51,37,40,9,0.257812,0.126953,0.875977,0.875,21.5,-3.1875,0.132981,-0.294581,0.0403546
4272,1,-9,25,-11,-22,28,-34,-35,0.257812,0.126953,0.875977,0.875,21.5,-3.1875,0.132981,-0.294581,0.0403546
4295,-37,18,43,44,49,-32,2,-18,0.258301,0.120117,0.89502,-2,20,-0.8125,0.132108,-0.287425,0.0409358
4295,3,-20,-62,-84,-23,26,-9,-9,0.258301,0.120117,0.89502,-2,20,-0.8125,0.132108,-0.287425,0.0409358
4295,9,-5,52,56,6,-21,-59,-6,0.258301,0.120117,0.89502,-2,20,-0.8125,0.132108,-0.287425,0.0409358
4295,22,-2,2,55,38,50,75,24,0.258301,0.120117,0.89502,-2,20,-0.8125,0.132108,-0.287425,0.0409358
4308,-13,1,-35,-86,-78,-23,19,0,0.223145,0.0976562,0.907227,-1.0625,17.9375,-1.5625,0.131134,-0.280138,0.0414093
4308,-16,7,68,54,52,1,-2,-16,0.223145,0.0976562,0.907227,-1.0625,17.9375,-1.5625,0.131134,-0.280138,0.0414093
4309,3,23,39,94,24,17,5,25,0.223145,0.0976562,0.907227,-1.0625,17.9375,-1.5625,0.131134,-0.280138,0.0414093
4309,-9,-33,-114,-91,-53,-16,-24,-3,0.223145,0.0976562,0.907227,-1.0625,17.9375,-1.5625,0.131134,-0.280138,0.0414093
4331,39,20,88,-28,-15,-10,-5,-1,0.239258,0.132324,0.870605,1.25,17.4375,-6.25,0.132401,-0.273649,0.0399141
4331,-16,-48,-87,-17,28,-1,36,24,0.239258,0.132324,0.870605,1.25,17.4375,-6.25,0.132401,-0.273649,0.0399141
4332,-36,8,-57,-24,-11,-28,-21,-27,0.239258,0.132324,0.870605,1.25,17.4375,-6.25,0.132401,-0.273649,0.0399141
4332,4,32,73,72,31,-9,-21,8,0.239258,0.132324,0.870605,1.25,17.4375,-6.25,0.132401,-0.273649,0.0399141
4354,-12,-11,-8,-2,-28,8,-13,8,0.242188,0.141113,0.880859,1.0625,13.3125,-1,0.133302,-0.26885,0.0399701
4354,39,13,45,55,24,-28,17,18,0.242188,0.141113,0.880859,1.0625,13.3125,-1,0.133302,-0.26885,0.0399701
4355,-1,17,16,17,12,85,33,21,0.242188,0.141113,0.880859,1.0625,13.3125,-1,0.133302,-0.26885,0.0399701
4355,16,-16,-24,-50,-56,-40,-15,14,0.242188,0.141113,0.880859,1.0625,13.3125,-1,0.133302,-0.26885,0.0399701
4368,-28,-3,-95,-47,-16,-4,8,-37,0.251465,0.138184,0.900879,-2.375,11.3125,-1.6875,0.132864,-0.265015,0.0399064
4368,41,9,50,3,-16,-8,-16,52,0.251465,0.138184,0.900879,-2.375,11.3125,-1.6875,0.132864,-0.265015,0.0399064
4369,-17,-16,22,-33,14,-19,-1,-13,0.251465,0.138184,0.900879,-2.375,11.3125,-1.6875,0.132864,-0.265015,0.0399064
4369,-23,-1,-21,33,19,-14,5,-32,0.251465,0.138184,0.900879,-2.375,11.3125,-1.6875,0.132864,-0.265015,0.0399064
4390,-25,19,108,58,26,30,7,-41,0.22998,0.134277,0.907715,-2.625,9.6875,-2.1875,0.132467,-0.26114,0.0394622
4390,-6,2,-45,-45,-50,-15,4,9,0.22998,0.134277,0.907715,-2.625,9.6875,-2.1875,0.132467,-0.26114,0.0394622
4392,38,-11,20,18,20,-18,11,12,0.22998,0.134277,0.907715,-2.625,9.6875,-2.1875,0.132467,-0.26114,0.0394622
4392,-18,-14,8,39,61,78,0,13,0.22998,0.134277,0.907715,-2.625,9.6875,-2.1875,0.132467,-0.26114,0.0394622
4414,10,-12,-4,-67,-17,-30,-11,6,0.219238,0.117676,0.884766,-1.625,7.8125,-3,0.131978,-0.25787,0.0387466
4414,4,34,34,18,-10,9,11,-20,0.219238,0.117676,0.884766,-1.625,7.8125,-3,0.131978,-0.25787,0.0387466
4415,12,-27,-50,-43,-43,-20,-25,-2,0.219238,0.117676,0.884766,-1.625,7.8125,-3,0.131978,-0.25787,0.0387466
4415,-18,-4,1,-70,-40,-32,26,31,0.219238,0.117676,0.884766,-1.625,7.8125,-3,0.131978,-0.25787,0.0387466
4428,-8,8,-9,111,68,-20,-20,-45,0.231934,0.115723,0.912598,1.3125,7.375,0.9375,0.132161,-0.255221,0.0395113
4428,8,1,31,11,41,8,15,31,0.231934,0.115723,0.912598,1.3125,7.375,0.9375,0.132161,-0.255221,0.0395113
4430,48,0,-95,-128,-83,78,-32,-9,0.231934,0.115723,0.912598,1.3125,7.375,0.9375,0.132161,-0.255221,0.0395113
4430,-22,-1,59,109,50,-53,-23,2,0.231934,0.115723,0.912598,1.3125,7.375,0.9375,0.132161,-0.255221,0.0395113
4451,-3,3,0,38,-15,22,21,2,0.197754,0.130859,0.911133,-3.25,7.0625,0.9375,0.131139,-0.251904,0.0400979
4451,-3,-14,-70,-62,-23,-28,8,5,0.197754,0.130859,0.911133,-3.25,7.0625,0.9375,0.131139,-0.251904,0.0400979
4452,-13,-4,38,73,31,-5,5,-35,0.197754,0.130859,0.911133,-3.25,7.0625,0.9375,0.131139,-0.251904,0.0400979
4452,40,11,-60,-47,-81,-47,54,13,0.197754,0.130859,0.911133,-3.25,7.0625,0.9375,0.131139,-0.251904,0.0400979
4474,-45,-16,20,-21,-59,74,-82,-45,0.217285,0.0942383,0.913574,-3.9375,5.6875,-0.3125,0.129141,-0.249525,0.0404937
4474,17,4,32,38,7,-15,10,32,0.217285,0.0942383,0.913574,-3.9375,5.6875,-0.3125,0.129141,-0.249525,0.0404937
4475,-18,-3,-15,-72,2,-21,4,-26,0.217285,0.0942383,0.913574,-3.9375,5.6875,-0.3125,0.129141,-0.249525,0.0404937
4475,11,-25,-100,63,30,-1,-8,20,0.217285,0.0942383,0.913574,-3.9375,5.6875,-0.3125,0.129141,-0.249525,0.0404937
4489,30,14,43,47,25,-4,31,12,0.229492,0.108398,0.934082,1.8125,5.8125,-2.5,0.12961,-0.247171,0.0399696
4489,-53,17,68,13,9,34,-8,-34,0.229492,0.108398,0.934082,1.8125,5.8125,-2.5,0.12961,-0.247171,0.0399696
4489,-13,6,-32,14,19,-24,13,-10,0.229492,0.108398,0.934082,1.8125,5.8125,-2.5,0.12961,-0.247171,0.0399696
4489,13,3,30,-56,7,-4,-19,14,0.229492,0.108398,0.934082,1.8125,5.8125,-2.5,0.12961,-0.247171,0.0399696
4511,8,-6,-9,-68,10,-37,4,21,0.216797,0.150879,0.907715,0.25,3.25,-0.5625,0.130523,-0.245699,0.0397031
4511,25,-29,-38,-25,17,16,-10,-13,0.216797,0.150879,0.907715,0.25,3.25,-0.5625,0.130523,-0.245699,0.0397031
4512,-15,9,34,-11,-21,-4,18,-18,0.216797,0.150879,0.907715,0.25,3.25,-0.5625,0.130523,-0.245699,0.0397031
4512,-48,-4,16,-53,-2,72,15,-11,0.216797,0.150879,0.907715,0.25,3.25,-0.5625,0.130523,-0.245699,0.0397031
4534,4,7,35,12,16,-20,-11,10,0.227051,0.157227,0.902832,-1.0625,4.4375,0.125,0.131028,-0.244108,0.0397402
4534,-4,5,21,22,-10,52,43,-1,0.227051,0.157227,0.902832,-1.0625,4.4375,0.125,0.131028,-0.244108,0.0397402
4535,20,6,11,93,45,12,-27,13,0.227051,0.157227,0.902832,-1.0625,4.4375,0.125,0.131028,-0.244108,0.0397402
4535,21,3,1,9,-12,-12,4,18,0.227051,0.157227,0.902832,-1.0625,4.4375,0.125,0.131028,-0.244108,0.0397402
4548,-9,1,51,9,16,21,13,-9,0.189941,0.116211,0.945801,-5.25,4.5625,-3.4375,0.129329,-0.241285,0.0387666
4548,-2,31,21,-32,-9,-16,-13,-3,0.189941,0.116211,0.945801,-5.25,4.5625,-3.4375,0.129329,-0.241285,0.0387666
4549,-18,-34,-91,4,8,-36,0,-17,0.189941,0.116211,0.945801,-5.25,4.5625,-3.4375,0.129329,-0.241285,0.0387666
4549,4,-19,68,45,33,29,10,-7,0.189941,0.116211,0.945801,-5.25,4.5625,-3.4375,0.129329,-0.241285,0.0387666
4571,12,-15,-93,-128,-90,-24,-13,-10,0.231934,0.121094,0.94873,-0.1875,5.375,-3.6875,0.12947,-0.239248,0.037767
4571,1,32,17,-15,2,-46,1,15,0.231934,0.121094,0.94873,-0.1875,5.375,-3.6875,0.12947,-0.239248,0.037767
4572,10,-14,62,118,60,27,-21,30,0.231934,0.121094,0.94873,-0.1875,5.375,-3.6875,0.12947,-0.239248,0.037767
4572,15,37,83,-70,-14,-16,-16,-32,0.231934,0.121094,0.94873,-0.1875,5.375,-3.6875,0.12947,-0.239248,0.037767
4594,-12,-49,-128,-52,-40,-19,12,26,0.192383,0.146484,0.92627,1.875,4.5,0.4375,0.130592,-0.236828,0.037911
4594,14,-19,22,32,24,-17,6,11,0.192383,0.146484,0.92627,1.875,4.5,0.4375,0.130592,-0.236828,0.037911
4595,-32,29,5,-84,-38,-19,2,-41,0.192383,0.146484,0.92627,1.875,4.5,0.4375,0.130592,-0.236828,0.037911
4595,-4,4,88,118,74,57,-32,-11,0.192383,0.146484,0.92627,1.875,4.5,0.4375,0.130592,-0.236828,0.037911
4608,-10,-20,-62,-80,-62,-38,12,32,0.194824,0.150391,0.92627,-3.1875,4.0625,1.0625,0.130069,-0.234746,0.0383487
4608,-3,0,2,37,-17,16,-8,-29,0.194824,0.150391,0.92627,-3.1875,4.0625,1.0625,0.130069,-0.234746,0.0383487
4609,33,19,72,91,83,38,-25,17,0.194824,0.150391,0.92627,-3.1875,4.0625,1.0625,0.130069,-0.234746,0.0383487
4609,-26,8,-40,-65,-43,-28,6,-8,0.194824,0.150391,0.92627,-3.1875,4.0625,1.0625,0.130069,-0.234746,0.0383487
4631,-5,-10,10,-18,-10,14,29,-11,0.209961,0.123047,0.932129,-2.9375,4.1875,-0.5,0.129091,-0.232999,0.0384477
4631,-13,-5,18,-24,-23,-11,-25,-17,0.209961,0.123047,0.932129,-2.9375,4.1875,-0.5,0.129091,-0.232999,0.0384477
4632,3,-7,-47,29,1,-15,21,22,0.209961,0.123047,0.932129,-2.9375,4.1875,-0.5,0.129091,-0.232999,0.0384477
4632,-9,-10,-36,-95,-95,-13,-2,-33,0.209961,0.123047,0.932129,-2.9375,4.1875,-0.5,0.129091,-0.232999,0.0384477
4654,32,25,87,112,33,-29,-21,21,0.20459,0.130859,0.923828,3.75,4.75,-1.375,0.130765,-0.230919,0.0380151
4654,0,-19,-12,-36,-11,29,12,34,0.20459,0.130859,0.923828,3.75,4.75,-1.375,0.130765,-0.230919,0.0380151
4654,-1,9,48,67,-20,1,-2,-20,0.20459,0.130859,0.923828,3.75,4.75,-1.375,0.130765,-0.230919,0.0380151
4654,-17,-21,-38,-72,-58,-11,-19,0,0.20459,0.130859,0.923828,3.75,4.75,-1.375,0.130765,-0.230919,0.0380151
4668,7,19,-22,-4,29,-24,13,2,0.195801,0.153809,0.911133,3.8125,3.125,1.6875,0.132689,-0.229422,0.0386335
4668,-4,-2,34,22,35,-7,-9,-15,0.195801,0.153809,0.911133,3.8125,3.125,1.6875,0.132689,-0.229422,0.0386335
4670,14,8,21,-128,-38,19,16,47,0.195801,0.153809,0.911133,3.8125,3.125,1.6875,0.132689,-0.229422,0.0386335
4670,-27,-20,-19,113,95,-44,21,4,0.195801,0.153809,0.911133,3.8125,3.125,1.6875,0.132689,-0.229422,0.0386335
4691,31,9,15,-25,19,38,-20,2,0.194824,0.134766,0.933105,2.875,3.4375,2.5625,0.133686,-0.227791,0.0397303
4691,-17,1,95,-22,17,38,11,-11,0.194824,0.134766,0.933105,2.875,3.4375,2.5625,0.133686,-0.227791,0.0397303
4691,-11,6,-56,-49,-12,-31,66,22,0.194824,0.134766,0.933105,2.875,3.4375,2.5625,0.133686,-0.227791,0.0397303
4691,-7,-18,-47,-91,-67,-96,-68,-7,0.194824,0.134766,0.933105,2.875,3.4375,2.5625,0.133686,-0.227791,0.0397303
4714,-39,20,27,127,127,31,-14,-21,0.19873,0.128418,0.918457,2.8125,2.375,1.9375,0.134597,-0.226652,0.0405671
4714,21,12,-33,-4,6,8,-11,-18,0.19873,0.128418,0.918457,2.8125,2.375,1.9375,0.134597,-0.226652,0.0405671
4715,-13,-20,-37,-96,-77,-80,10,7,0.19873,0.128418,0.918457,2.8125,2.375,1.9375,0.134597,-0.226652,0.0405671
4715,20,16,62,-43,4,47,32,18,0.19873,0.128418,0.918457,2.8125,2.375,1.9375,0.134597,-0.226652,0.0405671
4729,-6,-24,-94,0,-17,-8,-61,-30,0.212402,0.126465,0.893066,1.125,1.6875,0.9375,0.135056,-0.226319,0.0409069
4729,-10,-10,-15,-51,-15,38,51,47,0.212402,0.126465,0.893066,1.125,1.6875,0.9375,0.135056,-0.226319,0.0409069
4729,-3,16,79,47,-23,-26,-34,-26,0.212402,0.126465,0.893066,1.125,1.6875,0.9375,0.135056,-0.226319,0.0409069
4729,10,22,63,122,75,11,-15,-4,0.212402,0.126465,0.893066,1.125,1.6875,0.9375,0.135056,-0.226319,0.0409069
4751,14,-10,-55,-60,-10,-2,-5,14,0.194336,0.115723,0.918945,2.4375,1.5,0.6875,0.135639,-0.22537,0.0412708
4751,16,-20,-66,-37,-51,-30,3,-2,0.194336,0.115723,0.918945,2.4375,1.5,0.6875,0.135639,-0.22537,0.0412708
4752,9,-6,-30,31,9,2,-12,-8,0.194336,0.115723,0.918945,2.4375,1.5,0.6875,0.135639,-0.22537,0.0412708
4752,-4,-18,-15,20,4,20,0,-9,0.194336,0.115723,0.918945,2.4375,1.5,0.6875,0.135639,-0.22537,0.0412708
4774,9,30,1,-71,-42,-22,12,6,0.178711,0.125,0.905273,3.3125,1.8125,-0.0625,0.136759,-0.223935,0.0413655
4774,20,-21,-48,77,34,21,8,22,0.178711,0.125,0.905273,3.3125,1.8125,-0.0625,0.136759,-0.223935,0.0413655
4774,-12,16,-46,-41,-8,-37,-26,-21,0.178711,0.125,0.905273,3.3125,1.8125,-0.0625,0.136759,-0.223935,0.0413655
4774,25,-1,6,55,29,66,-1,24,0.178711,0.125,0.905273,3.3125,1.8125,-0.0625,0.136759,-0.223935,0.0413655
4796,-38,-25,13,-41,-51,-10,22,-44,0.19873,0.141602,0.899414,3.375,0.9375,1.4375,0.138184,-0.223512,0.0418489
4796,-2,13,-30,-20,-13,-72,-35,7,0.19873,0.141602,0.899414,3.375,0.9375,1.4375,0.138184,-0.223512,0.0418489
4797,11,-2,26,-7,11,105,4,23,0.19873,0.141602,0.899414,3.375,0.9375,1.4375,0.138184,-0.223512,0.0418489
4797,5,4,42,-42,-53,-34,9,-7,0.19873,0.141602,0.899414,3.375,0.9375,1.4375,0.138184,-0.223512,0.0418489
4810,-24,-6,-74,-62,7,-18,-6,-7,0.211914,0.14502,0.905762,1.125,1.1875,-0.875,0.139088,-0.223146,0.0415277
4810,-30,19,60,106,20,40,10,-19,0.211914,0.14502,0.905762,1.125,1.1875,-0.875,0.139088,-0.223146,0.0415277
4812,6,-41,-34,-51,-37,-51,8,24,0.211914,0.14502,0.905762,1.125,1.1875,-0.875,0.139088,-0.223146,0.0415277
4812,-26,8,-7,45,71,-9,-22,-31,0.211914,0.14502,0.905762,1.125,1.1875,-0.875,0.139088,-0.223146,0.0415277
4834,29,8,94,60,-25,32,22,40,0.216309,0.104004,0.915039,-0.375,0.625,-2.1875,0.138552,-0.222965,0.0408621
4834,-16,0,-26,-29,26,-44,-21,-32,0.216309,0.104004,0.915039,-0.375,0.625,-2.1875,0.138552,-0.222965,0.0408621
4834,14,22,65,47,-30,13,8,10,0.216309,0.104004,0.915039,-0.375,0.625,-2.1875,0.138552,-0.222965,0.0408621
4834,14,10,-43,-27,-19,73,5,2,0.216309,0.104004,0.915039,-0.375,0.625,-2.1875,0.138552,-0.222965,0.0408621
4848,-12,-8,61,109,55,2,-9,11,0.221191,0.119629,0.914062,0.1875,0.25,2.375,0.138309,-0.223267,0.0418507
4848,13,-4,-7,-64,-72,-13,-22,-30,0.221191,0.119629,0.914062,0.1875,0.25,2.375,0.138309,-0.223267,0.0418507
4850,-24,-5,3,-28,3,35,21,-9,0.221191,0.119629,0.914062,0.1875,0.25,2.375,0.138309,-0.223267,0.0418507
4850,-15,-10,-15,-64,-30,-58,-25,-15,0.221191,0.119629,0.914062,0.1875,0.25,2.375,0.138309,-0.223267,0.0418507
4870,17,21,2,15,-5,-20,7,15,0.211426,0.118164,0.933594,-0.875,1.625,1.1875,0.13765,-0.222793,0.0423263
4870,15,-8,-1,1,39,27,-9,-4,0.211426,0.118164,0.933594,-0.875,1.625,1.1875,0.13765,-0.222793,0.0423263
4871,14,25,46,-113,-54,-9,-1,23,0.211426,0.118164,0.933594,-0.875,1.625,1.1875,0.13765,-0.222793,0.0423263
4871,23,14,-5,35,17,-18,22,-11,0.211426,0.118164,0.933594,-0.875,1.625,1.1875,0.13765,-0.222793,0.0423263
4894,-33,-20,28,-32,31,20,16,14,0.223145,0.15625,0.902832,5.0625,4.5625,0.875,0.139961,-0.221666,0.0427656
4894,10,2,-36,59,-3,-12,-4,6,0.223145,0.15625,0.902832,5.0625,4.5625,0.875,0.139961,-0.221666,0.0427656
4895,15,42,98,76,54,-3,4,5,0.223145,0.15625,0.902832,5.0625,4.5625,0.875,0.139961,-0.221666,0.0427656
4895,-13,-15,-128,85,73,37,9,5,0.223145,0.15625,0.902832,5.0625,4.5625,0.875,0.139961,-0.221666,0.0427656
4908,29,7,18,-24,-56,6,16,5,0.152832,0.162598,0.905762,1,2.1875,3.8125,0.140835,-0.219815,0.0440281
4908,6,6,82,-89,-54,-23,-28,-40,0.152832,0.162598,0.905762,1,2.1875,3.8125,0.140835,-0.219815,0.0440281
4923,-55,-39,-106,48,-21,-55,-18,-31,0.152832,0.162598,0.905762,1,2.1875,3.8125,0.140835,-0.219815,0.0440281
4923,1,4,2,-52,-37,6,5,21,0.152832,0.162598,0.905762,1,2.1875,3.8125,0.140835,-0.219815,0.0440281
4931,42,-8,-5,71,66,5,-12,19,0.231445,0.148926,0.925781,2.3125,2.75,2.1875,0.141972,-0.219416,0.0449146
4931,-55,-2,-30,62,40,8,1,-20,0.231445,0.148926,0.925781,2.3125,2.75,2.1875,0.141972,-0.219416,0.0449146
4932,-12,-27,-52,-93,-86,-6,5,-10,0.231445,0.148926,0.925781,2.3125,2.75,2.1875,0.141972,-0.219416,0.0449146
4932,-13,40,86,93,88,-22,-13,-19,0.231445,0.148926,0.925781,2.3125,2.75,2.1875,0.141972,-0.219416,0.0449146
4954,14,-23,-8,22,37,57,15,16,0.172852,0.164551,0.926758,0.9375,-0.125,0.1875,0.14211,-0.219163,0.0447928
4954,3,24,-5,-52,-17,-92,13,-1,0.172852,0.164551,0.926758,0.9375,-0.125,0.1875,0.14211,-0.219163,0.0447928
4955,46,9,25,-5,22,119,-8,40,0.172852,0.164551,0.926758,0.9375,-0.125,0.1875,0.14211,-0.219163,0.0447928
4955,-7,-17,-38,-92,-49,-33,34,8,0.172852,0.164551,0.926758,0.9375,-0.125,0.1875,0.14211,-0.219163,0.0447928
4968,-77,-69,-103,-127,-90,-45,-49,-51,0.188477,0.175781,0.882812,-5.875,-0.5625,-3,0.141514,-0.21893,0.0435194
4968,-1,13,97,91,46,21,-10,18,0.188477,0.175781,0.882812,-5.875,-0.5625,-3,0.141514,-0.21893,0.0435194
4976,15,-7,63,69,47,-28,-26,-65,0.188477,0.175781,0.882812,-5.875,-0.5625,-3,0.141514,-0.21893,0.0435194
4976,27,28,92,-106,-61,-9,16,22,0.188477,0.175781,0.882812,-5.875,-0.5625,-3,0.141514,-0.21893,0.0435194
4991,0,-29,-79,127,53,2,11,0,0.156738,0.102539,0.899902,-3.4375,0.125,-0.3125,0.139804,-0.217896,0.0435287
4991,16,-18,-1,-89,-36,5,5,22,0.156738,0.102539,0.899902,-3.4375,0.125,-0.3125,0.139804,-0.217896,0.0435287
4992,-23,-22,-22,-94,-73,-54,-16,-22,0.156738,0.102539,0.899902,-3.4375,0.125,-0.3125,0.139804,-0.217896,0.0435287
4992,-7,-11,1,91,112,0,14,7,0.156738,0.102539,0.899902,-3.4375,0.125,-0.3125,0.139804,-0.217896,0.0435287
5014,30,60,92,52,49,81,39,17,0.128906,0.127441,0.921875,1.8125,0.1875,-1.5,0.140511,-0.215913,0.0429743
5014,-8,-4,-36,-65,-44,-18,-3,34,0.128906,0.127441,0.921875,1.8125,0.1875,-1.5,0.140511,-0.215913,0.0429743
5015,-38,-20,-72,-33,-22,-15,-53,-12,0.128906,0.127441,0.921875,1.8125,0.1875,-1.5,0.140511,-0.215913,0.0429743
5015,8,-10,-4,-102,-88,-113,6,12,0.128906,0.127441,0.921875,1.8125,0.1875,-1.5,0.140511,-0.215913,0.0429743
5028,-3,2,-43,-22,-31,86,-7,-15,0.183105,0.125977,0.915039,-2.25,0.4375,-1.4375,0.139696,-0.215246,0.0426132
5028,25,-8,66,56,83,47,39,33,0.183105,0.125977,0.915039,-2.25,0.4375,-1.4375,0.139696,-0.215246,0.0426132
5036,18,-3,-6,35,47,6,-3,3,0.183105,0.125977,0.915039,-2.25,0.4375,-1.4375,0.139696,-0.215246,0.0426132
5036,3,1,-109,-46,-74,27,-19,-13,0.183105,0.125977,0.915039,-2.25,0.4375,-1.4375,0.139696,-0.215246,0.0426132
5051,-70,3,-29,2,-5,-61,-3,-12,0.178711,0.10791,0.902344,-1.125,2.5,-1.125,0.138991,-0.213848,0.0424093
5051,14,12,9,54,-5,-22,-12,-8,0.178711,0.10791,0.902344,-1.125,2.5,-1.125,0.138991,-0.213848,0.0424093
5052,11,20,51,60,89,105,12,-2,0.178711,0.10791,0.902344,-1.125,2.5,-1.125,0.138991,-0.213848,0.0424093
5052,-26,-12,88,1,-32,27,-2,30,0.178711,0.10791,0.902344,-1.125,2.5,-1.125,0.138991,-0.213848,0.0424093
5074,37,-31,-47,-35,-43,-32,-14,-9,0.174805,0.125977,0.901367,1.5625,1.25,-0.8125,0.139526,-0.212867,0.042175
5074,-15,7,-12,-59,-48,-11,2,-9,0.174805,0.125977,0.901367,1.5625,1.25,-0.8125,0.139526,-0.212867,0.042175
5074,-2,-26,27,-53,-16,-117,17,8,0.174805,0.125977,0.901367,1.5625,1.25,-0.8125,0.139526,-0.212867,0.042175
5074,9,11,-72,-3,24,111,-16,-9,0.174805,0.125977,0.901367,1.5625,1.25,-0.8125,0.139526,-0.212867,0.042175
5088,0,24,105,58,49,5,19,19,0.209961,0.145508,0.912598,2.5625,0.4375,0.625,0.140729,-0.212916,0.0424131
5088,5,-19,-26,57,15,-24,-14,8,0.209961,0.145508,0.912598,2.5625,0.4375,0.625,0.140729,-0.212916,0.0424131
5096,27,-5,-51,-55,-30,-52,13,20,0.209961,0.145508,0.912598,2.5625,0.4375,0.625,0.140729,-0.212916,0.0424131
5096,-9,3,43,-22,-9,27,1,-15,0.209961,0.145508,0.912598,2.5625,0.4375,0.625,0.140729,-0.212916,0.0424131
5111,-47,-3,32,17,-12,-26,-28,-61,0.213867,0.156738,0.932129,-1.4375,0.6875,-0.5,0.14088,-0.212902,0.042152
5111,6,15,-46,-16,13,58,7,-14,0.213867,0.156738,0.932129,-1.4375,0.6875,-0.5,0.14088,-0.212902,0.042152
5112,18,56,92,118,84,24,8,28,0.213867,0.156738,0.932129,-1.4375,0.6875,-0.5,0.14088,-0.212902,0.042152
5112,-2,-25,-124,-128,-54,-33,2,-4,0.213867,0.156738,0.932129,-1.4375,0.6875,-0.5,0.14088,-0.212902,0.042152
5134,12,6,106,32,-14,-40,-3,15,0.212891,0.151367,0.924805,-4.875,0.6875,-3,0.140017,-0.212797,0.0410197
5134,-5,-21,-40,42,30,-19,-5,-18,0.212891,0.151367,0.924805,-4.875,0.6875,-3,0.140017,-0.212797,0.0410197
5135,-25,17,-62,-19,-8,4,4,-12,0.212891,0.151367,0.924805,-4.875,0.6875,-3,0.140017,-0.212797,0.0410197
5135,21,-9,-44,38,36,19,28,18,0.212891,0.151367,0.924805,-4.875,0.6875,-3,0.140017,-0.212797,0.0410197
5147,16,-13,7,-30,11,19,-1,-5,0.205566,0.141602,0.919922,-4.375,0,-0.75,0.138827,-0.212864,0.0406497
5147,-11,9,61,-7,-44,6,-24,8,0.205566,0.141602,0.919922,-4.375,0,-0.75,0.138827,-0.212864,0.0406497
5156,-11,-19,-55,-52,-66,-49,-1,-4,0.205566,0.141602,0.919922,-4.375,0,-0.75,0.138827,-0.212864,0.0406497
5156,-7,-26,-40,76,70,-36,-15,-33,0.205566,0.141602,0.919922,-4.375,0,-0.75,0.138827,-0.212864,0.0406497
5170,25,2,8,-46,-5,3,26,54,0.209473,0.169434,0.937988,-1.875,0.1875,1.5625,0.139038,-0.212897,0.0409957
5170,-2,-5,-76,-108,-26,-10,-16,-27,0.209473,0.169434,0.937988,-1.875,0.1875,1.5625,0.139038,-0.212897,0.0409957
5171,-11,20,108,98,34,61,-1,-39,0.209473,0.169434,0.937988,-1.875,0.1875,1.5625,0.139038,-0.212897,0.0409957
5171,-12,16,1,26,-6,-5,4,4,0.209473,0.169434,0.937988,-1.875,0.1875,1.5625,0.139038,-0.212897,0.0409957
5194,13,-22,-67,-105,-28,-45,-17,-10,0.172852,0.170898,0.916504,-4.375,0.5,0.5,0.138559,-0.212145,0.040974
5194,-12,-21,-98,-35,-56,-71,13,2,0.172852,0.170898,0.916504,-4.375,0.5,0.5,0.138559,-0.212145,0.040974
5194,19,-10,74,60,68,88,6,21,0.172852,0.170898,0.916504,-4.375,0.5,0.5,0.138559,-0.212145,0.040974
5194,2,20,127,127,63,-27,-13,-19,0.172852,0.170898,0.916504,-4.375,0.5,0.5,0.138559,-0.212145,0.040974
5217,-3,-14,-90,-42,-20,35,-11,16,0.177734,0.136719,0.920898,-4.0625,0.875,-1.5625,0.137393,-0.211204,0.0404175
5217,-3,19,-43,27,5,25,5,-25,0.177734,0.136719,0.920898,-4.0625,0.875,-1.5625,0.137393,-0.211204,0.0404175
5217,3,-1,-83,-59,-44,-16,-2,5,0.177734,0.136719,0.920898,-4.0625,0.875,-1.5625,0.137393,-0.211204,0.0404175
5217,20,-3,-31,6,-18,17,9,24,0.177734,0.136719,0.920898,-4.0625,0.875,-1.5625,0.137393,-0.211204,0.0404175
5230,-14,9,-16,-71,-65,-43,-18,-13,0.177246,0.144531,0.929199,1.25,1.75,-0.6875,0.138288,-0.209994,0.0402843
5230,-3,-22,-19,-44,23,16,-12,-27,0.177246,0.144531,0.929199,1.25,1.75,-0.6875,0.138288,-0.209994,0.0402843
5232,-15,13,66,123,81,-26,16,24,0.177246,0.144531,0.929199,1.25,1.75,-0.6875,0.138288,-0.209994,0.0402843
5232,-30,-7,5,-108,-53,6,-18,-56,0.177246,0.144531,0.929199,1.25,1.75,-0.6875,0.138288,-0.209994,0.0402843
5254,10,29,62,55,29,-26,-8,19,0.144043,0.15625,0.932617,1.375,1.75,1.6875,0.139243,-0.208089,0.0408061
5254,-7,-10,36,40,12,-24,20,24,0.144043,0.15625,0.932617,1.375,1.75,1.6875,0.139243,-0.208089,0.0408061
5254,-7,-16,-60,-64,-32,-67,-39,-68,0.144043,0.15625,0.932617,1.375,1.75,1.6875,0.139243,-0.208089,0.0408061
5254,0,-26,-83,-124,-73,56,13,10,0.144043,0.15625,0.932617,1.375,1.75,1.6875,0.139243,-0.208089,0.0408061
5276,-2,23,99,86,63,-1,-13,15,0.165039,0.150879,0.92334,-0.625,3.5,0.75,0.139475,-0.206147,0.0411577
5276,8,13,74,19,2,24,18,22,0.165039,0.150879,0.92334,-0.625,3.5,0.75,0.139475,-0.206147,0.0411577
5278,31,-10,-47,-14,37,36,7,41,0.165039,0.150879,0.92334,-0.625,3.5,0.75,0.139475,-0.206147,0.0411577
5278,-23,18,100,106,2,-32,2,-15,0.165039,0.150879,0.92334,-0.625,3.5,0.75,0.139475,-0.206147,0.0411577
5291,21,-9,2,-128,-72,-14,1,12,0.151367,0.134766,0.914062,0.625,3.9375,-2.125,0.139928,-0.203788,0.0406574
5291,-48,-38,-14,11,18,17,-18,-64,0.151367,0.134766,0.914062,0.625,3.9375,-2.125,0.139928,-0.203788,0.0406574
5291,-24,-25,-97,57,1,7,10,43,0.151367,0.134766,0.914062,0.625,3.9375,-2.125,0.139928,-0.203788,0.0406574
5291,27,23,78,-32,-9,-12,-14,11,0.151367,0.134766,0.914062,0.625,3.9375,-2.125,0.139928,-0.203788,0.0406574
5314,-10,25,-3,63,51,20,27,-9,0.166992,0.151367,0.90918,4.0625,1.875,-0.9375,0.14195,-0.202588,0.0402908
5314,17,-18,-27,-56,5,-19,-25,9,0.166992,0.151367,0.90918,4.0625,1.875,-0.9375,0.14195,-0.202588,0.0402908
5315,-12,2,31,-83,-47,1,18,4,0.166992,0.151367,0.90918,4.0625,1.875,-0.9375,0.14195,-0.202588,0.0402908
5315,-1,-33,-67,48,20,0,-26,2,0.166992,0.151367,0.90918,4.0625,1.875,-0.9375,0.14195,-0.202588,0.0402908
5344,0,18,3,-26,7,-36,13,-13,0.178223,0.136719,0.900391,1.375,2.25,2.4375,0.142476,-0.201688,0.0412837
5344,53,18,41,50,23,96,39,77,0.178223,0.136719,0.900391,1.375,2.25,2.4375,0.142476,-0.201688,0.0412837
5344,-50,0,8,23,-16,14,-16,-102,0.178223,0.136719,0.900391,1.375,2.25,2.4375,0.142476,-0.201688,0.0412837
5344,-19,0,42,-36,11,-83,1,34,0.178223,0.136719,0.900391,1.375,2.25,2.4375,0.142476,-0.201688,0.0412837
5351,7,-12,-91,15,-4,75,-21,1,0.179688,0.117188,0.916504,-5.375,2.8125,0.0625,0.140257,-0.20053,0.0414597
5351,12,28,-20,8,-7,35,0,4,0.179688,0.117188,0.916504,-5.375,2.8125,0.0625,0.140257,-0.20053,0.0414597
5352,42,18,45,29,13,-29,39,46,0.179688,0.117188,0.916504,-5.375,2.8125,0.0625,0.140257,-0.20053,0.0414597
5352,38,-9,-26,1,9,4,-27,-31,0.179688,0.117188,0.916504,-5.375,2.8125,0.0625,0.140257,-0.20053,0.0414597
5374,-39,-2,40,-75,-58,-50,-8,-25,0.221191,0.100586,0.917969,-0.5,2.4375,-1.8125,0.13944,-0.200359,0.0410617
5374,-34,-29,-98,-75,-69,-33,-2,-5,0.221191,0.100586,0.917969,-0.5,2.4375,-1.8125,0.13944,-0.200359,0.0410617
5375,3,-12,90,96,92,23,-16,1,0.221191,0.100586,0.917969,-0.5,2.4375,-1.8125,0.13944,-0.200359,0.0410617
5375,43,39,-3,13,20,11,36,17,0.221191,0.100586,0.917969,-0.5,2.4375,-1.8125,0.13944,-0.200359,0.0410617
5404,-30,9,-69,-36,-17,3,-9,-26,0.165527,0.146484,0.902832,6.3125,2.875,0,0.142038,-0.198965,0.0411486
5404,-7,-2,2,4,-7,-8,-20,-12,0.165527,0.146484,0.902832,6.3125,2.875,0,0.142038,-0.198965,0.0411486
5405,10,-17,-21,-80,-50,-35,5,20,0.165527,0.146484,0.902832,6.3125,2.875,0,0.142038,-0.198965,0.0411486
5405,16,5,38,-82,-29,-28,-9,27,0.165527,0.146484,0.902832,6.3125,2.875,0,0.142038,-0.198965,0.0411486
5419,-38,-18,-1,116,78,89,-21,-47,0.180176,0.150391,0.900879,-2,2.0625,1.1875,0.141877,-0.198124,0.0415881
5419,0,19,71,66,33,-17,9,-13,0.180176,0.150391,0.900879,-2,2.0625,1.1875,0.141877,-0.198124,0.0415881
5420,-25,3,-46,-111,-40,-33,-30,-20,0.180176,0.150391,0.900879,-2,2.0625,1.1875,0.141877,-0.198124,0.0415881
5420,1,-3,61,81,26,29,28,12,0.180176,0.150391,0.900879,-2,2.0625,1.1875,0.141877,-0.198124,0.0415881
5434,8,0,8,72,-10,-47,3,6,0.176758,0.126465,0.926758,-4.3125,1.4375,0.8125,0.140135,-0.197492,0.0419275
5434,2,2,66,-53,-22,-28,2,5,0.176758,0.126465,0.926758,-4.3125,1.4375,0.8125,0.140135,-0.197492,0.0419275
5434,-5,7,-100,-66,-46,-19,-5,-7,0.176758,0.126465,0.926758,-4.3125,1.4375,0.8125,0.140135,-0.197492,0.0419275
5434,-14,-7,-6,8,10,8,-22,-12,0.176758,0.126465,0.926758,-4.3125,1.4375,0.8125,0.140135,-0.197492,0.0419275
5457,51,37,98,-33,-21,22,24,40,0.161621,0.141602,0.896484,-1.5625,1.625,-2.0625,0.140091,-0.196335,0.041272
5457,-73,-77,-95,-5,14,-11,-18,-59,0.161621,0.141602,0.896484,-1.5625,1.625,-2.0625,0.140091,-0.196335,0.041272
5457,25,56,53,106,58,-31,-8,0,0.161621,0.141602,0.896484,-1.5625,1.625,-2.0625,0.140091,-0.196335,0.041272
5457,-6,1,-12,-7,-6,58,34,9,0.161621,0.141602,0.896484,-1.5625,1.625,-2.0625,0.140091,-0.196335,0.041272
5479,15,-2,-18,-10,1,-24,2,6,0.155762,0.148438,0.91748,-2,0.375,0.25,0.13985,-0.195476,0.0413547
5479,33,25,66,15,1,-21,1,49,0.155762,0.148438,0.91748,-2,0.375,0.25,0.13985,-0.195476,0.0413547
5479,6,-27,-44,-128,-80,40,-14,14,0.155762,0.148438,0.91748,-2,0.375,0.25,0.13985,-0.195476,0.0413547
5479,-41,-22,-107,22,1,2,-26,-62,0.155762,0.148438,0.91748,-2,0.375,0.25,0.13985,-0.195476,0.0413547
5502,-40,11,64,65,56,27,11,-13,0.164551,0.142578,0.931641,-0.6875,1.375,0.75,0.139839,-0.194497,0.0415416
5502,16,11,57,-22,-47,-2,7,19,0.164551,0.142578,0.931641,-0.6875,1.375,0.75,0.139839,-0.194497,0.0415416
5503,-17,-27,-66,-79,-34,10,-12,-17,0.164551,0.142578,0.931641,-0.6875,1.375,0.75,0.139839,-0.194497,0.0415416
5503,9,-15,-14,74,28,-10,4,14,0.164551,0.142578,0.931641,-0.6875,1.375,0.75,0.139839,-0.194497,0.0415416
5517,33,8,23,45,38,-2,21,26,0.157715,0.14502,0.944336,1.25,2.1875,0.625,0.140574,-0.193065,0.0418166
5517,-18,23,-2,38,41,13,-12,-16,0.157715,0.14502,0.944336,1.25,2.1875,0.625,0.140574,-0.193065,0.0418166
5517,8,-21,-14,-30,-67,-99,-3,-4,0.157715,0.14502,0.944336,1.25,2.1875,0.625,0.140574,-0.193065,0.0418166
5517,-19,-21,-12,-94,-16,83,-18,-25,0.157715,0.14502,0.944336,1.25,2.1875,0.625,0.140574,-0.193065,0.0418166
5531,44,7,26,36,33,-12,8,11,0.188477,0.181641,0.927734,-1.6875,1.8125,-2.3125,0.141279,-0.192526,0.0409244
5531,-27,37,18,-58,-4,-21,21,6,0.188477,0.181641,0.927734,-1.6875,1.8125,-2.3125,0.141279,-0.192526,0.0409244
5532,31,47,115,127,84,52,3,-7,0.188477,0.181641,0.927734,-1.6875,1.8125,-2.3125,0.141279,-0.192526,0.0409244
5532,-14,4,58,29,-1,-29,16,-4,0.188477,0.181641,0.927734,-1.6875,1.8125,-2.3125,0.141279,-0.192526,0.0409244
5561,-3,-36,-64,-124,-105,-60,-35,10,0.168457,0.134766,0.905762,-0.0625,-0.6875,-1.125,0.141575,-0.192373,0.0404146
5561,14,14,-78,-42,5,12,15,-24,0.168457,0.134766,0.905762,-0.0625,-0.6875,-1.125,0.141575,-0.192373,0.0404146
5562,14,-9,86,4,23,13,2,20,0.168457,0.134766,0.905762,-0.0625,-0.6875,-1.125,0.141575,-0.192373,0.0404146
5562,-8,3,27,113,5,-1,2,23,0.168457,0.134766,0.905762,-0.0625,-0.6875,-1.125,0.141575,-0.192373,0.0404146
5577,-21,11,45,107,81,-7,10,-28,0.210449,0.130371,0.933594,0.5625,-2.25,2.1875,0.141484,-0.193906,0.0411802
5577,16,-16,-11,-55,-54,13,-5,25,0.210449,0.130371,0.933594,0.5625,-2.25,2.1875,0.141484,-0.193906,0.0411802
5578,-28,-15,-96,-77,-23,64,20,11,0.210449,0.130371,0.933594,0.5625,-2.25,2.1875,0.141484,-0.193906,0.0411802
5578,-5,-4,-5,1,35,31,-5,-23,0.210449,0.130371,0.933594,0.5625,-2.25,2.1875,0.141484,-0.193906,0.0411802
5591,8,-7,-50,-114,-35,7,11,35,0.169434,0.143555,0.907715,-3.5625,-2.75,2.875,0.14054,-0.194676,0.0419571
5591,15,14,66,50,21,6,-13,-3,0.169434,0.143555,0.907715,-3.5625,-2.75,2.875,0.14054,-0.194676,0.0419571
5592,-10,9,4,119,46,6,13,-19,0.169434,0.143555,0.907715,-3.5625,-2.75,2.875,0.14054,-0.194676,0.0419571
5592,-27,1,-14,-126,-109,-50,-9,3,0.169434,0.143555,0.907715,-3.5625,-2.75,2.875,0.14054,-0.194676,0.0419571
5613,5,-2,-107,-22,-55,-2,-28,-3,0.18457,0.135742,0.904785,-1.9375,-0.5,0.0625,0.140041,-0.194909,0.0419888
5613,34,-26,59,-31,11,48,5,3,0.18457,0.135742,0.904785,-1.9375,-0.5,0.0625,0.140041,-0.194909,0.0419888
5620,-42,39,93,114,109,26,-1,15,0.148926,0.112793,0.919434,-1.4375,-1.375,-0.0625,0.139188,-0.194641,0.0419674
5620,23,26,-29,55,56,6,32,3,0.148926,0.112793,0.919434,-1.4375,-1.375,-0.0625,0.139188,-0.194641,0.0419674
5636,-15,9,-8,-102,-39,-52,-11,-19,0.148926,0.112793,0.919434,-1.4375,-1.375,-0.0625,0.139188,-0.194641,0.0419674
5636,33,-18,-99,-81,-38,-11,14,30,0.148926,0.112793,0.919434,-1.4375,-1.375,-0.0625,0.139188,-0.194641,0.0419674
5638,-27,-1,86,53,4,-19,-34,-30,0.193359,0.144043,0.924805,-0.875,-1.625,1.6875,0.139132,-0.195406,0.0424115
5638,-9,-5,-45,-15,-42,-94,-19,24,0.193359,0.144043,0.924805,-0.875,-1.625,1.6875,0.139132,-0.195406,0.0424115
5650,-5,-21,-11,-55,-10,-61,-11,-36,0.193359,0.144043,0.924805,-0.875,-1.625,1.6875,0.139132,-0.195406,0.0424115
5650,-16,-13,-31,83,83,110,-11,-12,0.193359,0.144043,0.924805,-0.875,-1.625,1.6875,0.139132,-0.195406,0.0424115
5659,19,-16,-46,-53,-37,-50,-1,8,0.151855,0.147949,0.916504,-2.625,-1.1875,5,0.138355,-0.19538,0.0440868
5659,13,-15,-20,-70,-34,60,41,30,0.151855,0.147949,0.916504,-2.625,-1.1875,5,0.138355,-0.19538,0.0440868
5682,-3,34,27,58,-1,-61,-22,-23,0.151855,0.147949,0.916504,-2.625,-1.1875,5,0.138355,-0.19538,0.0440868
5682,-6,20,96,9,43,86,39,-28,0.151855,0.147949,0.916504,-2.625,-1.1875,5,0.138355,-0.19538,0.0440868
5683,-3,14,35,91,33,-53,-14,5,0.149902,0.109863,0.914062,-5.4375,-0.0625,-1.6875,0.136211,-0.194538,0.0434882
5683,-11,-5,27,21,-14,21,-25,-17,0.149902,0.109863,0.914062,-5.4375,-0.0625,-1.6875,0.136211,-0.194538,0.0434882
5697,15,-73,-102,-53,-49,17,46,13,0.149902,0.109863,0.914062,-5.4375,-0.0625,-1.6875,0.136211,-0.194538,0.0434882
5697,-23,-17,-25,-7,-8,-58,-40,-14,0.149902,0.109863,0.914062,-5.4375,-0.0625,-1.6875,0.136211,-0.194538,0.0434882
5698,-16,11,-4,-103,-49,21,2,4,0.175293,0.132324,0.943848,-1.75,0.375,-2,0.135917,-0.193993,0.0428157
5698,29,6,-28,89,64,-4,-6,7,0.175293,0.132324,0.943848,-1.75,0.375,-2,0.135917,-0.193993,0.0428157
5719,-5,-21,-58,-64,-35,42,18,37,0.175293,0.132324,0.943848,-1.75,0.375,-2,0.135917,-0.193993,0.0428157
5719,-37,8,-71,-16,-41,-46,-23,-25,0.175293,0.132324,0.943848,-1.75,0.375,-2,0.135917,-0.193993,0.0428157
5721,20,-50,23,39,-42,2,-3,-2,0.150391,0.17334,0.952637,1.375,0.5,3.8125,0.137174,-0.193007,0.0439917
5721,-16,6,33,-49,15,-20,-7,-41,0.150391,0.17334,0.952637,1.375,0.5,3.8125,0.137174,-0.193007,0.0439917
5734,17,39,51,23,11,-23,9,5,0.150391,0.17334,0.952637,1.375,0.5,3.8125,0.137174,-0.193007,0.0439917
5734,13,-16,-8,98,51,29,13,21,0.150391,0.17334,0.952637,1.375,0.5,3.8125,0.137174,-0.193007,0.0439917
5736,17,13,-29,-110,-39,-48,-12,12,0.166504,0.165527,0.932617,-2.375,-0.3125,3.9375,0.136933,-0.192844,0.0452554
5736,6,13,51,-22,16,92,-4,-17,0.166504,0.165527,0.932617,-2.375,-0.3125,3.9375,0.136933,-0.192844,0.0452554
5757,-20,-3,39,28,58,17,16,9,0.166504,0.165527,0.932617,-2.375,-0.3125,3.9375,0.136933,-0.192844,0.0452554
5757,-31,10,38,56,-7,-72,-25,-40,0.166504,0.165527,0.932617,-2.375,-0.3125,3.9375,0.136933,-0.192844,0.0452554
