0,-3,0,-1,0,-1,-2,-1,-1,1.02783,-0.142578,0.137207,28.1875,2.375,12.0625,-0.61574,-1.35619,-2.59225
0,0,-1,0,-1,0,-2,-1,-2,1.02783,-0.142578,0.137207,28.1875,2.375,12.0625,-0.61574,-1.35619,-2.59225
0,1,-2,-1,-1,-2,-2,-2,-2,1.02783,-0.142578,0.137207,28.1875,2.375,12.0625,-0.61574,-1.35619,-2.59225
0,0,-1,-1,-2,-2,1,1,0,1.02783,-0.142578,0.137207,28.1875,2.375,12.0625,-0.61574,-1.35619,-2.59225
2,-1,0,-2,-2,-1,-1,-1,0,1.02783,-0.142578,0.137207,28.1875,2.375,12.0625,-0.61574,-1.35619,-2.59225
2,-2,-1,0,-2,-2,0,-1,-1,1.02783,-0.142578,0.137207,28.1875,2.375,12.0625,-0.61574,-1.35619,-2.59225
3,-2,0,-1,-1,-1,0,-1,-1,1.02783,-0.142578,0.137207,28.1875,2.375,12.0625,-0.61574,-1.35619,-2.59225
3,1,-4,0,2,0,-1,-3,-1,1.02783,-0.142578,0.137207,28.1875,2.375,12.0625,-0.61574,-1.35619,-2.59225
16,0,-2,-1,-1,-1,-1,0,-2,1.01953,-0.144043,0.139648,25.5625,2.375,11.5,-0.623879,-1.35413,-2.57531
16,-2,1,-1,-1,0,-1,-1,-2,1.01953,-0.144043,0.139648,25.5625,2.375,11.5,-0.623879,-1.35413,-2.57531
17,0,-1,0,-1,-1,-2,-1,3,1.01953,-0.144043,0.139648,25.5625,2.375,11.5,-0.623879,-1.35413,-2.57531
17,-3,-1,-1,-1,0,0,-1,-1,1.01953,-0.144043,0.139648,25.5625,2.375,11.5,-0.623879,-1.35413,-2.57531
31,-1,0,-1,-1,0,0,-2,-1,1.0083,-0.15625,0.151855,25.8125,2.3125,11,-0.630891,-1.35127,-2.55894
31,0,2,-1,-1,0,-1,-2,-1,1.0083,-0.15625,0.151855,25.8125,2.3125,11,-0.630891,-1.35127,-2.55894
40,1,-1,-1,-1,-1,-1,0,-2,1.0083,-0.15625,0.151855,25.8125,2.3125,11,-0.630891,-1.35127,-2.55894
40,0,-1,0,0,1,-3,0,0,1.0083,-0.15625,0.151855,25.8125,2.3125,11,-0.630891,-1.35127,-2.55894
52,-1,-1,-1,0,-1,-1,0,-1,0.995605,-0.152832,0.145996,27.4375,1.875,10.3125,-0.636311,-1.34922,-2.54399
52,-1,0,0,0,-2,-1,0,1,0.995605,-0.152832,0.145996,27.4375,1.875,10.3125,-0.636311,-1.34922,-2.54399
69,-1,1,0,0,-1,0,-2,0,0.995605,-0.152832,0.145996,27.4375,1.875,10.3125,-0.636311,-1.34922,-2.54399
69,-1,0,-3,0,-2,-2,1,-1,0.995605,-0.152832,0.145996,27.4375,1.875,10.3125,-0.636311,-1.34922,-2.54399
71,-1,1,-1,-2,-1,-2,-1,-1,0.980469,-0.145508,0.156738,26.8125,1.75,9.5,-0.639581,-1.34664,-2.53072
71,-3,-2,0,-1,0,0,0,-1,0.980469,-0.145508,0.156738,26.8125,1.75,9.5,-0.639581,-1.34664,-2.53072
116,-1,-2,-2,1,-1,0,-2,-3,0.952637,-0.145996,0.152832,22.6875,2.0625,7.4375,-0.644372,-1.34317,-2.50942
116,-1,-1,-1,-1,-1,-2,-1,-2,0.952637,-0.145996,0.152832,22.6875,2.0625,7.4375,-0.644372,-1.34317,-2.50942
118,-1,-2,-2,0,-4,-1,0,-1,0.952637,-0.145996,0.152832,22.6875,2.0625,7.4375,-0.644372,-1.34317,-2.50942
118,0,-2,-3,-1,-2,-1,0,-2,0.952637,-0.145996,0.152832,22.6875,2.0625,7.4375,-0.644372,-1.34317,-2.50942
122,-2,-1,-1,-1,0,-1,0,-1,0.952637,-0.145996,0.152832,22.6875,2.0625,7.4375,-0.644372,-1.34317,-2.50942
122,-1,-1,-2,-1,-1,-2,-1,0,0.952637,-0.145996,0.152832,22.6875,2.0625,7.4375,-0.644372,-1.34317,-2.50942
122,-1,0,1,-1,-1,1,-1,-2,0.952637,-0.145996,0.152832,22.6875,2.0625,7.4375,-0.644372,-1.34317,-2.50942
122,0,-1,-2,0,0,-1,-1,-1,0.952637,-0.145996,0.152832,22.6875,2.0625,7.4375,-0.644372,-1.34317,-2.50942
129,-1,-1,0,-3,-3,-2,0,0,0.94873,-0.148438,0.157227,20.4375,2.5,6.125,-0.644445,-1.34098,-2.50174
129,-1,0,1,1,2,0,-2,-3,0.94873,-0.148438,0.157227,20.4375,2.5,6.125,-0.644445,-1.34098,-2.50174
136,0,-1,0,-1,-1,-2,-1,0,0.94873,-0.148438,0.157227,20.4375,2.5,6.125,-0.644445,-1.34098,-2.50174
136,0,3,0,1,0,0,1,0,0.94873,-0.148438,0.157227,20.4375,2.5,6.125,-0.644445,-1.34098,-2.50174
144,-1,-5,3,1,1,0,-1,-2,0.944824,-0.153809,0.167969,19,2.875,4.5625,-0.643505,-1.33926,-2.49631
144,1,0,-6,-2,-1,0,0,0,0.944824,-0.153809,0.167969,19,2.875,4.5625,-0.643505,-1.33926,-2.49631
159,0,-4,-2,-2,-1,-1,-1,-2,0.944824,-0.153809,0.167969,19,2.875,4.5625,-0.643505,-1.33926,-2.49631
159,-2,-5,-2,-1,0,0,-3,-1,0.944824,-0.153809,0.167969,19,2.875,4.5625,-0.643505,-1.33926,-2.49631
165,-2,3,0,-1,0,0,-2,-2,0.947266,-0.153809,0.165527,16.1875,3.0625,2.625,-0.640656,-1.33793,-2.49347
165,2,3,1,-1,-2,-2,0,-1,0.947266,-0.153809,0.165527,16.1875,3.0625,2.625,-0.640656,-1.33793,-2.49347
189,-2,2,0,0,0,-1,-2,0,0.947266,-0.153809,0.165527,16.1875,3.0625,2.625,-0.640656,-1.33793,-2.49347
189,-1,1,-1,-4,-2,-1,1,-1,0.947266,-0.153809,0.165527,16.1875,3.0625,2.625,-0.640656,-1.33793,-2.49347
191,-1,-1,-2,0,0,0,0,-1,0.952637,-0.141113,0.172363,12.5,3.125,1.5,-0.636256,-1.33671,-2.49351
191,-3,-4,0,-2,0,-1,0,1,0.952637,-0.141113,0.172363,12.5,3.125,1.5,-0.636256,-1.33671,-2.49351
203,0,-2,-2,-1,-1,0,1,1,0.952637,-0.141113,0.172363,12.5,3.125,1.5,-0.636256,-1.33671,-2.49351
203,-2,-4,1,-1,-1,-2,-2,1,0.952637,-0.141113,0.172363,12.5,3.125,1.5,-0.636256,-1.33671,-2.49351
212,0,-4,-1,-2,-3,-3,-2,1,0.95459,-0.14209,0.166016,8.1875,3.375,0.375,-0.632496,-1.33604,-2.4946
212,-1,-2,1,-2,-2,0,-1,0,0.95459,-0.14209,0.166016,8.1875,3.375,0.375,-0.632496,-1.33604,-2.4946
227,1,0,2,-1,-1,-1,-2,-1,0.95459,-0.14209,0.166016,8.1875,3.375,0.375,-0.632496,-1.33604,-2.4946
227,1,2,-1,-1,-2,-2,1,-1,0.95459,-0.14209,0.166016,8.1875,3.375,0.375,-0.632496,-1.33604,-2.4946
228,0,5,-3,-1,-1,0,1,-1,0.946777,-0.137207,0.168457,4.75,3.6875,-0.375,-0.628662,-1.33496,-2.4966
228,0,7,0,-3,-4,-1,-2,-1,0.946777,-0.137207,0.168457,4.75,3.6875,-0.375,-0.628662,-1.33496,-2.4966
249,-1,-8,-2,-1,0,-1,0,-1,0.946777,-0.137207,0.168457,4.75,3.6875,-0.375,-0.628662,-1.33496,-2.4966
249,-1,-8,-2,-1,-1,-1,-3,-3,0.946777,-0.137207,0.168457,4.75,3.6875,-0.375,-0.628662,-1.33496,-2.4966
250,0,-2,-1,0,-2,-2,0,0,0.94043,-0.132812,0.158691,1.4375,4.25,-0.5625,-0.625145,-1.3343,-2.49963
250,-2,-2,-1,0,-1,-2,-2,-1,0.94043,-0.132812,0.158691,1.4375,4.25,-0.5625,-0.625145,-1.3343,-2.49963
263,-1,1,-1,-1,0,-1,0,-2,0.94043,-0.132812,0.158691,1.4375,4.25,-0.5625,-0.625145,-1.3343,-2.49963
263,-2,-3,-1,-1,-1,-1,-1,0,0.94043,-0.132812,0.158691,1.4375,4.25,-0.5625,-0.625145,-1.3343,-2.49963
270,-1,2,1,-2,-2,-1,0,1,0.919434,-0.124023,0.154297,-2.5625,5.4375,-0.5,-0.622294,-1.33383,-2.504
270,-4,-8,-8,-2,-2,0,-2,-2,0.919434,-0.124023,0.154297,-2.5625,5.4375,-0.5,-0.622294,-1.33383,-2.504
287,-2,2,-1,-2,-2,0,-1,0,0.919434,-0.124023,0.154297,-2.5625,5.4375,-0.5,-0.622294,-1.33383,-2.504
287,-1,-1,-1,1,-1,-1,-1,1,0.919434,-0.124023,0.154297,-2.5625,5.4375,-0.5,-0.622294,-1.33383,-2.504
288,-1,0,-1,-1,-2,-1,0,0,0.904297,-0.125977,0.148438,-5.9375,5.9375,0,-0.620869,-1.33248,-2.50738
288,-2,0,0,-1,-1,-2,-2,0,0.904297,-0.125977,0.148438,-5.9375,5.9375,0,-0.620869,-1.33248,-2.50738
308,0,-2,-3,1,-1,0,-1,-2,0.904297,-0.125977,0.148438,-5.9375,5.9375,0,-0.620869,-1.33248,-2.50738
308,0,2,0,-1,1,0,-1,-2,0.904297,-0.125977,0.148438,-5.9375,5.9375,0,-0.620869,-1.33248,-2.50738
310,-2,-3,-1,-3,-1,-1,-2,0,0.896973,-0.122559,0.136719,-8.625,6.6875,0.9375,-0.621615,-1.33143,-2.51013
310,1,-2,-3,-1,0,-2,0,0,0.896973,-0.122559,0.136719,-8.625,6.6875,0.9375,-0.621615,-1.33143,-2.51013
324,-1,-1,-3,0,-1,-1,-1,-2,0.896973,-0.122559,0.136719,-8.625,6.6875,0.9375,-0.621615,-1.33143,-2.51013
324,-1,1,0,-1,-2,0,1,-2,0.896973,-0.122559,0.136719,-8.625,6.6875,0.9375,-0.621615,-1.33143,-2.51013
331,0,-2,-3,1,0,-2,-3,-1,0.89502,-0.130371,0.149414,-9,7.1875,1.8125,-0.622314,-1.32934,-2.51242
331,1,-1,2,0,-1,-2,-1,-1,0.89502,-0.130371,0.149414,-9,7.1875,1.8125,-0.622314,-1.32934,-2.51242
347,1,3,0,-1,-1,-2,-2,0,0.89502,-0.130371,0.149414,-9,7.1875,1.8125,-0.622314,-1.32934,-2.51242
347,-1,-2,-1,0,-1,-1,-3,-2,0.89502,-0.130371,0.149414,-9,7.1875,1.8125,-0.622314,-1.32934,-2.51242
347,-1,-4,-2,-2,0,-2,-1,-1,0.902832,-0.150391,0.169434,-7,6.0625,2.5,-0.624861,-1.32711,-2.51251
347,-2,1,0,0,0,-1,-2,-2,0.902832,-0.150391,0.169434,-7,6.0625,2.5,-0.624861,-1.32711,-2.51251
369,-1,3,0,0,-1,-1,0,-1,0.902832,-0.150391,0.169434,-7,6.0625,2.5,-0.624861,-1.32711,-2.51251
369,0,-1,5,-1,0,-1,-1,-1,0.902832,-0.150391,0.169434,-7,6.0625,2.5,-0.624861,-1.32711,-2.51251
375,-3,-10,-10,-2,-2,-1,-1,-2,0.915039,-0.145996,0.172852,-5.4375,4.625,2.125,-0.627316,-1.32519,-2.51178
375,-1,-3,-6,-1,-2,-1,1,-3,0.915039,-0.145996,0.172852,-5.4375,4.625,2.125,-0.627316,-1.32519,-2.51178
383,1,-1,0,-1,-2,0,-1,-1,0.915039,-0.145996,0.172852,-5.4375,4.625,2.125,-0.627316,-1.32519,-2.51178
383,1,6,1,-1,-1,-1,-2,-2,0.915039,-0.145996,0.172852,-5.4375,4.625,2.125,-0.627316,-1.32519,-2.51178
390,1,10,4,-2,-1,-2,-1,1,0.897461,-0.133301,0.172852,-4,3.1875,2,-0.629119,-1.32426,-2.51162
390,-1,2,0,-1,-1,1,-1,-3,0.897461,-0.133301,0.172852,-4,3.1875,2,-0.629119,-1.32426,-2.51162
414,0,4,0,-2,-1,-3,-1,-2,0.897461,-0.133301,0.172852,-4,3.1875,2,-0.629119,-1.32426,-2.51162
414,1,4,-1,-1,-1,-2,0,1,0.897461,-0.133301,0.172852,-4,3.1875,2,-0.629119,-1.32426,-2.51162
415,-1,-5,-1,-1,-2,1,-1,-2,0.85791,-0.109863,0.186523,-6.875,1.8125,1.0625,-0.628718,-1.32357,-2.51436
415,0,-3,1,-2,0,-1,-1,1,0.85791,-0.109863,0.186523,-6.875,1.8125,1.0625,-0.628718,-1.32357,-2.51436
429,-1,-5,-4,0,-2,0,0,-1,0.85791,-0.109863,0.186523,-6.875,1.8125,1.0625,-0.628718,-1.32357,-2.51436
429,-2,-4,-3,0,-2,-1,-2,-1,0.85791,-0.109863,0.186523,-6.875,1.8125,1.0625,-0.628718,-1.32357,-2.51436
430,-1,-2,0,-1,-2,-1,-1,1,0.851074,-0.14502,0.208008,-8.375,-2.125,0.125,-0.633211,-1.32342,-2.51295
430,0,-1,0,1,-1,-1,0,-1,0.851074,-0.14502,0.208008,-8.375,-2.125,0.125,-0.633211,-1.32342,-2.51295
443,0,1,4,-1,0,-1,-1,-1,0.851074,-0.14502,0.208008,-8.375,-2.125,0.125,-0.633211,-1.32342,-2.51295
443,-3,-9,-4,-1,-2,0,1,-2,0.851074,-0.14502,0.208008,-8.375,-2.125,0.125,-0.633211,-1.32342,-2.51295
450,1,0,-1,-1,-1,-1,-1,-1,0.854492,-0.175781,0.204102,-3.9375,-5.6875,-1.3125,-0.639802,-1.32405,-2.50769
450,0,3,0,1,0,-2,-1,-1,0.854492,-0.175781,0.204102,-3.9375,-5.6875,-1.3125,-0.639802,-1.32405,-2.50769
466,-2,-3,2,-1,-3,-1,0,-1,0.854492,-0.175781,0.204102,-3.9375,-5.6875,-1.3125,-0.639802,-1.32405,-2.50769
466,0,1,-7,-2,-1,1,-1,0,0.854492,-0.175781,0.204102,-3.9375,-5.6875,-1.3125,-0.639802,-1.32405,-2.50769
468,-1,5,1,0,0,-2,0,0,0.879883,-0.172363,0.197754,4.6875,-9.125,-2.75,-0.644442,-1.32616,-2.50129
468,0,5,1,-2,-2,0,0,1,0.879883,-0.172363,0.197754,4.6875,-9.125,-2.75,-0.644442,-1.32616,-2.50129
489,1,5,-4,-1,-2,-3,0,0,0.879883,-0.172363,0.197754,4.6875,-9.125,-2.75,-0.644442,-1.32616,-2.50129
489,-3,-9,-7,-3,-1,-2,-1,-2,0.879883,-0.172363,0.197754,4.6875,-9.125,-2.75,-0.644442,-1.32616,-2.50129
490,-2,-1,0,1,0,-1,-1,-1,0.864258,-0.119141,0.179199,4.6875,-10.25,-3,-0.646965,-1.32964,-2.49712
490,-2,-1,0,-1,-2,-2,1,-1,0.864258,-0.119141,0.179199,4.6875,-10.25,-3,-0.646965,-1.32964,-2.49712
502,-1,-2,1,-3,1,0,-2,1,0.864258,-0.119141,0.179199,4.6875,-10.25,-3,-0.646965,-1.32964,-2.49712
502,-1,-4,5,1,-1,-1,-1,-1,0.864258,-0.119141,0.179199,4.6875,-10.25,-3,-0.646965,-1.32964,-2.49712
511,-2,-6,-7,-2,-1,0,-1,-1,0.813965,-0.0996094,0.175781,-5,-12.6875,-2.6875,-0.653781,-1.33346,-2.49148
511,0,-1,0,-2,-1,-1,0,1,0.813965,-0.0996094,0.175781,-5,-12.6875,-2.6875,-0.653781,-1.33346,-2.49148
526,-2,-4,-4,-2,-4,0,-1,-1,0.813965,-0.0996094,0.175781,-5,-12.6875,-2.6875,-0.653781,-1.33346,-2.49148
526,0,5,7,-1,0,-1,-1,0,0.813965,-0.0996094,0.175781,-5,-12.6875,-2.6875,-0.653781,-1.33346,-2.49148
528,-1,-2,1,-1,-2,-1,-1,-2,0.789062,-0.128418,0.183105,-15.0625,-15.625,-3.1875,-0.667746,-1.33742,-2.48218
528,-1,-5,-1,-1,-1,-1,0,0,0.789062,-0.128418,0.183105,-15.0625,-15.625,-3.1875,-0.667746,-1.33742,-2.48218
549,-2,-5,4,0,0,0,-2,-2,0.789062,-0.128418,0.183105,-15.0625,-15.625,-3.1875,-0.667746,-1.33742,-2.48218
549,-3,-6,-15,-2,-1,-1,-1,0,0.789062,-0.128418,0.183105,-15.0625,-15.625,-3.1875,-0.667746,-1.33742,-2.48218
550,1,6,3,0,-1,0,0,1,0.808105,-0.170898,0.180176,-14.3125,-17.375,-3.4375,-0.68668,-1.34182,-2.46843
550,0,-2,-1,-3,-1,-1,-3,-3,0.808105,-0.170898,0.180176,-14.3125,-17.375,-3.4375,-0.68668,-1.34182,-2.46843
562,1,1,3,0,1,0,1,-3,0.808105,-0.170898,0.180176,-14.3125,-17.375,-3.4375,-0.68668,-1.34182,-2.46843
562,-1,-5,1,-2,-3,-3,-5,-5,0.808105,-0.170898,0.180176,-14.3125,-17.375,-3.4375,-0.68668,-1.34182,-2.46843
571,3,6,6,-1,0,1,-1,0,0.837402,-0.186523,0.18457,-7.625,-19.875,-4.75,-0.705364,-1.34612,-2.45157
571,-3,-5,-4,1,1,1,-1,-1,0.837402,-0.186523,0.18457,-7.625,-19.875,-4.75,-0.705364,-1.34612,-2.45157
586,3,-7,-29,0,0,0,2,0,0.837402,-0.186523,0.18457,-7.625,-19.875,-4.75,-0.705364,-1.34612,-2.45157
586,1,13,9,-1,-1,-1,-2,0,0.837402,-0.186523,0.18457,-7.625,-19.875,-4.75,-0.705364,-1.34612,-2.45157
588,-3,-5,0,-3,-2,-2,-1,-3,0.883301,-0.170898,0.184082,-5.4375,-22.25,-5.5,-0.724198,-1.35181,-2.43415
588,-3,1,6,-2,-1,0,-1,-4,0.883301,-0.170898,0.184082,-5.4375,-22.25,-5.5,-0.724198,-1.35181,-2.43415
609,-1,-3,-4,-3,-1,0,-3,-2,0.883301,-0.170898,0.184082,-5.4375,-22.25,-5.5,-0.724198,-1.35181,-2.43415
609,3,4,-1,0,-1,0,1,4,0.883301,-0.170898,0.184082,-5.4375,-22.25,-5.5,-0.724198,-1.35181,-2.43415
610,-3,-3,-5,-3,-2,-3,-2,-2,0.912109,-0.187012,0.164062,-6.875,-24.4375,-6.5625,-0.74806,-1.35885,-2.41276
610,0,4,4,-1,-1,-3,0,1,0.912109,-0.187012,0.164062,-6.875,-24.4375,-6.5625,-0.74806,-1.35885,-2.41276
622,-4,-1,2,0,0,-1,0,1,0.912109,-0.187012,0.164062,-6.875,-24.4375,-6.5625,-0.74806,-1.35885,-2.41276
622,-2,-1,0,1,0,0,1,0,0.912109,-0.187012,0.164062,-6.875,-24.4375,-6.5625,-0.74806,-1.35885,-2.41276
631,-2,3,-2,0,-2,-1,1,-1,0.913086,-0.182129,0.144043,-8.75,-24.125,-7.1875,-0.773197,-1.36529,-2.3898
631,2,-3,-2,1,0,0,-2,-3,0.913086,-0.182129,0.144043,-8.75,-24.125,-7.1875,-0.773197,-1.36529,-2.3898
646,-3,-5,-12,-2,-2,-3,-1,-1,0.913086,-0.182129,0.144043,-8.75,-24.125,-7.1875,-0.773197,-1.36529,-2.3898
646,0,6,13,0,-1,-2,-1,-1,0.913086,-0.182129,0.144043,-8.75,-24.125,-7.1875,-0.773197,-1.36529,-2.3898
648,0,3,16,-1,0,2,-1,0,0.923828,-0.179688,0.142578,-9.75,-23.5,-5.75,-0.801024,-1.37201,-2.36568
648,-4,-13,-44,-1,-1,0,-2,-3,0.923828,-0.179688,0.142578,-9.75,-23.5,-5.75,-0.801024,-1.37201,-2.36568
669,-2,2,-7,-3,-3,-3,2,3,0.923828,-0.179688,0.142578,-9.75,-23.5,-5.75,-0.801024,-1.37201,-2.36568
669,-2,-10,12,-4,0,-2,-7,-11,0.923828,-0.179688,0.142578,-9.75,-23.5,-5.75,-0.801024,-1.37201,-2.36568
670,-2,-13,0,-1,-3,-3,-3,-7,0.961426,-0.149414,0.141113,-13.875,-22.25,-6.125,-0.826277,-1.37821,-2.34443
670,5,8,13,1,1,1,-2,12,0.961426,-0.149414,0.141113,-13.875,-22.25,-6.125,-0.826277,-1.37821,-2.34443
691,1,15,9,3,2,1,0,-16,0.961426,-0.149414,0.141113,-13.875,-22.25,-6.125,-0.826277,-1.37821,-2.34443
691,-8,-23,-46,-4,0,-1,2,0,0.961426,-0.149414,0.141113,-13.875,-22.25,-6.125,-0.826277,-1.37821,-2.34443
693,-2,10,-4,-4,-4,-2,-3,-4,0.991211,-0.152832,0.118164,-20,-18.875,-4.75,-0.854629,-1.38379,-2.32293
693,0,3,-12,-2,-3,-1,-1,-2,0.991211,-0.152832,0.118164,-20,-18.875,-4.75,-0.854629,-1.38379,-2.32293
705,1,20,33,-1,-3,-2,0,6,0.991211,-0.152832,0.118164,-20,-18.875,-4.75,-0.854629,-1.38379,-2.32293
705,-7,-3,-2,-2,-3,-2,-3,-5,0.991211,-0.152832,0.118164,-20,-18.875,-4.75,-0.854629,-1.38379,-2.32293
712,2,-4,21,3,2,1,1,2,1.01904,-0.183105,0.0976562,-13.25,-17.625,-2.625,-0.886522,-1.38822,-2.29557
712,0,11,-8,-1,1,0,0,-1,1.01904,-0.183105,0.0976562,-13.25,-17.625,-2.625,-0.886522,-1.38822,-2.29557
729,-1,-18,-18,0,-1,-2,1,9,1.01904,-0.183105,0.0976562,-13.25,-17.625,-2.625,-0.886522,-1.38822,-2.29557
729,3,-12,-18,-3,-1,-1,-1,0,1.01904,-0.183105,0.0976562,-13.25,-17.625,-2.625,-0.886522,-1.38822,-2.29557
731,0,4,55,2,0,2,-1,2,1.05469,-0.128418,0.0571289,-11.375,-9.8125,-0.6875,-0.908604,-1.39145,-2.27674
731,-1,-6,-25,-2,-1,-4,2,-1,1.05469,-0.128418,0.0571289,-11.375,-9.8125,-0.6875,-0.908604,-1.39145,-2.27674
743,-5,-12,47,-2,-3,-1,-4,-8,1.05469,-0.128418,0.0571289,-11.375,-9.8125,-0.6875,-0.908604,-1.39145,-2.27674
743,6,-21,-26,4,4,5,5,10,1.05469,-0.128418,0.0571289,-11.375,-9.8125,-0.6875,-0.908604,-1.39145,-2.27674
751,-15,5,14,-12,-10,-8,-10,-12,1.06006,-0.115723,0.0742188,-9.1875,-5.5625,0.875,-0.923016,-1.39389,-2.26579
751,4,-2,8,1,0,1,-6,-13,1.06006,-0.115723,0.0742188,-9.1875,-5.5625,0.875,-0.923016,-1.39389,-2.26579
765,5,11,-1,1,1,-1,-1,1,1.06006,-0.115723,0.0742188,-9.1875,-5.5625,0.875,-0.923016,-1.39389,-2.26579
765,1,-8,4,3,-1,1,0,2,1.06006,-0.115723,0.0742188,-9.1875,-5.5625,0.875,-0.923016,-1.39389,-2.26579
772,3,-39,-32,4,3,3,4,4,1.09424,-0.144531,0.034668,-14.5625,-3.5,2.5625,-0.943966,-1.39531,-2.24983
772,5,-5,34,-1,-1,0,1,4,1.09424,-0.144531,0.034668,-14.5625,-3.5,2.5625,-0.943966,-1.39531,-2.24983
788,-5,44,-11,-3,-2,-1,-4,-5,1.09424,-0.144531,0.034668,-14.5625,-3.5,2.5625,-0.943966,-1.39531,-2.24983
788,2,33,40,0,-1,-3,3,-1,1.09424,-0.144531,0.034668,-14.5625,-3.5,2.5625,-0.943966,-1.39531,-2.24983
791,-3,31,-61,1,3,1,0,-5,1.08691,-0.104004,0.0517578,-19.4375,-1.375,2.4375,-0.958642,-1.39711,-2.24245
791,0,-21,3,0,-3,1,1,1,1.08691,-0.104004,0.0517578,-19.4375,-1.375,2.4375,-0.958642,-1.39711,-2.24245
802,-2,-8,28,1,-1,0,-1,-16,1.08691,-0.104004,0.0517578,-19.4375,-1.375,2.4375,-0.958642,-1.39711,-2.24245
802,-8,-2,18,-7,-5,-2,-4,-4,1.08691,-0.104004,0.0517578,-19.4375,-1.375,2.4375,-0.958642,-1.39711,-2.24245
811,0,-56,-23,-2,-2,-3,0,1,1.0835,-0.110352,0.0561523,-20.75,-2.25,1.8125,-0.973566,-1.39868,-2.23473
811,0,-30,-46,3,2,-4,1,-1,1.0835,-0.110352,0.0561523,-20.75,-2.25,1.8125,-0.973566,-1.39868,-2.23473
825,4,-22,24,1,0,-6,0,7,1.0835,-0.110352,0.0561523,-20.75,-2.25,1.8125,-0.973566,-1.39868,-2.23473
825,3,43,9,2,-2,0,0,2,1.0835,-0.110352,0.0561523,-20.75,-2.25,1.8125,-0.973566,-1.39868,-2.23473
832,-1,70,12,-1,-1,0,-3,0,1.08447,-0.0693359,0.0195312,-29.9375,-1,-1.375,-0.986916,-1.40149,-2.23108
832,-2,127,-11,-2,-1,5,-2,-2,1.08447,-0.0693359,0.0195312,-29.9375,-1,-1.375,-0.986916,-1.40149,-2.23108
848,-5,101,-26,-1,-2,0,-1,3,1.08447,-0.0693359,0.0195312,-29.9375,-1,-1.375,-0.986916,-1.40149,-2.23108
848,-3,75,-3,-3,-1,-2,-1,-2,1.08447,-0.0693359,0.0195312,-29.9375,-1,-1.375,-0.986916,-1.40149,-2.23108
850,5,64,-5,1,1,2,1,2,1.08496,-0.0385742,0.043457,-33.5,-2.6875,-6,-0.994143,-1.40705,-2.23585
850,4,5,25,0,-2,-4,-2,1,1.08496,-0.0385742,0.043457,-33.5,-2.6875,-6,-0.994143,-1.40705,-2.23585
862,-8,-56,-12,-2,0,0,-3,-4,1.08496,-0.0385742,0.043457,-33.5,-2.6875,-6,-0.994143,-1.40705,-2.23585
862,-1,96,-4,0,-1,0,-1,-1,1.08496,-0.0385742,0.043457,-33.5,-2.6875,-6,-0.994143,-1.40705,-2.23585
871,3,63,-4,2,0,-1,2,2,1.12988,-0.000488281,0.0229492,-39.1875,-4.9375,-10.9375,-1.00083,-1.41513,-2.24285
871,-4,39,17,-1,1,-1,-5,1,1.12988,-0.000488281,0.0229492,-39.1875,-4.9375,-10.9375,-1.00083,-1.41513,-2.24285
885,2,-44,-18,-4,-2,-1,5,1,1.12988,-0.000488281,0.0229492,-39.1875,-4.9375,-10.9375,-1.00083,-1.41513,-2.24285
885,-2,-4,-11,-1,-1,-1,0,-2,1.12988,-0.000488281,0.0229492,-39.1875,-4.9375,-10.9375,-1.00083,-1.41513,-2.24285
892,-3,-16,-2,0,-1,-1,-1,-1,1.19189,0.0400391,-0.0195312,-45.625,-1.625,-15.8125,-0.999891,-1.42559,-2.26006
892,-4,-51,6,-2,-2,-1,0,0,1.19189,0.0400391,-0.0195312,-45.625,-1.625,-15.8125,-0.999891,-1.42559,-2.26006
909,-3,-52,-14,-2,-3,0,-5,1,1.19189,0.0400391,-0.0195312,-45.625,-1.625,-15.8125,-0.999891,-1.42559,-2.26006
909,-2,-72,-2,-1,2,1,1,-2,1.19189,0.0400391,-0.0195312,-45.625,-1.625,-15.8125,-0.999891,-1.42559,-2.26006
910,5,-57,2,0,1,-1,0,2,1.19678,0.104004,-0.0380859,-57.25,3.625,-21.1875,-0.980003,-1.43787,-2.30055
910,-4,-66,13,1,0,0,0,-2,1.19678,0.104004,-0.0380859,-57.25,3.625,-21.1875,-0.980003,-1.43787,-2.30055
932,4,-51,-3,0,-1,0,-2,2,1.19678,0.104004,-0.0380859,-57.25,3.625,-21.1875,-0.980003,-1.43787,-2.30055
932,-3,-59,-38,-12,-1,0,-1,-2,1.19678,0.104004,-0.0380859,-57.25,3.625,-21.1875,-0.980003,-1.43787,-2.30055
933,-5,-62,-12,-3,-1,-3,-1,-2,1.17236,0.0717773,-0.0200195,-63.375,2.625,-21.875,-0.958471,-1.449,-2.34479
933,-3,-50,-3,-1,-3,-1,0,-1,1.17236,0.0717773,-0.0200195,-63.375,2.625,-21.875,-0.958471,-1.449,-2.34479
946,4,-20,-1,4,2,1,-1,3,1.17236,0.0717773,-0.0200195,-63.375,2.625,-21.875,-0.958471,-1.449,-2.34479
946,-8,-48,10,1,-3,-3,-3,-7,1.17236,0.0717773,-0.0200195,-63.375,2.625,-21.875,-0.958471,-1.449,-2.34479
953,0,-32,3,0,0,0,-2,0,1.15967,0.0600586,-0.019043,-54.6875,-1.125,-27.125,-0.929009,-1.46133,-2.39327
953,-2,-19,-2,-2,-2,0,-1,-1,1.15967,0.0600586,-0.019043,-54.6875,-1.125,-27.125,-0.929009,-1.46133,-2.39327
969,0,-5,6,0,-1,1,1,2,1.15967,0.0600586,-0.019043,-54.6875,-1.125,-27.125,-0.929009,-1.46133,-2.39327
969,2,-26,0,1,-1,-1,-3,2,1.15967,0.0600586,-0.019043,-54.6875,-1.125,-27.125,-0.929009,-1.46133,-2.39327
971,-6,-17,-3,-2,-1,0,1,0,1.11914,-0.0507812,-0.0224609,-46.0625,-0.1875,-20.125,-0.917394,-1.46916,-2.42129
971,-7,9,-1,-1,-2,-2,-3,-3,1.11914,-0.0507812,-0.0224609,-46.0625,-0.1875,-20.125,-0.917394,-1.46916,-2.42129
991,-1,-19,-14,-2,-2,-2,-2,-1,1.11914,-0.0507812,-0.0224609,-46.0625,-0.1875,-20.125,-0.917394,-1.46916,-2.42129
991,4,-13,4,4,-1,-2,0,3,1.11914,-0.0507812,-0.0224609,-46.0625,-0.1875,-20.125,-0.917394,-1.46916,-2.42129
993,1,5,0,1,-1,-2,-1,2,1.11279,-0.113281,0.0678711,-28.0625,0.25,-13.3125,-0.902255,-1.472,-2.44592
993,-1,7,1,1,1,1,0,0,1.11279,-0.113281,0.0678711,-28.0625,0.25,-13.3125,-0.902255,-1.472,-2.44592
1007,-5,15,3,-2,-1,-3,-3,-2,1.11279,-0.113281,0.0678711,-28.0625,0.25,-13.3125,-0.902255,-1.472,-2.44592
1007,-4,-9,-9,-3,-3,-2,-1,-11,1.11279,-0.113281,0.0678711,-28.0625,0.25,-13.3125,-0.902255,-1.472,-2.44592
1014,-5,-15,-10,-4,-3,-2,-3,-6,1.11133,-0.125977,0.0478516,-8.25,1,-9,-0.892515,-1.47343,-2.45828
1014,2,-4,0,-3,-2,-3,0,-1,1.11133,-0.125977,0.0478516,-8.25,1,-9,-0.892515,-1.47343,-2.45828
1029,4,6,1,3,2,1,0,-1,1.11133,-0.125977,0.0478516,-8.25,1,-9,-0.892515,-1.47343,-2.45828
1029,-6,1,8,-2,-3,-3,-4,2,1.11133,-0.125977,0.0478516,-8.25,1,-9,-0.892515,-1.47343,-2.45828
1030,0,9,4,1,0,0,-1,2,1.03809,-0.165039,0.143066,6.0625,-1.8125,-3.9375,-0.88552,-1.47316,-2.46476
1030,2,-1,-1,0,0,1,1,7,1.03809,-0.165039,0.143066,6.0625,-1.8125,-3.9375,-0.88552,-1.47316,-2.46476
1052,-1,-3,-5,-1,0,1,2,-4,1.03809,-0.165039,0.143066,6.0625,-1.8125,-3.9375,-0.88552,-1.47316,-2.46476
1052,0,-5,4,1,0,-1,5,5,1.03809,-0.165039,0.143066,6.0625,-1.8125,-3.9375,-0.88552,-1.47316,-2.46476
1053,-7,-14,-8,-5,-7,-8,-11,-2,1.06592,-0.121582,0.0693359,1.875,-2.5625,-5.8125,-0.884832,-1.47408,-2.46425
1053,-4,-21,0,-1,-1,-3,-4,-5,1.06592,-0.121582,0.0693359,1.875,-2.5625,-5.8125,-0.884832,-1.47408,-2.46425
1065,-3,-16,-1,-2,-1,-2,-3,1,1.06592,-0.121582,0.0693359,1.875,-2.5625,-5.8125,-0.884832,-1.47408,-2.46425
1065,4,-6,11,1,-1,1,5,-1,1.06592,-0.121582,0.0693359,1.875,-2.5625,-5.8125,-0.884832,-1.47408,-2.46425
1074,13,25,-3,7,6,11,27,14,1.08447,0.00830078,0.112793,-1.125,0.9375,-18.875,-0.814236,-1.47924,-2.53482
1074,-7,-57,-25,-4,-3,-7,-9,-5,1.08447,0.00830078,0.112793,-1.125,0.9375,-18.875,-0.814236,-1.47924,-2.53482
1089,-2,44,0,0,0,1,-2,-2,1.08447,0.00830078,0.112793,-1.125,0.9375,-18.875,-0.814236,-1.47924,-2.53482
1089,18,67,98,13,6,4,-1,19,1.08447,0.00830078,0.112793,-1.125,0.9375,-18.875,-0.814236,-1.47924,-2.53482
1096,-28,48,-83,-20,-11,-7,-11,-32,1.0083,0.0151367,0.196289,-18,-0.8125,-16.9375,-0.736254,-1.4835,-2.62014
1096,5,79,12,5,5,6,9,16,1.0083,0.0151367,0.196289,-18,-0.8125,-16.9375,-0.736254,-1.4835,-2.62014
1111,7,107,-39,10,3,1,3,0,1.0083,0.0151367,0.196289,-18,-0.8125,-16.9375,-0.736254,-1.4835,-2.62014
1111,-43,41,-11,-45,-26,-17,-11,-33,1.0083,0.0151367,0.196289,-18,-0.8125,-16.9375,-0.736254,-1.4835,-2.62014
1113,-6,-89,-16,-9,-6,-6,-19,5,1.02783,-0.245117,0.0913086,-6.5625,-12.1875,-9.3125,-0.776069,-1.4853,-2.58279
1113,-5,-74,-61,-13,-6,-3,9,-3,1.02783,-0.245117,0.0913086,-6.5625,-12.1875,-9.3125,-0.776069,-1.4853,-2.58279
1134,1,-43,-30,4,-2,-3,-9,-7,1.02783,-0.245117,0.0913086,-6.5625,-12.1875,-9.3125,-0.776069,-1.4853,-2.58279
1134,24,-20,-16,10,11,9,10,11,1.02783,-0.245117,0.0913086,-6.5625,-12.1875,-9.3125,-0.776069,-1.4853,-2.58279
1135,4,14,68,6,0,-3,-5,3,0.953125,-0.233398,0.00927734,-20.125,-2.625,2.875,-0.84103,-1.48304,-2.52506
1135,-7,-2,-26,-4,-2,-1,-4,-5,0.953125,-0.233398,0.00927734,-20.125,-2.625,2.875,-0.84103,-1.48304,-2.52506
1147,1,-12,46,2,0,0,-1,-7,0.953125,-0.233398,0.00927734,-20.125,-2.625,2.875,-0.84103,-1.48304,-2.52506
1147,8,-8,-63,1,-1,-5,0,14,0.953125,-0.233398,0.00927734,-20.125,-2.625,2.875,-0.84103,-1.48304,-2.52506
1156,3,-24,-33,-3,0,6,3,-2,0.810547,-0.389648,0.165527,32.9375,-14.4375,17.5625,-0.941136,-1.47303,-2.41296
1156,8,25,94,12,4,-4,-7,-14,0.810547,-0.389648,0.165527,32.9375,-14.4375,17.5625,-0.941136,-1.47303,-2.41296
1171,-9,-48,-5,-10,-3,0,5,7,0.810547,-0.389648,0.165527,32.9375,-14.4375,17.5625,-0.941136,-1.47303,-2.41296
1171,5,8,-8,18,10,8,10,21,0.810547,-0.389648,0.165527,32.9375,-14.4375,17.5625,-0.941136,-1.47303,-2.41296
1173,-10,-93,6,-12,-6,-11,-17,-21,0.898438,-0.28125,0.0473633,56.75,-19.375,12.5,-1.02877,-1.46898,-2.30524
1173,-6,-28,51,-3,-7,1,6,14,0.898438,-0.28125,0.0473633,56.75,-19.375,12.5,-1.02877,-1.46898,-2.30524
1194,-1,-5,-3,-3,-2,-1,-7,-8,0.898438,-0.28125,0.0473633,56.75,-19.375,12.5,-1.02877,-1.46898,-2.30524
1194,-4,23,-31,-2,-2,-7,-6,-14,0.898438,-0.28125,0.0473633,56.75,-19.375,12.5,-1.02877,-1.46898,-2.30524
1195,13,95,14,6,3,3,8,19,0.967285,0.0844727,0.0810547,60.75,-19.9375,-9.6875,-1.01986,-1.47782,-2.29167
1195,3,49,-3,0,0,0,-2,-6,0.967285,0.0844727,0.0810547,60.75,-19.9375,-9.6875,-1.01986,-1.47782,-2.29167
1207,-5,13,-1,-9,-6,1,-2,4,0.967285,0.0844727,0.0810547,60.75,-19.9375,-9.6875,-1.01986,-1.47782,-2.29167
1207,4,15,16,4,1,7,-1,2,0.967285,0.0844727,0.0810547,60.75,-19.9375,-9.6875,-1.01986,-1.47782,-2.29167
1217,6,60,20,6,1,0,5,2,0.937012,0.271484,0.100586,38.625,-15.75,-22.25,-0.943759,-1.49379,-2.35467
1217,-3,6,-7,-4,1,1,-4,-9,0.937012,0.271484,0.100586,38.625,-15.75,-22.25,-0.943759,-1.49379,-2.35467
1231,-3,5,-12,-5,-3,-1,0,-6,0.937012,0.271484,0.100586,38.625,-15.75,-22.25,-0.943759,-1.49379,-2.35467
1231,-7,-7,8,-1,-1,-2,-5,-25,0.937012,0.271484,0.100586,38.625,-15.75,-22.25,-0.943759,-1.49379,-2.35467
1245,0,18,14,2,1,1,-1,-1,0.959961,0.165527,0.0571289,-16,-7.6875,-18.75,-0.873627,-1.5042,-2.42983
1245,4,60,-39,-4,-3,-3,-1,5,0.959961,0.165527,0.0571289,-16,-7.6875,-18.75,-0.873627,-1.5042,-2.42983
1254,-1,15,9,-2,2,1,3,-2,0.959961,0.165527,0.0571289,-16,-7.6875,-18.75,-0.873627,-1.5042,-2.42983
1254,-1,-5,-4,-3,-3,-2,-4,0,0.959961,0.165527,0.0571289,-16,-7.6875,-18.75,-0.873627,-1.5042,-2.42983
1256,0,112,-3,5,4,3,6,21,0.897461,-0.0629883,0.103027,-58.375,-2.8125,-8.25,-0.864151,-1.50646,-2.46073
1256,-1,77,18,1,1,-1,-1,-8,0.897461,-0.0629883,0.103027,-58.375,-2.8125,-8.25,-0.864151,-1.50646,-2.46073
1268,4,8,36,0,-2,-4,-1,2,0.897461,-0.0629883,0.103027,-58.375,-2.8125,-8.25,-0.864151,-1.50646,-2.46073
1268,-14,-59,-49,-9,-4,-4,-12,-17,0.897461,-0.0629883,0.103027,-58.375,-2.8125,-8.25,-0.864151,-1.50646,-2.46073
1276,2,-52,19,5,4,2,2,9,0.913086,-0.192871,0.0639648,-47.875,-3.625,-8.5625,-0.893489,-1.50701,-2.44917
1276,2,-52,-8,-3,-3,-3,-1,5,0.913086,-0.192871,0.0639648,-47.875,-3.625,-8.5625,-0.893489,-1.50701,-2.44917
1291,-1,-26,4,-1,-1,-1,0,15,0.913086,-0.192871,0.0639648,-47.875,-3.625,-8.5625,-0.893489,-1.50701,-2.44917
1291,-3,-12,0,-1,-1,-1,-7,5,0.913086,-0.192871,0.0639648,-47.875,-3.625,-8.5625,-0.893489,-1.50701,-2.44917
1298,3,-4,5,1,-1,1,-1,-8,0.908203,-0.249512,0.0512695,-13.6875,-5.5,-9.4375,-0.930573,-1.50501,-2.41472
1298,-3,-29,-15,-2,-1,-1,-4,1,0.908203,-0.249512,0.0512695,-13.6875,-5.5,-9.4375,-0.930573,-1.50501,-2.41472
1314,-1,-36,2,1,-2,-2,-2,-4,0.908203,-0.249512,0.0512695,-13.6875,-5.5,-9.4375,-0.930573,-1.50501,-2.41472
1314,-7,9,6,-4,-1,0,3,1,0.908203,-0.249512,0.0512695,-13.6875,-5.5,-9.4375,-0.930573,-1.50501,-2.41472
1315,0,-8,-19,-2,-3,0,2,-4,0.957031,-0.139648,0.0317383,13.4375,-4.5625,-12,-0.929684,-1.50844,-2.41207
1315,-2,-15,6,2,0,0,-10,-19,0.957031,-0.139648,0.0317383,13.4375,-4.5625,-12,-0.929684,-1.50844,-2.41207
1327,2,-30,-8,0,0,0,0,9,0.957031,-0.139648,0.0317383,13.4375,-4.5625,-12,-0.929684,-1.50844,-2.41207
1327,6,-19,18,3,1,0,0,5,0.957031,-0.139648,0.0317383,13.4375,-4.5625,-12,-0.929684,-1.50844,-2.41207
1336,-4,-6,6,-5,-2,-1,-1,-6,0.979004,-0.00292969,0.0268555,10.5,-1.75,-14.5625,-0.872436,-1.51395,-2.466
1336,-2,-36,-11,-3,-2,-1,2,1,0.979004,-0.00292969,0.0268555,10.5,-1.75,-14.5625,-0.872436,-1.51395,-2.466
1350,-7,-9,-5,-2,0,0,-2,-3,0.979004,-0.00292969,0.0268555,10.5,-1.75,-14.5625,-0.872436,-1.51395,-2.466
1350,5,-43,-5,0,2,1,2,0,0.979004,-0.00292969,0.0268555,10.5,-1.75,-14.5625,-0.872436,-1.51395,-2.466
1357,-4,-1,2,-5,-3,-4,-3,-7,1.01123,0.00292969,0.00830078,-9.4375,0.6875,-16.25,-0.803049,-1.51959,-2.53907
1357,2,-20,1,2,-1,0,-1,2,1.01123,0.00292969,0.00830078,-9.4375,0.6875,-16.25,-0.803049,-1.51959,-2.53907
1374,7,11,-1,1,-3,-2,0,-2,1.01123,0.00292969,0.00830078,-9.4375,0.6875,-16.25,-0.803049,-1.51959,-2.53907
1374,-3,19,23,7,2,1,1,0,1.01123,0.00292969,0.00830078,-9.4375,0.6875,-16.25,-0.803049,-1.51959,-2.53907
1376,4,9,-23,-7,1,1,0,-1,1.00732,-0.0395508,0.00292969,-26,2.6875,-16.0625,-0.735123,-1.52489,-2.61777
1376,1,20,-7,-3,0,0,1,-1,1.00732,-0.0395508,0.00292969,-26,2.6875,-16.0625,-0.735123,-1.52489,-2.61777
1396,-2,-35,-9,-4,-2,-1,-1,0,1.00732,-0.0395508,0.00292969,-26,2.6875,-16.0625,-0.735123,-1.52489,-2.61777
1396,-2,-18,9,-1,-2,-2,-2,-2,1.00732,-0.0395508,0.00292969,-26,2.6875,-16.0625,-0.735123,-1.52489,-2.61777
1398,5,14,0,5,1,-1,0,0,1.02979,-0.0644531,-0.0146484,-32.9375,0.1875,-16.5625,-0.684606,-1.52772,-2.67831
1398,-3,-43,-9,-3,-3,-3,-3,0,1.02979,-0.0644531,-0.0146484,-32.9375,0.1875,-16.5625,-0.684606,-1.52772,-2.67831
1411,-1,-14,8,0,1,1,-1,-2,1.02979,-0.0644531,-0.0146484,-32.9375,0.1875,-16.5625,-0.684606,-1.52772,-2.67831
1411,-4,-20,22,8,1,-1,-1,-4,1.02979,-0.0644531,-0.0146484,-32.9375,0.1875,-16.5625,-0.684606,-1.52772,-2.67831
1418,-3,-12,-27,-17,-3,-6,-4,-1,1.04834,-0.0546875,-0.0185547,-28.9375,-3.125,-12.5625,-0.661295,-1.53231,-2.71219
1418,4,-14,-44,-7,0,-1,2,5,1.04834,-0.0546875,-0.0185547,-28.9375,-3.125,-12.5625,-0.661295,-1.53231,-2.71219
1434,5,-38,3,-1,0,0,1,4,1.04834,-0.0546875,-0.0185547,-28.9375,-3.125,-12.5625,-0.661295,-1.53231,-2.71219
1434,-5,-6,10,-1,-1,2,2,-9,1.04834,-0.0546875,-0.0185547,-28.9375,-3.125,-12.5625,-0.661295,-1.53231,-2.71219
1436,-12,-32,22,7,-2,-5,-5,-24,1.07959,-0.0566406,-0.0444336,-25.8125,-6.375,-9.25,-0.684293,-1.53778,-2.69899
1436,1,-56,-30,3,1,-1,-2,2,1.07959,-0.0566406,-0.0444336,-25.8125,-6.375,-9.25,-0.684293,-1.53778,-2.69899
1456,-4,7,24,-6,-1,-3,-1,-1,1.07959,-0.0566406,-0.0444336,-25.8125,-6.375,-9.25,-0.684293,-1.53778,-2.69899
1456,1,-24,12,-4,-5,-6,-5,-3,1.07959,-0.0566406,-0.0444336,-25.8125,-6.375,-9.25,-0.684293,-1.53778,-2.69899
1458,-4,18,3,3,-1,0,0,1,1.07422,-0.0141602,0.0107422,-15.4375,-3.75,-1.625,-0.704204,-1.53716,-2.68199
1458,13,63,17,14,7,4,5,0,1.07422,-0.0141602,0.0107422,-15.4375,-3.75,-1.625,-0.704204,-1.53716,-2.68199
1471,-14,-72,-28,-13,-9,-9,-10,-12,1.07422,-0.0141602,0.0107422,-15.4375,-3.75,-1.625,-0.704204,-1.53716,-2.68199
1471,5,3,-5,-2,-1,0,2,8,1.07422,-0.0141602,0.0107422,-15.4375,-3.75,-1.625,-0.704204,-1.53716,-2.68199
1477,3,-24,23,2,-1,-1,-1,5,1.06348,-0.0410156,-0.0141602,-7.4375,-1.8125,7.5625,-0.800359,-1.53854,-2.59111
1477,-4,-7,33,4,1,-1,-1,-4,1.06348,-0.0410156,-0.0141602,-7.4375,-1.8125,7.5625,-0.800359,-1.53854,-2.59111
1494,2,12,-59,4,5,3,4,3,1.06348,-0.0410156,-0.0141602,-7.4375,-1.8125,7.5625,-0.800359,-1.53854,-2.59111
1494,0,0,19,-6,-6,-5,-2,-1,1.06348,-0.0410156,-0.0141602,-7.4375,-1.8125,7.5625,-0.800359,-1.53854,-2.59111
1496,-2,3,0,-1,-3,0,1,0,1.04395,-0.0239258,-0.0654297,-10.25,-4.0625,9,-0.936963,-1.5388,-2.45907
1496,-8,19,-1,-6,-4,-3,-1,1,1.04395,-0.0239258,-0.0654297,-10.25,-4.0625,9,-0.936963,-1.5388,-2.45907
1516,-8,14,-13,-2,-2,-3,-1,-4,1.04395,-0.0239258,-0.0654297,-10.25,-4.0625,9,-0.936963,-1.5388,-2.45907
1516,0,8,-26,-4,-1,-3,-4,2,1.04395,-0.0239258,-0.0654297,-10.25,-4.0625,9,-0.936963,-1.5388,-2.45907
1524,11,-20,-7,6,4,1,1,6,1.04492,0.03125,0.0297852,0.75,-10.25,7.4375,-1.02966,-1.53765,-2.36334
1524,1,4,22,-1,-3,0,-2,1,1.04492,0.03125,0.0297852,0.75,-10.25,7.4375,-1.02966,-1.53765,-2.36334
1532,-5,-1,9,1,0,0,1,-3,1.04492,0.03125,0.0297852,0.75,-10.25,7.4375,-1.02966,-1.53765,-2.36334
1532,1,27,-40,-2,1,0,0,-2,1.04492,0.03125,0.0297852,0.75,-10.25,7.4375,-1.02966,-1.53765,-2.36334
1533,3,-11,-28,3,2,2,1,2,1.0376,0.00537109,0.00683594,2,-13.125,6.625,-1.17249,-1.54049,-2.22306
1533,-8,-21,56,-7,-4,-5,-5,-3,1.0376,0.00537109,0.00683594,2,-13.125,6.625,-1.17249,-1.54049,-2.22306
1556,17,31,-32,15,6,2,3,5,1.0376,0.00537109,0.00683594,2,-13.125,6.625,-1.17249,-1.54049,-2.22306
1556,-4,3,-30,-11,-2,-2,-1,-1,1.0376,0.00537109,0.00683594,2,-13.125,6.625,-1.17249,-1.54049,-2.22306
1557,-21,-32,34,-9,-11,-10,-8,-12,1.06152,0.0678711,0.0385742,13.5625,-14.875,1,-1.27422,-1.54262,-2.11452
1557,-14,-12,-49,-16,-10,-5,-5,-12,1.06152,0.0678711,0.0385742,13.5625,-14.875,1,-1.27422,-1.54262,-2.11452
1577,-4,36,24,-3,-2,-4,-4,-3,1.06152,0.0678711,0.0385742,13.5625,-14.875,1,-1.27422,-1.54262,-2.11452
1577,6,13,32,5,3,2,3,5,1.06152,0.0678711,0.0385742,13.5625,-14.875,1,-1.27422,-1.54262,-2.11452
1578,1,-26,-72,-3,1,1,0,1,1.00537,0.0141602,0.0244141,11.8125,-16.75,2.625,-1.44894,-1.54722,-1.94148
1578,2,12,24,5,1,2,1,-1,1.00537,0.0141602,0.0244141,11.8125,-16.75,2.625,-1.44894,-1.54722,-1.94148
1590,-2,-6,23,-1,-2,0,-1,0,1.00537,0.0141602,0.0244141,11.8125,-16.75,2.625,-1.44894,-1.54722,-1.94148
1590,-2,9,-44,-2,-2,-1,-5,-3,1.00537,0.0141602,0.0244141,11.8125,-16.75,2.625,-1.44894,-1.54722,-1.94148
1598,2,14,5,-1,1,1,0,1,1.03516,0.0336914,-0.0146484,-0.6875,-10.75,5.75,-1.58951,-1.54453,-1.79702
1598,-1,-33,0,2,-1,-1,2,2,1.03516,0.0336914,-0.0146484,-0.6875,-10.75,5.75,-1.58951,-1.54453,-1.79702
1613,-4,-10,10,0,1,0,1,-2,1.03516,0.0336914,-0.0146484,-0.6875,-10.75,5.75,-1.58951,-1.54453,-1.79702
1613,3,1,-7,-1,-1,2,3,4,1.03516,0.0336914,-0.0146484,-0.6875,-10.75,5.75,-1.58951,-1.54453,-1.79702
1615,5,-60,20,1,1,0,2,1,1.03223,0.034668,0.000488281,0.1875,-11,0.3125,-1.7201,-1.54473,-1.66475
1615,1,-23,-16,1,0,-2,-1,-1,1.03223,0.034668,0.000488281,0.1875,-11,0.3125,-1.7201,-1.54473,-1.66475
1637,-4,7,33,-3,-5,-4,-3,-3,1.03223,0.034668,0.000488281,0.1875,-11,0.3125,-1.7201,-1.54473,-1.66475
1637,-4,5,15,-1,-2,-3,-5,-3,1.03223,0.034668,0.000488281,0.1875,-11,0.3125,-1.7201,-1.54473,-1.66475
1637,-3,39,3,1,2,3,-1,-6,1.05029,0.0463867,-0.0205078,-13.5625,-12.1875,-5,-1.92175,-1.54796,-1.46931
1637,-2,24,-15,1,1,1,1,4,1.05029,0.0463867,-0.0205078,-13.5625,-12.1875,-5,-1.92175,-1.54796,-1.46931
1650,-1,3,-16,-3,-1,0,-2,-3,1.05029,0.0463867,-0.0205078,-13.5625,-12.1875,-5,-1.92175,-1.54796,-1.46931
1650,0,6,13,0,0,1,3,4,1.05029,0.0463867,-0.0205078,-13.5625,-12.1875,-5,-1.92175,-1.54796,-1.46931
1667,-1,31,-4,-3,-3,-3,-3,-4,1.06494,0.0419922,-0.0605469,-10,-13.5625,-10.875,-2.23328,-1.55251,-1.16424
1667,-1,27,1,0,0,0,-1,-1,1.06494,0.0419922,-0.0605469,-10,-13.5625,-10.875,-2.23328,-1.55251,-1.16424
1673,-4,24,2,0,-1,-1,-1,-3,1.06494,0.0419922,-0.0605469,-10,-13.5625,-10.875,-2.23328,-1.55251,-1.16424
1673,1,15,7,-2,-1,1,0,0,1.06494,0.0419922,-0.0605469,-10,-13.5625,-10.875,-2.23328,-1.55251,-1.16424
1676,8,47,16,3,0,3,3,6,1.09863,0.0551758,-0.128906,-10.375,-10.5625,-13.125,-2.60283,-1.54851,-0.792397
1676,-4,22,-1,-2,0,0,-1,-1,1.09863,0.0551758,-0.128906,-10.375,-10.5625,-13.125,-2.60283,-1.54851,-0.792397
1696,-1,25,-9,-7,0,-3,0,0,1.09863,0.0551758,-0.128906,-10.375,-10.5625,-13.125,-2.60283,-1.54851,-0.792397
1696,0,-1,1,0,-2,-3,-2,-4,1.09863,0.0551758,-0.128906,-10.375,-10.5625,-13.125,-2.60283,-1.54851,-0.792397
1698,-5,9,1,0,0,-1,-3,-1,1.06689,0.0820312,-0.112793,-25.25,-4.875,-12.4375,-2.91366,-1.5519,-0.491824
1698,-5,25,-12,-6,-3,-2,-3,-3,1.06689,0.0820312,-0.112793,-25.25,-4.875,-12.4375,-2.91366,-1.5519,-0.491824
1719,1,-3,-11,-3,-2,2,-1,-1,1.06592,0.078125,-0.103516,-37.875,-5.6875,-16.875,3.06219,-1.54346,-0.193782
1719,7,5,5,2,7,8,8,5,1.06592,0.078125,-0.103516,-37.875,-5.6875,-16.875,3.06219,-1.54346,-0.193782
1719,-6,1,3,-5,-6,-7,-5,-10,1.06592,0.078125,-0.103516,-37.875,-5.6875,-16.875,3.06219,-1.54346,-0.193782
1719,-3,-18,0,1,-6,-9,-7,1,1.06592,0.078125,-0.103516,-37.875,-5.6875,-16.875,3.06219,-1.54346,-0.193782
1733,2,-12,8,-3,-2,-3,-2,0,1.07861,0.0810547,-0.0507812,-37.75,-4.8125,-27.5,2.71884,-1.54073,0.138578
1733,-9,31,-12,-8,-5,-6,-5,-5,1.07861,0.0810547,-0.0507812,-37.75,-4.8125,-27.5,2.71884,-1.54073,0.138578
1734,7,11,8,5,5,6,5,7,1.07861,0.0810547,-0.0507812,-37.75,-4.8125,-27.5,2.71884,-1.54073,0.138578
1734,7,-25,0,2,4,3,5,-4,1.07861,0.0810547,-0.0507812,-37.75,-4.8125,-27.5,2.71884,-1.54073,0.138578
1756,-9,-14,-6,0,-2,-2,-2,0,1.04883,0.0351562,-0.078125,-29.875,-4.0625,-31.25,2.48785,-1.53215,0.360129
1756,-5,-36,5,-1,-3,-4,-7,-6,1.04883,0.0351562,-0.078125,-29.875,-4.0625,-31.25,2.48785,-1.53215,0.360129
1757,11,-25,-2,1,1,1,3,11,1.04883,0.0351562,-0.078125,-29.875,-4.0625,-31.25,2.48785,-1.53215,0.360129
1757,-8,-13,-2,-1,-3,-3,-5,-16,1.04883,0.0351562,-0.078125,-29.875,-4.0625,-31.25,2.48785,-1.53215,0.360129
1779,9,-13,2,1,-2,-1,0,5,1.07666,0.115723,-0.108887,-35.25,-3.875,-27.0625,2.33807,-1.52126,0.497188
1779,0,-13,3,2,1,2,-2,-11,1.07666,0.115723,-0.108887,-35.25,-3.875,-27.0625,2.33807,-1.52126,0.497188
1780,0,-10,0,-3,-4,-5,-3,4,1.07666,0.115723,-0.108887,-35.25,-3.875,-27.0625,2.33807,-1.52126,0.497188
1780,9,-5,4,0,3,4,6,11,1.07666,0.115723,-0.108887,-35.25,-3.875,-27.0625,2.33807,-1.52126,0.497188
1794,1,0,-2,2,0,0,-2,-2,1.1084,0.151855,-0.108887,-55.9375,1.1875,-23.625,2.21319,-1.51135,0.60171
1794,-1,3,0,0,-4,-4,-1,3,1.1084,0.151855,-0.108887,-55.9375,1.1875,-23.625,2.21319,-1.51135,0.60171
1800,-4,0,-4,-3,-2,-2,-4,-5,1.1084,0.151855,-0.108887,-55.9375,1.1875,-23.625,2.21319,-1.51135,0.60171
1800,3,-3,0,2,2,5,15,-4,1.1084,0.151855,-0.108887,-55.9375,1.1875,-23.625,2.21319,-1.51135,0.60171
1815,9,3,-2,2,2,10,19,25,1.07666,0.0224609,-0.0859375,-58.625,6.3125,-14.3125,2.13979,-1.50911,0.65573
1815,0,-1,-5,-4,-6,-12,-16,-4,1.07666,0.0224609,-0.0859375,-58.625,6.3125,-14.3125,2.13979,-1.50911,0.65573
1816,-38,-6,-1,-7,-8,-18,-42,-47,1.07666,0.0224609,-0.0859375,-58.625,6.3125,-14.3125,2.13979,-1.50911,0.65573
1816,-19,-12,0,-4,-5,-6,-9,1,1.07666,0.0224609,-0.0859375,-58.625,6.3125,-14.3125,2.13979,-1.50911,0.65573
1838,6,10,0,1,0,0,-5,-8,1.08545,0.00390625,-0.102051,-43.4375,13.5625,-7.1875,2.07558,-1.51017,0.70583
1838,-3,-15,0,3,5,5,17,12,1.08545,0.00390625,-0.102051,-43.4375,13.5625,-7.1875,2.07558,-1.51017,0.70583
1838,17,4,-3,2,2,5,10,14,1.08545,0.00390625,-0.102051,-43.4375,13.5625,-7.1875,2.07558,-1.51017,0.70583
1838,-5,8,-4,-1,1,-2,-6,-4,1.08545,0.00390625,-0.102051,-43.4375,13.5625,-7.1875,2.07558,-1.51017,0.70583
1853,-2,-26,1,-1,1,-1,8,8,1.125,0.059082,-0.027832,-38.5,25,-5.625,1.92187,-1.5112,0.845235
1853,23,-87,1,1,0,2,3,-12,1.125,0.059082,-0.027832,-38.5,25,-5.625,1.92187,-1.5112,0.845235
1854,-14,-126,-5,-2,-3,-4,-4,2,1.125,0.059082,-0.027832,-38.5,25,-5.625,1.92187,-1.5112,0.845235
1854,3,-105,-2,-1,1,-1,-2,20,1.125,0.059082,-0.027832,-38.5,25,-5.625,1.92187,-1.5112,0.845235
1875,-10,-108,-8,-4,-1,-2,-3,-19,1.06445,0.0625,0.00634766,-34.5625,31.6875,-0.5,1.72247,-1.51511,1.03534
1875,-11,-9,-1,-1,0,-3,-10,-9,1.06445,0.0625,0.00634766,-34.5625,31.6875,-0.5,1.72247,-1.51511,1.03534
1876,-11,28,-2,-1,-4,-3,4,-1,1.06445,0.0625,0.00634766,-34.5625,31.6875,-0.5,1.72247,-1.51511,1.03534
1876,3,67,0,0,0,2,1,-10,1.06445,0.0625,0.00634766,-34.5625,31.6875,-0.5,1.72247,-1.51511,1.03534
1898,11,85,2,-2,-2,-4,-3,-8,1.04736,0.00927734,0.0332031,-31.75,37.25,6.9375,1.4654,-1.51792,1.2797
1898,-21,45,-2,-3,-1,0,-1,1,1.04736,0.00927734,0.0332031,-31.75,37.25,6.9375,1.4654,-1.51792,1.2797
1899,-3,48,-5,-5,-2,0,6,-8,1.04736,0.00927734,0.0332031,-31.75,37.25,6.9375,1.4654,-1.51792,1.2797
1899,13,52,0,0,1,2,5,5,1.04736,0.00927734,0.0332031,-31.75,37.25,6.9375,1.4654,-1.51792,1.2797
1912,-27,49,-2,-2,-2,-3,-19,-11,1.04688,0.019043,0.0581055,-34.1875,42.625,11.0625,1.14725,-1.51754,1.58498
1912,3,26,-1,-2,-1,-1,1,7,1.04688,0.019043,0.0581055,-34.1875,42.625,11.0625,1.14725,-1.51754,1.58498
1914,12,-52,4,2,6,8,13,22,1.04688,0.019043,0.0581055,-34.1875,42.625,11.0625,1.14725,-1.51754,1.58498
1914,11,-12,-1,-2,-3,0,2,-21,1.04688,0.019043,0.0581055,-34.1875,42.625,11.0625,1.14725,-1.51754,1.58498
1936,21,-51,3,1,2,1,5,8,1.02148,-0.0244141,0.0957031,-28.9375,42,13.625,0.831876,-1.51477,1.89175
1936,-18,-46,-1,-5,-4,-9,-22,-6,1.02148,-0.0244141,0.0957031,-28.9375,42,13.625,0.831876,-1.51477,1.89175
1936,-16,1,0,-2,-2,-2,-11,-13,1.02148,-0.0244141,0.0957031,-28.9375,42,13.625,0.831876,-1.51477,1.89175
1936,5,30,1,-3,-4,-5,-1,12,1.02148,-0.0244141,0.0957031,-28.9375,42,13.625,0.831876,-1.51477,1.89175
1958,-2,60,4,3,2,7,16,0,1.01123,-0.0795898,0.134766,-18.9375,42.0625,17.125,0.539611,-1.50681,2.1767
1958,62,-87,5,4,4,4,13,56,1.01123,-0.0795898,0.134766,-18.9375,42.0625,17.125,0.539611,-1.50681,2.1767
1959,-43,-23,-5,-2,-4,-3,-6,-26,1.01123,-0.0795898,0.134766,-18.9375,42.0625,17.125,0.539611,-1.50681,2.1767
1959,-40,-13,0,0,-2,-5,-11,-19,1.01123,-0.0795898,0.134766,-18.9375,42.0625,17.125,0.539611,-1.50681,2.1767
1973,-29,50,-9,-3,-7,-8,-12,-15,0.967773,-0.0888672,0.149902,-7.25,43,19.5,0.312994,-1.4952,2.40078
1973,-7,59,1,2,1,4,9,9,0.967773,-0.0888672,0.149902,-7.25,43,19.5,0.312994,-1.4952,2.40078
1974,44,35,2,4,2,5,12,5,0.967773,-0.0888672,0.149902,-7.25,43,19.5,0.312994,-1.4952,2.40078
1974,15,38,0,2,2,3,0,17,0.967773,-0.0888672,0.149902,-7.25,43,19.5,0.312994,-1.4952,2.40078
1996,-7,26,-5,-1,-2,-2,-3,-9,0.967773,-0.0888672,0.205078,2.375,44.8125,20.1875,0.152629,-1.47909,2.56192
1996,-6,40,-3,-5,-3,-1,-3,-24,0.967773,-0.0888672,0.205078,2.375,44.8125,20.1875,0.152629,-1.47909,2.56192
1996,11,19,1,-1,0,3,1,11,0.967773,-0.0888672,0.205078,2.375,44.8125,20.1875,0.152629,-1.47909,2.56192
1996,-9,25,-8,-4,-4,-4,-3,-9,0.967773,-0.0888672,0.205078,2.375,44.8125,20.1875,0.152629,-1.47909,2.56192
2018,11,7,6,2,2,-1,-5,0,0.943359,-0.0917969,0.189941,6.6875,43.75,21.875,0.0392811,-1.46306,2.67815
2018,1,14,1,3,2,3,-1,-13,0.943359,-0.0917969,0.189941,6.6875,43.75,21.875,0.0392811,-1.46306,2.67815
2019,-7,26,9,-5,-2,-3,-1,0,0.943359,-0.0917969,0.189941,6.6875,43.75,21.875,0.0392811,-1.46306,2.67815
2019,-7,2,-29,-7,-1,0,-7,10,0.943359,-0.0917969,0.189941,6.6875,43.75,21.875,0.0392811,-1.46306,2.67815
2033,11,-5,-7,1,0,0,13,20,0.878418,-0.130371,0.249512,16.125,39.25,30.375,-0.0688605,-1.44553,2.7921
2033,-24,17,-8,-9,-9,-7,-15,-29,0.878418,-0.130371,0.249512,16.125,39.25,30.375,-0.0688605,-1.44553,2.7921
2034,4,7,5,-1,2,0,4,5,0.878418,-0.130371,0.249512,16.125,39.25,30.375,-0.0688605,-1.44553,2.7921
2034,12,-3,10,4,-1,0,2,2,0.878418,-0.130371,0.249512,16.125,39.25,30.375,-0.0688605,-1.44553,2.7921
2056,2,-7,1,-1,-2,-2,-4,3,0.85791,-0.126953,0.183594,19.3125,30.875,37.125,-0.167339,-1.43141,2.89785
2056,-10,12,-2,1,1,1,3,-6,0.85791,-0.126953,0.183594,19.3125,30.875,37.125,-0.167339,-1.43141,2.89785
2057,7,2,6,7,3,2,3,8,0.85791,-0.126953,0.183594,19.3125,30.875,37.125,-0.167339,-1.43141,2.89785
2057,-2,-6,-6,3,3,0,-1,-6,0.85791,-0.126953,0.183594,19.3125,30.875,37.125,-0.167339,-1.43141,2.89785
2078,-5,3,1,2,0,-1,-5,-8,0.870117,-0.0375977,0.16748,29.125,25.1875,36.375,-0.22969,-1.41897,2.9711
2078,-3,4,3,-2,-1,0,6,22,0.870117,-0.0375977,0.16748,29.125,25.1875,36.375,-0.22969,-1.41897,2.9711
2079,5,57,-4,-6,-6,-4,-4,-13,0.870117,-0.0375977,0.16748,29.125,25.1875,36.375,-0.22969,-1.41897,2.9711
2079,1,94,4,-3,-2,-2,1,5,0.870117,-0.0375977,0.16748,29.125,25.1875,36.375,-0.22969,-1.41897,2.9711
2093,-1,90,-2,-8,0,1,-6,-8,0.87793,-0.0649414,0.191895,9.875,25.8125,36.1875,-0.290218,-1.40586,3.03578
2093,-4,98,0,-2,-3,-3,0,11,0.87793,-0.0649414,0.191895,9.875,25.8125,36.1875,-0.290218,-1.40586,3.03578
2094,1,41,-7,2,1,1,-2,-8,0.87793,-0.0649414,0.191895,9.875,25.8125,36.1875,-0.290218,-1.40586,3.03578
2094,5,20,6,3,2,0,-10,0,0.87793,-0.0649414,0.191895,9.875,25.8125,36.1875,-0.290218,-1.40586,3.03578
2116,5,-1,-10,-4,-3,-2,-5,-10,0.827637,-0.177246,0.180176,-2.625,24.9375,36.375,-0.359343,-1.3919,3.10443
2116,-16,-19,1,-3,-2,-3,-9,-19,0.827637,-0.177246,0.180176,-2.625,24.9375,36.375,-0.359343,-1.3919,3.10443
2123,-5,-2,3,2,0,0,2,15,0.827637,-0.177246,0.180176,-2.625,24.9375,36.375,-0.359343,-1.3919,3.10443
2123,13,-18,7,1,0,2,-1,-32,0.827637,-0.177246,0.180176,-2.625,24.9375,36.375,-0.359343,-1.3919,3.10443
2147,43,-13,3,1,2,3,17,44,0.808594,-0.243164,0.233398,8.625,23.4375,36.375,-0.419039,-1.37583,-3.1155
2147,-60,-19,-12,-2,-5,-7,-6,-55,0.808594,-0.243164,0.233398,8.625,23.4375,36.375,-0.419039,-1.37583,-3.1155
2147,-14,-12,1,-1,-2,-5,-8,-30,0.808594,-0.243164,0.233398,8.625,23.4375,36.375,-0.419039,-1.37583,-3.1155
2147,28,-32,2,1,1,0,-8,-14,0.808594,-0.243164,0.233398,8.625,23.4375,36.375,-0.419039,-1.37583,-3.1155
2153,-27,-30,-5,-2,-4,-4,-7,12,0.83252,-0.233887,0.307617,28.5,17.875,32.375,-0.455612,-1.36026,-3.06835
2153,55,-17,12,9,4,8,16,47,0.83252,-0.233887,0.307617,28.5,17.875,32.375,-0.455612,-1.36026,-3.06835
2154,-27,-70,-11,-5,-2,0,8,-16,0.83252,-0.233887,0.307617,28.5,17.875,32.375,-0.455612,-1.36026,-3.06835
2154,-41,-77,0,-3,-6,-3,17,-4,0.83252,-0.233887,0.307617,28.5,17.875,32.375,-0.455612,-1.36026,-3.06835
2176,-5,-103,-4,-2,-5,-8,-15,-37,0.873535,-0.239258,0.391602,43.875,8.6875,31.25,-0.482319,-1.34663,-3.02558
2176,32,-116,6,6,7,11,13,37,0.873535,-0.239258,0.391602,43.875,8.6875,31.25,-0.482319,-1.34663,-3.02558
2177,26,-50,9,-5,8,17,6,-23,0.873535,-0.239258,0.391602,43.875,8.6875,31.25,-0.482319,-1.34663,-3.02558
2177,6,24,-13,-19,-12,-9,-3,29,0.873535,-0.239258,0.391602,43.875,8.6875,31.25,-0.482319,-1.34663,-3.02558
2198,-9,82,0,-3,-10,-13,3,-19,1.00439,-0.23291,0.520508,62,-1.75,37.3125,-0.505848,-1.33345,-2.97912
2198,-37,94,-1,11,-9,-14,-20,-34,1.00439,-0.23291,0.520508,62,-1.75,37.3125,-0.505848,-1.33345,-2.97912
2199,25,100,-5,-4,-13,-9,-14,-9,1.00439,-0.23291,0.520508,62,-1.75,37.3125,-0.505848,-1.33345,-2.97912
2199,12,99,19,18,30,22,12,-1,1.00439,-0.23291,0.520508,62,-1.75,37.3125,-0.505848,-1.33345,-2.97912
2213,10,76,-7,18,17,3,10,43,1.37891,-0.349121,0.486328,84.375,-16.75,66.9375,-0.573176,-1.3201,-2.87938
2213,114,88,-10,0,8,7,30,18,1.37891,-0.349121,0.486328,84.375,-16.75,66.9375,-0.573176,-1.3201,-2.87938
2214,-32,59,-9,-44,-29,-11,0,-30,1.37891,-0.349121,0.486328,84.375,-16.75,66.9375,-0.573176,-1.3201,-2.87938
2214,-60,27,1,-42,-36,-28,-60,-9,1.37891,-0.349121,0.486328,84.375,-16.75,66.9375,-0.573176,-1.3201,-2.87938
2236,-55,25,-14,22,-38,-14,-15,6,2.12207,-0.243652,0.44043,69,3.9375,88.8125,-0.635189,-1.30326,-2.78985
2236,33,17,20,4,46,30,12,0,2.12207,-0.243652,0.44043,69,3.9375,88.8125,-0.635189,-1.30326,-2.78985
2237,80,5,0,45,69,36,56,39,2.12207,-0.243652,0.44043,69,3.9375,88.8125,-0.635189,-1.30326,-2.78985
2237,-67,-20,2,53,28,12,28,-16,2.12207,-0.243652,0.44043,69,3.9375,88.8125,-0.635189,-1.30326,-2.78985
2259,23,25,70,-12,-41,-16,-51,-1,2.52441,-0.235352,0.47168,100.875,62.4375,72.1875,-0.625989,-1.27103,-2.76299
2259,-75,4,-103,-86,-101,-64,-58,3,2.52441,-0.235352,0.47168,100.875,62.4375,72.1875,-0.625989,-1.27103,-2.76299
2259,69,41,-16,-36,4,30,-25,47,2.52441,-0.235352,0.47168,100.875,62.4375,72.1875,-0.625989,-1.27103,-2.76299
2259,83,34,63,76,61,38,105,22,2.52441,-0.235352,0.47168,100.875,62.4375,72.1875,-0.625989,-1.27103,-2.76299
2273,-3,-32,27,11,30,24,54,29,2.23535,-0.229492,0.95752,67.1875,138,101.25,-0.599272,-1.21047,-2.76531
2273,85,-75,-23,7,60,26,19,67,2.23535,-0.229492,0.95752,67.1875,138,101.25,-0.599272,-1.21047,-2.76531
2274,-128,-118,-10,23,-46,-77,-46,-97,2.23535,-0.229492,0.95752,67.1875,138,101.25,-0.599272,-1.21047,-2.76531
2274,53,-128,-51,-74,-12,13,-107,27,2.23535,-0.229492,0.95752,67.1875,138,101.25,-0.599272,-1.21047,-2.76531
2296,47,-28,43,121,57,57,69,36,1.25586,-0.392578,1.18213,-30.3125,185.5,109.5,-0.59338,-1.13214,-2.78229
2296,-100,-109,50,-55,-91,-46,-87,-54,1.25586,-0.392578,1.18213,-30.3125,185.5,109.5,-0.59338,-1.13214,-2.78229
2296,-64,-46,-101,-88,-4,-6,9,12,1.25586,-0.392578,1.18213,-30.3125,185.5,109.5,-0.59338,-1.13214,-2.78229
2296,76,62,-30,54,34,8,50,28,1.25586,-0.392578,1.18213,-30.3125,185.5,109.5,-0.59338,-1.13214,-2.78229
2319,-41,91,-35,-128,-109,-65,-39,-56,-1.32422,-0.705078,0.0678711,-113.062,51.875,141.75,-0.690763,-1.08803,-2.71763
2319,104,127,-2,11,52,112,96,70,-1.32422,-0.705078,0.0678711,-113.062,51.875,141.75,-0.690763,-1.08803,-2.71763
2319,31,57,-6,-62,-108,-96,-98,22,-1.32422,-0.705078,0.0678711,-113.062,51.875,141.75,-0.690763,-1.08803,-2.71763
2319,-41,32,-33,-120,-84,-72,-15,9,-1.32422,-0.705078,0.0678711,-113.062,51.875,141.75,-0.690763,-1.08803,-2.71763
2327,120,49,49,88,127,-20,-43,72,-2.57031,-0.214844,-1.34326,50,-94.75,39.3125,-0.735715,-1.10396,-2.64747
2327,-62,3,115,-35,2,-9,24,-128,-2.57031,-0.214844,-1.34326,50,-94.75,39.3125,-0.735715,-1.10396,-2.64747
2332,116,-34,14,125,127,70,79,24,-2.57031,-0.214844,-1.34326,50,-94.75,39.3125,-0.735715,-1.10396,-2.64747
2332,-19,-96,-18,-64,-90,35,-1,6,-2.57031,-0.214844,-1.34326,50,-94.75,39.3125,-0.735715,-1.10396,-2.64747
2355,56,-128,-65,-10,-61,38,-31,-26,3.8501,-0.562988,-0.489258,170.312,-78.5625,-91.375,-0.662008,-1.14559,-2.6634
2355,-46,-125,36,127,98,43,15,7,3.8501,-0.562988,-0.489258,170.312,-78.5625,-91.375,-0.662008,-1.14559,-2.6634
2356,127,-37,20,63,-42,52,52,81,3.8501,-0.562988,-0.489258,170.312,-78.5625,-91.375,-0.662008,-1.14559,-2.6634
2356,-121,-47,30,-22,-63,-27,23,-69,3.8501,-0.562988,-0.489258,170.312,-78.5625,-91.375,-0.662008,-1.14559,-2.6634
2370,79,70,-40,-96,-94,-51,-69,-57,2.06348,0.987305,-0.65918,168.062,66.25,102.75,-0.634136,-1.10553,-2.62919
2370,112,95,-30,-128,-113,-72,17,68,2.06348,0.987305,-0.65918,168.062,66.25,102.75,-0.634136,-1.10553,-2.62919
2371,-115,62,-15,66,3,11,-9,-26,2.06348,0.987305,-0.65918,168.062,66.25,102.75,-0.634136,-1.10553,-2.62919
2371,114,64,40,44,98,10,9,23,2.06348,0.987305,-0.65918,168.062,66.25,102.75,-0.634136,-1.10553,-2.62919
2388,-106,-17,43,44,39,32,63,7,0.655762,0.503418,0.174316,-81.125,41.875,-47.8125,-0.590781,-1.11363,-2.70335
2388,-43,9,3,125,72,-10,-63,-64,0.655762,0.503418,0.174316,-81.125,41.875,-47.8125,-0.590781,-1.11363,-2.70335
2392,60,5,34,-60,-36,-23,-28,45,0.655762,0.503418,0.174316,-81.125,41.875,-47.8125,-0.590781,-1.11363,-2.70335
2392,-19,-53,-35,-65,-103,-29,-38,-7,0.655762,0.503418,0.174316,-81.125,41.875,-47.8125,-0.590781,-1.11363,-2.70335
2409,-103,-85,-83,-128,-50,-40,-4,-73,1.7417,-0.0239258,0.450684,-101.062,59.125,14.875,-0.60816,-1.09643,-2.72254
2409,110,10,-8,68,81,3,-26,46,1.7417,-0.0239258,0.450684,-101.062,59.125,14.875,-0.60816,-1.09643,-2.72254
2415,-19,6,24,109,68,24,-3,-25,1.7417,-0.0239258,0.450684,-101.062,59.125,14.875,-0.60816,-1.09643,-2.72254
2415,-11,11,36,36,30,22,17,-2,1.7417,-0.0239258,0.450684,-101.062,59.125,14.875,-0.60816,-1.09643,-2.72254
2431,104,-25,-7,-35,-43,18,40,29,1.42432,-0.32959,0.488281,-41.25,75.75,1.75,-0.595069,-1.07804,-2.75348
2431,2,-128,-14,-32,-55,-8,-18,-11,1.42432,-0.32959,0.488281,-41.25,75.75,1.75,-0.595069,-1.07804,-2.75348
2431,-16,-45,32,-34,-26,-20,-3,32,1.42432,-0.32959,0.488281,-41.25,75.75,1.75,-0.595069,-1.07804,-2.75348
2431,107,57,-14,-5,44,0,13,34,1.42432,-0.32959,0.488281,-41.25,75.75,1.75,-0.595069,-1.07804,-2.75348
2446,-109,53,11,-2,11,9,22,1,1.12842,-0.274414,0.46582,11.8125,73.375,5.8125,-0.567447,-1.05749,-2.78006
2446,-4,75,-45,-51,-38,-3,-18,-49,1.12842,-0.274414,0.46582,11.8125,73.375,5.8125,-0.567447,-1.05749,-2.78006
2453,-3,27,48,4,-24,-14,16,13,1.12842,-0.274414,0.46582,11.8125,73.375,5.8125,-0.567447,-1.05749,-2.78006
2453,-7,5,-65,-23,43,6,-47,-25,1.12842,-0.274414,0.46582,11.8125,73.375,5.8125,-0.567447,-1.05749,-2.78006
2467,112,-4,21,112,58,31,66,47,0.811523,-0.246094,0.482422,5.0625,78.75,23.125,-0.550415,-1.0288,-2.79714
2467,93,30,22,-7,-14,-3,-10,32,0.811523,-0.246094,0.482422,5.0625,78.75,23.125,-0.550415,-1.0288,-2.79714
2475,-96,-26,2,-20,0,-36,-38,-88,0.811523,-0.246094,0.482422,5.0625,78.75,23.125,-0.550415,-1.0288,-2.79714
2475,121,5,-15,27,-70,-15,25,57,0.811523,-0.246094,0.482422,5.0625,78.75,23.125,-0.550415,-1.0288,-2.79714
2491,94,-21,-12,-52,14,-1,-25,-17,0.557129,-0.424316,0.473145,-9.75,85.875,32.8125,-0.54964,-0.992015,-2.80382
2491,-21,-5,-4,94,94,20,51,17,0.557129,-0.424316,0.473145,-9.75,85.875,32.8125,-0.54964,-0.992015,-2.80382
2491,63,1,22,-49,-51,11,-7,9,0.557129,-0.424316,0.473145,-9.75,85.875,32.8125,-0.54964,-0.992015,-2.80382
2491,43,20,11,-4,12,-17,-12,3,0.557129,-0.424316,0.473145,-9.75,85.875,32.8125,-0.54964,-0.992015,-2.80382
2513,-50,-7,-47,-47,-47,-19,-16,-38,0.430664,-0.489746,0.413574,-5.1875,102.75,30.3125,-0.53964,-0.954323,-2.81894
2513,37,-53,-22,-125,-77,4,22,5,0.430664,-0.489746,0.413574,-5.1875,102.75,30.3125,-0.53964,-0.954323,-2.81894
2514,7,-31,-16,91,91,16,23,21,0.430664,-0.489746,0.413574,-5.1875,102.75,30.3125,-0.53964,-0.954323,-2.81894
2514,-32,-1,57,54,56,19,-5,-6,0.430664,-0.489746,0.413574,-5.1875,102.75,30.3125,-0.53964,-0.954323,-2.81894
2536,-78,-13,13,46,20,-7,-95,-17,0.375977,-0.425293,0.371582,-5,109.438,22.5625,-0.526066,-0.91628,-2.8387
2536,-75,32,31,1,8,14,15,-71,0.375977,-0.425293,0.371582,-5,109.438,22.5625,-0.526066,-0.91628,-2.8387
2536,-28,10,-57,-128,-85,-27,-7,-23,0.375977,-0.425293,0.371582,-5,109.438,22.5625,-0.526066,-0.91628,-2.8387
2536,-31,-101,-46,16,-26,2,-19,8,0.375977,-0.425293,0.371582,-5,109.438,22.5625,-0.526066,-0.91628,-2.8387
2559,51,-38,-5,18,49,13,38,10,0.429688,-0.30957,0.398926,-2.1875,112.688,23.875,-0.512148,-0.877295,-2.85781
2559,-57,-29,-1,-76,-51,-21,-12,-28,0.429688,-0.30957,0.398926,-2.1875,112.688,23.875,-0.512148,-0.877295,-2.85781
2559,127,45,-28,84,72,29,-13,45,0.429688,-0.30957,0.398926,-2.1875,112.688,23.875,-0.512148,-0.877295,-2.85781
2559,-93,27,9,-52,-46,-21,31,-32,0.429688,-0.30957,0.398926,-2.1875,112.688,23.875,-0.512148,-0.877295,-2.85781
2573,-13,27,23,35,-5,-23,-29,-2,0.465332,-0.310547,0.383789,-9.375,109.312,31.75,-0.505929,-0.838132,-2.87079
2573,1,34,4,39,23,12,25,29,0.465332,-0.310547,0.383789,-9.375,109.312,31.75,-0.505929,-0.838132,-2.87079
2574,39,28,18,15,72,64,66,3,0.465332,-0.310547,0.383789,-9.375,109.312,31.75,-0.505929,-0.838132,-2.87079
2574,103,46,8,19,-38,-6,-24,-4,0.465332,-0.310547,0.383789,-9.375,109.312,31.75,-0.505929,-0.838132,-2.87079
2596,-73,5,-15,-50,7,-20,-5,15,0.451172,-0.350586,0.424316,-16.375,103.562,36.0625,-0.505529,-0.79998,-2.87974
2596,108,19,-27,17,72,38,-64,-28,0.451172,-0.350586,0.424316,-16.375,103.562,36.0625,-0.505529,-0.79998,-2.87974
2596,42,20,7,-68,-128,-110,39,11,0.451172,-0.350586,0.424316,-16.375,103.562,36.0625,-0.505529,-0.79998,-2.87974
2596,61,18,-23,-8,78,16,-19,-10,0.451172,-0.350586,0.424316,-16.375,103.562,36.0625,-0.505529,-0.79998,-2.87974
2618,-25,-6,64,75,69,15,51,-3,0.536133,-0.325195,0.45166,-2.5625,98.9375,32.875,-0.502122,-0.764307,-2.88746
2618,36,13,-42,-91,-13,-22,-16,82,0.536133,-0.325195,0.45166,-2.5625,98.9375,32.875,-0.502122,-0.764307,-2.88746
2619,-9,-17,85,93,-24,9,-35,-26,0.536133,-0.325195,0.45166,-2.5625,98.9375,32.875,-0.502122,-0.764307,-2.88746
2619,85,-24,-73,-68,-13,3,53,31,0.536133,-0.325195,0.45166,-2.5625,98.9375,32.875,-0.502122,-0.764307,-2.88746
2634,-35,-21,-104,-81,-72,-32,-6,6,0.53125,-0.260254,0.437988,2.625,93.125,26.0625,-0.494865,-0.732672,-2.89726
2634,-83,-6,91,127,98,39,26,14,0.53125,-0.260254,0.437988,2.625,93.125,26.0625,-0.494865,-0.732672,-2.89726
2635,27,-21,-72,-68,-73,-36,-31,7,0.53125,-0.260254,0.437988,2.625,93.125,26.0625,-0.494865,-0.732672,-2.89726
2635,-25,9,55,-67,60,35,56,23,0.53125,-0.260254,0.437988,2.625,93.125,26.0625,-0.494865,-0.732672,-2.89726
2656,44,3,7,99,78,2,-6,19,0.458008,-0.240234,0.521973,-7.5,82.3125,21.4375,-0.490313,-0.703378,-2.90717
2656,90,6,-15,-78,-93,31,26,26,0.458008,-0.240234,0.521973,-7.5,82.3125,21.4375,-0.490313,-0.703378,-2.90717
2656,-40,13,8,-16,22,-5,-5,12,0.458008,-0.240234,0.521973,-7.5,82.3125,21.4375,-0.490313,-0.703378,-2.90717
2656,-50,-8,21,13,-7,-13,-37,-21,0.458008,-0.240234,0.521973,-7.5,82.3125,21.4375,-0.490313,-0.703378,-2.90717
2678,42,-2,-8,-118,-94,-35,-37,-39,0.47998,-0.306641,0.57666,-14.1875,74.1875,23.625,-0.491095,-0.675706,-2.9136
2678,57,-19,7,-23,-11,-35,30,40,0.47998,-0.306641,0.57666,-14.1875,74.1875,23.625,-0.491095,-0.675706,-2.9136
2679,21,-4,-46,-13,101,75,26,2,0.47998,-0.306641,0.57666,-14.1875,74.1875,23.625,-0.491095,-0.675706,-2.9136
2679,-11,-4,40,105,85,84,97,52,0.47998,-0.306641,0.57666,-14.1875,74.1875,23.625,-0.491095,-0.675706,-2.9136
2695,-49,-3,23,-40,-48,-66,-81,-44,0.46582,-0.359863,0.635254,-10,69.8125,26.0625,-0.492407,-0.64831,-2.91773
2695,79,-13,-69,10,-40,-54,32,40,0.46582,-0.359863,0.635254,-10,69.8125,26.0625,-0.492407,-0.64831,-2.91773
2695,-80,-41,7,37,72,29,-3,-67,0.46582,-0.359863,0.635254,-10,69.8125,26.0625,-0.492407,-0.64831,-2.91773
2695,-9,12,35,58,39,7,4,-3,0.46582,-0.359863,0.635254,-10,69.8125,26.0625,-0.492407,-0.64831,-2.91773
2716,-20,7,22,-22,-8,46,-28,4,0.42041,-0.36377,0.646973,2.5,61.5,25.4375,-0.490321,-0.622944,-2.92026
2716,25,44,86,44,-48,-33,1,-8,0.42041,-0.36377,0.646973,2.5,61.5,25.4375,-0.490321,-0.622944,-2.92026
2716,-80,-27,-128,-128,-123,-41,40,44,0.42041,-0.36377,0.646973,2.5,61.5,25.4375,-0.490321,-0.622944,-2.92026
2716,-128,-18,30,127,31,-32,-87,-78,0.42041,-0.36377,0.646973,2.5,61.5,25.4375,-0.490321,-0.622944,-2.92026
2739,121,10,38,-88,-92,-24,15,19,0.379883,-0.285156,0.615723,3.125,52.3125,19.5,-0.486244,-0.601776,-2.92402
2739,-128,-29,-55,-48,-35,-28,-31,-55,0.379883,-0.285156,0.615723,3.125,52.3125,19.5,-0.486244,-0.601776,-2.92402
2739,94,1,42,95,127,29,33,21,0.379883,-0.285156,0.615723,3.125,52.3125,19.5,-0.486244,-0.601776,-2.92402
2739,57,-11,-36,-128,-123,10,-48,-26,0.379883,-0.285156,0.615723,3.125,52.3125,19.5,-0.486244,-0.601776,-2.92402
2754,16,-10,13,127,87,60,43,16,0.475098,-0.357422,0.647461,-15.125,52.875,25.0625,-0.491199,-0.581178,-2.92506
2754,88,39,53,38,93,0,83,67,0.475098,-0.357422,0.647461,-15.125,52.875,25.0625,-0.491199,-0.581178,-2.92506
2754,-87,-45,-43,-94,-91,11,-102,-87,0.475098,-0.357422,0.647461,-15.125,52.875,25.0625,-0.491199,-0.581178,-2.92506
2754,31,1,-11,76,-6,-71,6,-3,0.475098,-0.357422,0.647461,-15.125,52.875,25.0625,-0.491199,-0.581178,-2.92506
2776,50,-7,-71,-123,1,21,34,27,0.442383,-0.42627,0.650391,-16,58,21.4375,-0.496713,-0.558931,-2.92759
2776,31,22,90,127,114,28,-43,-37,0.442383,-0.42627,0.650391,-16,58,21.4375,-0.496713,-0.558931,-2.92759
2776,-74,27,40,28,54,30,44,3,0.442383,-0.42627,0.650391,-16,58,21.4375,-0.496713,-0.558931,-2.92759
2776,-8,-12,-11,-90,-102,-13,37,18,0.442383,-0.42627,0.650391,-16,58,21.4375,-0.496713,-0.558931,-2.92759
2799,83,13,41,-47,-16,7,-61,42,0.380859,-0.359375,0.67334,0.125,57.5625,13.6875,-0.493365,-0.5374,-2.93386
2799,-95,-23,-116,-101,-92,-18,26,-71,0.380859,-0.359375,0.67334,0.125,57.5625,13.6875,-0.493365,-0.5374,-2.93386
2799,-7,9,22,69,-64,-55,-78,-5,0.380859,-0.359375,0.67334,0.125,57.5625,13.6875,-0.493365,-0.5374,-2.93386
2799,-61,-39,43,102,111,35,-10,-42,0.380859,-0.359375,0.67334,0.125,57.5625,13.6875,-0.493365,-0.5374,-2.93386
2813,-17,19,-22,7,-22,-23,71,12,0.411133,-0.277832,0.715332,6.1875,53.625,18.0625,-0.486827,-0.51738,-2.93885
2813,78,-35,26,-29,-72,-2,51,61,0.411133,-0.277832,0.715332,6.1875,53.625,18.0625,-0.486827,-0.51738,-2.93885
2821,-18,16,14,82,100,-18,-39,-93,0.411133,-0.277832,0.715332,6.1875,53.625,18.0625,-0.486827,-0.51738,-2.93885
2821,8,6,-33,44,9,35,33,36,0.411133,-0.277832,0.715332,6.1875,53.625,18.0625,-0.486827,-0.51738,-2.93885
2845,94,6,-22,-51,-49,-70,-10,23,0.41748,-0.384277,0.760742,-0.125,51.8125,22.25,-0.485469,-0.496876,-2.94094
2845,-32,-18,-60,58,98,26,-72,-32,0.41748,-0.384277,0.760742,-0.125,51.8125,22.25,-0.485469,-0.496876,-2.94094
2845,104,-13,3,-128,-128,-21,100,37,0.41748,-0.384277,0.760742,-0.125,51.8125,22.25,-0.485469,-0.496876,-2.94094
2845,27,25,78,115,127,-7,-32,-26,0.41748,-0.384277,0.760742,-0.125,51.8125,22.25,-0.485469,-0.496876,-2.94094
2858,-25,-32,-2,124,127,74,-24,-50,0.411621,-0.459473,0.799316,4.5625,49.75,22.5,-0.484274,-0.476388,-2.94174
2858,-117,-9,-35,-120,-128,-30,-40,-35,0.411621,-0.459473,0.799316,4.5625,49.75,22.5,-0.484274,-0.476388,-2.94174
2858,65,-23,-56,-19,-34,-3,10,-1,0.411621,-0.459473,0.799316,4.5625,49.75,22.5,-0.484274,-0.476388,-2.94174
2858,-61,-13,32,-128,-127,-40,-27,-12,0.411621,-0.459473,0.799316,4.5625,49.75,22.5,-0.484274,-0.476388,-2.94174
2873,62,-12,3,64,-46,18,60,24,0.401855,-0.269531,0.723633,18.3125,47.875,16.375,-0.473974,-0.459452,-2.94585
2873,-3,26,61,66,59,-5,-27,5,0.401855,-0.269531,0.723633,18.3125,47.875,16.375,-0.473974,-0.459452,-2.94585
2873,33,-7,-49,-56,-55,14,-10,1,0.401855,-0.269531,0.723633,18.3125,47.875,16.375,-0.473974,-0.459452,-2.94585
2873,54,28,15,-84,-9,-33,17,35,0.401855,-0.269531,0.723633,18.3125,47.875,16.375,-0.473974,-0.459452,-2.94585
2895,-107,-31,-10,-44,-9,13,-34,-27,0.359863,-0.291016,0.739258,6.4375,46.125,15,-0.468333,-0.442281,-2.94964
2895,39,-8,-13,87,-7,25,15,60,0.359863,-0.291016,0.739258,6.4375,46.125,15,-0.468333,-0.442281,-2.94964
2896,35,16,41,51,63,41,3,24,0.359863,-0.291016,0.739258,6.4375,46.125,15,-0.468333,-0.442281,-2.94964
2896,45,10,-37,-95,-31,-24,2,23,0.359863,-0.291016,0.739258,6.4375,46.125,15,-0.468333,-0.442281,-2.94964
2919,-2,-5,34,68,51,34,-4,-15,0.371094,-0.398438,0.779297,2.375,46.4375,17.25,-0.466783,-0.424667,-2.95177
2919,63,-11,-56,-123,-80,-88,-15,-4,0.371094,-0.398438,0.779297,2.375,46.4375,17.25,-0.466783,-0.424667,-2.95177
2919,35,3,33,-83,34,89,20,44,0.371094,-0.398438,0.779297,2.375,46.4375,17.25,-0.466783,-0.424667,-2.95177
2919,19,19,47,127,114,58,-7,34,0.371094,-0.398438,0.779297,2.375,46.4375,17.25,-0.466783,-0.424667,-2.95177
2942,-92,11,22,-97,-72,-30,-62,-67,0.342285,-0.46875,0.815918,6.25,43.5625,13.5625,-0.464941,-0.407511,-2.95402
2942,-25,-16,-58,-82,-89,-14,0,-43,0.342285,-0.46875,0.815918,6.25,43.5625,13.5625,-0.464941,-0.407511,-2.95402
2942,-37,7,5,-50,-61,-55,-1,14,0.342285,-0.46875,0.815918,6.25,43.5625,13.5625,-0.464941,-0.407511,-2.95402
2942,54,-11,-50,-47,-33,-17,-24,-27,0.342285,-0.46875,0.815918,6.25,43.5625,13.5625,-0.464941,-0.407511,-2.95402
2956,58,-8,-57,76,44,38,62,52,0.328613,-0.322754,0.765137,12.375,42.25,10.625,-0.457963,-0.392318,-2.95803
2956,-10,7,57,17,1,7,34,4,0.328613,-0.322754,0.765137,12.375,42.25,10.625,-0.457963,-0.392318,-2.95803
2956,-30,-1,49,-17,55,-43,-88,6,0.328613,-0.322754,0.765137,12.375,42.25,10.625,-0.457963,-0.392318,-2.95803
2956,49,3,-41,-61,12,21,16,-3,0.328613,-0.322754,0.765137,12.375,42.25,10.625,-0.457963,-0.392318,-2.95803
2978,-1,9,-9,-57,-115,-64,0,6,0.32959,-0.336426,0.75,9.5,42.25,14.4375,-0.453005,-0.376831,-2.96047
2978,7,-17,-37,102,127,9,-32,0,0.32959,-0.336426,0.75,9.5,42.25,14.4375,-0.453005,-0.376831,-2.96047
2979,24,-1,48,35,22,91,13,70,0.32959,-0.336426,0.75,9.5,42.25,14.4375,-0.453005,-0.376831,-2.96047
2979,-56,5,-29,-53,-53,-67,8,-40,0.32959,-0.336426,0.75,9.5,42.25,14.4375,-0.453005,-0.376831,-2.96047
2992,113,33,116,127,127,56,-5,52,0.371094,-0.42627,0.773926,4.1875,36.375,14.8125,-0.452474,-0.363988,-2.96095
2992,-82,-17,-6,-106,-62,15,11,-62,0.371094,-0.42627,0.773926,4.1875,36.375,14.8125,-0.452474,-0.363988,-2.96095
3001,-36,3,-49,-2,-62,-97,-29,-9,0.371094,-0.42627,0.773926,4.1875,36.375,14.8125,-0.452474,-0.363988,-2.96095
3001,33,-22,-65,-58,6,5,-26,-2,0.371094,-0.42627,0.773926,4.1875,36.375,14.8125,-0.452474,-0.363988,-2.96095
3016,36,-3,45,45,63,-7,91,23,0.361328,-0.404297,0.781738,6.1875,34.8125,11.625,-0.450212,-0.352115,-2.96252
3016,6,-1,14,-66,-53,-6,-76,-13,0.361328,-0.404297,0.781738,6.1875,34.8125,11.625,-0.450212,-0.352115,-2.96252
3017,-52,-8,22,37,11,7,-8,-84,0.361328,-0.404297,0.781738,6.1875,34.8125,11.625,-0.450212,-0.352115,-2.96252
3017,-30,3,72,-52,-10,-16,-6,-4,0.361328,-0.404297,0.781738,6.1875,34.8125,11.625,-0.450212,-0.352115,-2.96252
3039,53,36,-20,77,94,28,66,17,0.348145,-0.390137,0.795898,1.6875,33.375,8.25,-0.448966,-0.341205,-2.96507
3039,34,-16,49,-40,-46,-6,0,9,0.348145,-0.390137,0.795898,1.6875,33.375,8.25,-0.448966,-0.341205,-2.96507
3039,-30,-11,-25,-64,-61,-21,-41,-42,0.348145,-0.390137,0.795898,1.6875,33.375,8.25,-0.448966,-0.341205,-2.96507
3039,-10,-14,-10,-128,-128,-43,3,4,0.348145,-0.390137,0.795898,1.6875,33.375,8.25,-0.448966,-0.341205,-2.96507
3053,22,-27,-63,38,74,22,9,-9,0.28418,-0.367676,0.796875,6.5,28.875,10.875,-0.445944,-0.330066,-2.96615
3053,-48,24,115,127,114,39,-50,-41,0.28418,-0.367676,0.796875,6.5,28.875,10.875,-0.445944,-0.330066,-2.96615
3061,79,4,-57,-124,-103,-33,11,48,0.28418,-0.367676,0.796875,6.5,28.875,10.875,-0.445944,-0.330066,-2.96615
3061,33,-11,-51,1,54,36,38,8,0.28418,-0.367676,0.796875,6.5,28.875,10.875,-0.445944,-0.330066,-2.96615
3076,4,30,97,18,-54,-19,-42,20,0.34668,-0.407227,0.836914,6.125,26.5,14.9375,-0.444237,-0.320292,-2.9654
3076,-39,-14,-111,-87,-83,-26,6,-50,0.34668,-0.407227,0.836914,6.125,26.5,14.9375,-0.444237,-0.320292,-2.9654
3076,21,4,8,91,127,-23,26,-14,0.34668,-0.407227,0.836914,6.125,26.5,14.9375,-0.444237,-0.320292,-2.9654
3076,1,-24,-32,63,-47,9,15,-18,0.34668,-0.407227,0.836914,6.125,26.5,14.9375,-0.444237,-0.320292,-2.9654
3098,78,22,12,3,45,27,3,17,0.286133,-0.392578,0.789551,6.375,24.9375,10.3125,-0.442375,-0.31087,-2.96567
3098,-69,-5,31,-67,-26,-17,-12,0,0.286133,-0.392578,0.789551,6.375,24.9375,10.3125,-0.442375,-0.31087,-2.96567
3099,23,14,17,108,72,14,26,29,0.286133,-0.392578,0.789551,6.375,24.9375,10.3125,-0.442375,-0.31087,-2.96567
3099,52,26,-43,-40,-56,17,-6,6,0.286133,-0.392578,0.789551,6.375,24.9375,10.3125,-0.442375,-0.31087,-2.96567
3113,-104,-31,-33,-128,-70,-21,18,-66,0.233398,-0.397461,0.795898,2.0625,19.9375,4.75,-0.441688,-0.302931,-2.96708
3113,56,14,-40,44,106,0,-8,28,0.233398,-0.397461,0.795898,2.0625,19.9375,4.75,-0.441688,-0.302931,-2.96708
3121,-13,-13,22,-76,-79,21,-24,-4,0.233398,-0.397461,0.795898,2.0625,19.9375,4.75,-0.441688,-0.302931,-2.96708
3121,46,4,47,69,-16,0,47,60,0.233398,-0.397461,0.795898,2.0625,19.9375,4.75,-0.441688,-0.302931,-2.96708
3136,75,8,29,12,3,8,34,34,0.299805,-0.446777,0.791992,3.4375,20.375,6.25,-0.441761,-0.296043,-2.96768
3136,-31,1,-38,-118,-109,-1,5,2,0.299805,-0.446777,0.791992,3.4375,20.375,6.25,-0.441761,-0.296043,-2.96768
3136,82,0,13,78,34,13,-64,-17,0.299805,-0.446777,0.791992,3.4375,20.375,6.25,-0.441761,-0.296043,-2.96768
3136,-69,2,-25,27,89,25,59,15,0.299805,-0.446777,0.791992,3.4375,20.375,6.25,-0.441761,-0.296043,-2.96768
3158,6,-17,-43,-128,-128,-58,-94,-16,0.26416,-0.45752,0.816406,1.4375,20.0625,9.9375,-0.442911,-0.28797,-2.96712
3158,-5,5,41,127,126,-2,23,-37,0.26416,-0.45752,0.816406,1.4375,20.0625,9.9375,-0.442911,-0.28797,-2.96712
3159,92,11,-9,-49,-2,0,45,27,0.26416,-0.45752,0.816406,1.4375,20.0625,9.9375,-0.442911,-0.28797,-2.96712
3159,-64,12,55,47,35,33,-50,-48,0.26416,-0.45752,0.816406,1.4375,20.0625,9.9375,-0.442911,-0.28797,-2.96712
3172,-54,-21,-89,-115,-87,49,59,-19,0.254883,-0.44873,0.787109,-5.3125,8.1875,9.9375,-0.446957,-0.283655,-2.96469
3172,11,12,65,69,-20,5,33,84,0.254883,-0.44873,0.787109,-5.3125,8.1875,9.9375,-0.446957,-0.283655,-2.96469
3189,-90,-22,-43,-20,-12,-47,-27,-72,0.254883,-0.44873,0.787109,-5.3125,8.1875,9.9375,-0.446957,-0.283655,-2.96469
3189,54,-1,66,121,92,-3,-9,39,0.254883,-0.44873,0.787109,-5.3125,8.1875,9.9375,-0.446957,-0.283655,-2.96469
3195,-79,-21,-83,21,28,19,-85,-19,0.461426,-0.46875,0.868164,8.5,11,8.375,-0.445477,-0.28307,-2.96332
3195,115,16,3,-91,-47,-29,7,20,0.461426,-0.46875,0.868164,8.5,11,8.375,-0.445477,-0.28307,-2.96332
3196,117,8,26,24,-29,14,69,66,0.461426,-0.46875,0.868164,8.5,11,8.375,-0.445477,-0.28307,-2.96332
3196,-102,-34,-23,-42,55,-19,-65,-67,0.461426,-0.46875,0.868164,8.5,11,8.375,-0.445477,-0.28307,-2.96332
3218,81,0,39,-29,-95,-67,0,32,0.37793,-0.265625,0.815918,3.8125,11.4375,4.9375,-0.441364,-0.281696,-2.96416
3218,108,-2,25,76,68,0,67,44,0.37793,-0.265625,0.815918,3.8125,11.4375,4.9375,-0.441364,-0.281696,-2.96416
3219,63,-1,-32,-121,22,50,4,42,0.37793,-0.265625,0.815918,3.8125,11.4375,4.9375,-0.441364,-0.281696,-2.96416
3219,-44,-39,-39,-19,-96,-52,-85,-91,0.37793,-0.265625,0.815918,3.8125,11.4375,4.9375,-0.441364,-0.281696,-2.96416
3232,81,32,44,12,39,4,17,20,0.26709,-0.358398,0.883301,-6.25,10.375,-3.6875,-0.441411,-0.278934,-2.96734
3232,32,-10,-51,60,-15,21,-62,4,0.26709,-0.358398,0.883301,-6.25,10.375,-3.6875,-0.441411,-0.278934,-2.96734
3241,2,48,119,76,79,45,103,4,0.26709,-0.358398,0.883301,-6.25,10.375,-3.6875,-0.441411,-0.278934,-2.96734
3241,121,42,51,-46,5,-49,50,127,0.26709,-0.358398,0.883301,-6.25,10.375,-3.6875,-0.441411,-0.278934,-2.96734
3256,-103,-38,-28,-93,-35,-76,-46,-75,0.289551,-0.466797,0.873535,-7.0625,8.375,-3.875,-0.444228,-0.276976,-2.96962
3256,-82,-34,-79,-118,-73,22,-36,-45,0.289551,-0.466797,0.873535,-7.0625,8.375,-3.875,-0.444228,-0.276976,-2.96962
3264,-16,-14,-56,6,-80,16,35,-5,0.289551,-0.466797,0.873535,-7.0625,8.375,-3.875,-0.444228,-0.276976,-2.96962
3264,101,24,-19,-34,20,11,26,22,0.289551,-0.466797,0.873535,-7.0625,8.375,-3.875,-0.444228,-0.276976,-2.96962
3279,-28,-1,55,108,122,31,-46,-13,0.247559,-0.444824,0.851562,0.125,6.4375,2.875,-0.445056,-0.273981,-2.96947
3279,17,26,6,-114,-25,-25,15,18,0.247559,-0.444824,0.851562,0.125,6.4375,2.875,-0.445056,-0.273981,-2.96947
3280,-37,-10,8,-15,-24,-36,-34,-21,0.247559,-0.444824,0.851562,0.125,6.4375,2.875,-0.445056,-0.273981,-2.96947
3280,-19,-24,-91,17,35,28,12,-30,0.247559,-0.444824,0.851562,0.125,6.4375,2.875,-0.445056,-0.273981,-2.96947
3302,46,-12,-46,-104,-128,-23,75,70,0.178711,-0.372559,0.830078,5.8125,6.4375,5.8125,-0.442842,-0.269361,-2.96873
3302,-120,-17,49,114,127,33,-48,-41,0.178711,-0.372559,0.830078,5.8125,6.4375,5.8125,-0.442842,-0.269361,-2.96873
3303,47,1,26,-42,-42,-4,-33,12,0.178711,-0.372559,0.830078,5.8125,6.4375,5.8125,-0.442842,-0.269361,-2.96873
3303,34,10,-21,28,-99,-11,-59,-16,0.178711,-0.372559,0.830078,5.8125,6.4375,5.8125,-0.442842,-0.269361,-2.96873
3316,39,16,98,120,127,74,69,-31,0.14209,-0.39502,0.84375,-1.0625,9.4375,2.5625,-0.442814,-0.26341,-2.96939
3316,18,27,-32,9,-47,-9,-26,28,0.14209,-0.39502,0.84375,-1.0625,9.4375,2.5625,-0.442814,-0.26341,-2.96939
3317,-14,0,53,-47,-47,-108,-16,-21,0.14209,-0.39502,0.84375,-1.0625,9.4375,2.5625,-0.442814,-0.26341,-2.96939
3317,-11,-8,7,33,-1,60,4,-17,0.14209,-0.39502,0.84375,-1.0625,9.4375,2.5625,-0.442814,-0.26341,-2.96939
3339,-37,-5,-9,0,23,-37,-39,-8,0.269531,-0.455566,0.864258,-3.0625,10.625,-0.1875,-0.444538,-0.260313,-2.97077
3339,77,8,-12,-45,19,71,122,43,0.269531,-0.455566,0.864258,-3.0625,10.625,-0.1875,-0.444538,-0.260313,-2.97077
3339,-41,0,20,62,32,-8,-41,1,0.269531,-0.455566,0.864258,-3.0625,10.625,-0.1875,-0.444538,-0.260313,-2.97077
3339,-3,-1,62,-128,-128,-45,-8,9,0.269531,-0.455566,0.864258,-3.0625,10.625,-0.1875,-0.444538,-0.260313,-2.97077
3362,59,9,-73,94,61,47,38,-43,0.308594,-0.441406,0.837402,0.1875,7.875,0.875,-0.44516,-0.259028,-2.97147
3362,53,-10,6,-15,-5,-4,33,23,0.308594,-0.441406,0.837402,0.1875,7.875,0.875,-0.44516,-0.259028,-2.97147
3362,-104,-22,-87,-38,-59,-40,-76,-37,0.308594,-0.441406,0.837402,0.1875,7.875,0.875,-0.44516,-0.259028,-2.97147
3362,-30,-10,93,-33,31,6,14,-15,0.308594,-0.441406,0.837402,0.1875,7.875,0.875,-0.44516,-0.259028,-2.97147
3375,-26,13,27,69,53,55,78,80,0.212891,-0.359375,0.817383,6.25,4.3125,1.0625,-0.442216,-0.256997,-2.97189
3375,-36,-11,-88,-95,-81,-46,-39,-10,0.212891,-0.359375,0.817383,6.25,4.3125,1.0625,-0.442216,-0.256997,-2.97189
3376,-66,-1,34,114,127,44,-5,-7,0.212891,-0.359375,0.817383,6.25,4.3125,1.0625,-0.442216,-0.256997,-2.97189
3376,40,13,7,61,34,-27,-34,-11,0.212891,-0.359375,0.817383,6.25,4.3125,1.0625,-0.442216,-0.256997,-2.97189
3399,-71,-2,29,14,30,-9,-7,4,0.246582,-0.413574,0.858398,-2.1875,2,-2,-0.442903,-0.256652,-2.97286
3399,1,5,37,-24,-47,-7,-21,-45,0.246582,-0.413574,0.858398,-2.1875,2,-2,-0.442903,-0.256652,-2.97286
3400,24,-15,-77,-110,-119,-21,35,29,0.246582,-0.413574,0.858398,-2.1875,2,-2,-0.442903,-0.256652,-2.97286
3400,-2,6,16,85,106,4,5,19,0.246582,-0.413574,0.858398,-2.1875,2,-2,-0.442903,-0.256652,-2.97286
3421,-77,8,22,17,1,22,-51,23,0.275879,-0.426758,0.843262,-6.625,-2.5625,-7.3125,-0.44518,-0.25909,-2.97473
3421,60,-2,25,-57,-59,-28,52,-13,0.275879,-0.426758,0.843262,-6.625,-2.5625,-7.3125,-0.44518,-0.25909,-2.97473
3422,-35,-12,-30,9,63,10,-29,-4,0.275879,-0.426758,0.843262,-6.625,-2.5625,-7.3125,-0.44518,-0.25909,-2.97473
3422,94,27,82,8,-54,8,25,46,0.275879,-0.426758,0.843262,-6.625,-2.5625,-7.3125,-0.44518,-0.25909,-2.97473
3436,-24,-28,-113,-2,4,-23,-45,-82,0.232422,-0.391113,0.811035,1.875,-5.875,-6.875,-0.444298,-0.261829,-2.976
3436,3,-15,48,-35,-73,-19,-14,18,0.232422,-0.391113,0.811035,1.875,-5.875,-6.875,-0.444298,-0.261829,-2.976
3436,85,10,-25,-26,43,38,34,29,0.232422,-0.391113,0.811035,1.875,-5.875,-6.875,-0.444298,-0.261829,-2.976
3436,86,16,53,60,44,6,-3,55,0.232422,-0.391113,0.811035,1.875,-5.875,-6.875,-0.444298,-0.261829,-2.976
3466,-67,-31,-42,-128,-105,-52,-35,-22,0.20459,-0.379395,0.812012,4.125,-8.1875,-6.9375,-0.442558,-0.264552,-2.97701
3466,24,-1,0,68,112,61,-35,13,0.20459,-0.379395,0.812012,4.125,-8.1875,-6.9375,-0.442558,-0.264552,-2.97701
3467,-25,3,67,61,22,-17,63,-34,0.20459,-0.379395,0.812012,4.125,-8.1875,-6.9375,-0.442558,-0.264552,-2.97701
3467,-2,-24,-61,-48,-77,-2,31,-17,0.20459,-0.379395,0.812012,4.125,-8.1875,-6.9375,-0.442558,-0.264552,-2.97701
3482,-6,29,74,37,27,-3,-16,1,0.226074,-0.439453,0.829102,-0.1875,-9.375,-7.0625,-0.443335,-0.267822,-2.97764
3482,32,-19,-10,60,90,41,-2,-1,0.226074,-0.439453,0.829102,-0.1875,-9.375,-7.0625,-0.443335,-0.267822,-2.97764
3483,50,15,-4,-35,-56,-27,27,53,0.226074,-0.439453,0.829102,-0.1875,-9.375,-7.0625,-0.443335,-0.267822,-2.97764
3483,-75,-15,4,-99,1,1,-40,-44,0.226074,-0.439453,0.829102,-0.1875,-9.375,-7.0625,-0.443335,-0.267822,-2.97764
3496,22,8,11,32,37,-30,37,-6,0.283203,-0.489258,0.776367,-2.375,-6.375,-10.875,-0.446212,-0.27211,-2.97935
3496,5,-10,2,8,4,1,16,27,0.283203,-0.489258,0.776367,-2.375,-6.375,-10.875,-0.446212,-0.27211,-2.97935
3496,9,-5,17,-25,5,19,-61,-51,0.283203,-0.489258,0.776367,-2.375,-6.375,-10.875,-0.446212,-0.27211,-2.97935
3496,26,-10,-28,45,48,3,-16,12,0.283203,-0.489258,0.776367,-2.375,-6.375,-10.875,-0.446212,-0.27211,-2.97935
3520,3,13,-10,-53,-118,-32,-26,-2,0.257324,-0.439453,0.768555,-18.375,-10.375,-12.1875,-0.453416,-0.27728,-2.98139
3520,-25,9,49,124,127,17,63,11,0.257324,-0.439453,0.768555,-18.375,-10.375,-12.1875,-0.453416,-0.27728,-2.98139
3521,-31,-4,14,-64,-13,-16,-36,-27,0.257324,-0.439453,0.768555,-18.375,-10.375,-12.1875,-0.453416,-0.27728,-2.98139
3521,5,-29,-128,-128,-128,-70,15,17,0.257324,-0.439453,0.768555,-18.375,-10.375,-12.1875,-0.453416,-0.27728,-2.98139
3542,41,-6,74,127,127,86,2,-25,0.217773,-0.413574,0.838867,-17.375,-16.5625,-11.3125,-0.459219,-0.282957,-2.98239
3542,63,33,44,80,36,43,81,39,0.217773,-0.413574,0.838867,-17.375,-16.5625,-11.3125,-0.459219,-0.282957,-2.98239
3542,-53,20,55,-99,-55,-22,-17,2,0.217773,-0.413574,0.838867,-17.375,-16.5625,-11.3125,-0.459219,-0.282957,-2.98239
3542,-19,4,-32,-37,-44,-1,26,-13,0.217773,-0.413574,0.838867,-17.375,-16.5625,-11.3125,-0.459219,-0.282957,-2.98239
3556,74,4,-8,-44,-44,-62,-81,39,0.299805,-0.321289,0.877441,-11.125,-16.75,-9.625,-0.460337,-0.290178,-2.98359
3556,-98,-9,-43,-87,-66,-16,59,-34,0.299805,-0.321289,0.877441,-11.125,-16.75,-9.625,-0.460337,-0.290178,-2.98359
3557,66,-9,-32,61,-16,-25,-29,-16,0.299805,-0.321289,0.877441,-11.125,-16.75,-9.625,-0.460337,-0.290178,-2.98359
3557,-27,-7,-24,108,107,59,60,42,0.299805,-0.321289,0.877441,-11.125,-16.75,-9.625,-0.460337,-0.290178,-2.98359
3578,13,-6,-25,-19,-39,7,9,-29,0.309082,-0.303223,0.883301,-11.1875,-16.5625,-8.0625,-0.461133,-0.297213,-2.98441
3578,16,-5,-1,-84,-47,-39,-55,7,0.309082,-0.303223,0.883301,-11.1875,-16.5625,-8.0625,-0.461133,-0.297213,-2.98441
3579,10,7,48,126,127,46,-3,-10,0.309082,-0.303223,0.883301,-11.1875,-16.5625,-8.0625,-0.461133,-0.297213,-2.98441
3579,18,-3,-67,-52,-67,-6,-7,15,0.309082,-0.303223,0.883301,-11.1875,-16.5625,-8.0625,-0.461133,-0.297213,-2.98441
3602,0,19,88,-38,14,-15,8,7,0.282227,-0.367188,0.888672,-8.6875,-18.625,-8.875,-0.46235,-0.304015,-2.98481
3602,-76,1,91,67,79,31,-119,-91,0.282227,-0.367188,0.888672,-8.6875,-18.625,-8.875,-0.46235,-0.304015,-2.98481
3602,53,4,-78,-86,-127,-20,124,38,0.282227,-0.367188,0.888672,-8.6875,-18.625,-8.875,-0.46235,-0.304015,-2.98481
3602,-45,18,125,127,127,25,-72,-30,0.282227,-0.367188,0.888672,-8.6875,-18.625,-8.875,-0.46235,-0.304015,-2.98481
3615,61,17,-51,-87,-1,-14,-62,8,0.333984,-0.398926,0.852051,-2.625,-21.4375,-12.5625,-0.462517,-0.313238,-2.98555
3615,-10,-29,-14,-68,-44,-31,-29,-13,0.333984,-0.398926,0.852051,-2.625,-21.4375,-12.5625,-0.462517,-0.313238,-2.98555
3616,97,18,-24,65,127,43,20,79,0.333984,-0.398926,0.852051,-2.625,-21.4375,-12.5625,-0.462517,-0.313238,-2.98555
3616,-121,-11,-47,-107,-87,-24,28,-12,0.333984,-0.398926,0.852051,-2.625,-21.4375,-12.5625,-0.462517,-0.313238,-2.98555
3638,-50,-27,6,100,98,31,49,2,0.353516,-0.408203,0.800293,2.0625,-22.6875,-11.4375,-0.46191,-0.323367,-2.98558
3638,59,26,-23,-48,-78,-24,30,27,0.353516,-0.408203,0.800293,2.0625,-22.6875,-11.4375,-0.46191,-0.323367,-2.98558
3639,17,-29,-10,38,-6,17,-14,-14,0.353516,-0.408203,0.800293,2.0625,-22.6875,-11.4375,-0.46191,-0.323367,-2.98558
3639,49,20,29,9,108,22,-9,-13,0.353516,-0.408203,0.800293,2.0625,-22.6875,-11.4375,-0.46191,-0.323367,-2.98558
3661,-33,-12,-22,-110,-124,-26,-26,-4,0.269531,-0.448242,0.815918,-4.375,-21.9375,-8.3125,-0.464725,-0.330381,-2.98432
3661,61,-2,-72,-65,-74,-21,-38,-9,0.269531,-0.448242,0.815918,-4.375,-21.9375,-8.3125,-0.464725,-0.330381,-2.98432
3662,1,-19,-14,81,-70,15,96,58,0.269531,-0.448242,0.815918,-4.375,-21.9375,-8.3125,-0.464725,-0.330381,-2.98432
3662,8,20,92,60,82,-1,-103,-44,0.269531,-0.448242,0.815918,-4.375,-21.9375,-8.3125,-0.464725,-0.330381,-2.98432
3676,48,-4,-72,33,71,34,98,37,0.267578,-0.445312,0.838379,-4.9375,-20.375,-8.5625,-0.467128,-0.336544,-2.98363
3676,-54,11,-5,-36,40,1,3,-24,0.267578,-0.445312,0.838379,-4.9375,-20.375,-8.5625,-0.467128,-0.336544,-2.98363
3683,49,38,38,-42,-87,-29,-31,19,0.267578,-0.445312,0.838379,-4.9375,-20.375,-8.5625,-0.467128,-0.336544,-2.98363
3683,-95,-67,-97,-125,-128,-31,19,-41,0.267578,-0.445312,0.838379,-4.9375,-20.375,-8.5625,-0.467128,-0.336544,-2.98363
3698,0,1,6,41,76,15,-36,7,0.302246,-0.354004,0.792969,1.5,-16.625,-11.5,-0.465094,-0.343339,-2.98508
3698,123,20,55,62,15,11,34,40,0.302246,-0.354004,0.792969,1.5,-16.625,-11.5,-0.465094,-0.343339,-2.98508
3699,-128,-21,-27,-29,0,-21,-54,-50,0.302246,-0.354004,0.792969,1.5,-16.625,-11.5,-0.465094,-0.343339,-2.98508
3699,43,0,1,-55,64,12,38,16,0.302246,-0.354004,0.792969,1.5,-16.625,-11.5,-0.465094,-0.343339,-2.98508
3721,24,11,27,23,-17,10,35,-11,0.342285,-0.390137,0.804199,-4.125,-16.9375,-11.9375,-0.465881,-0.350755,-2.98627
3721,-55,-20,-31,-18,-73,-55,-61,0,0.342285,-0.390137,0.804199,-4.125,-16.9375,-11.9375,-0.465881,-0.350755,-2.98627
3722,-10,0,14,-65,-2,-18,-64,-16,0.342285,-0.390137,0.804199,-4.125,-16.9375,-11.9375,-0.465881,-0.350755,-2.98627
3722,74,6,40,89,61,79,73,16,0.342285,-0.390137,0.804199,-4.125,-16.9375,-11.9375,-0.465881,-0.350755,-2.98627
3736,-70,-9,-27,-107,-52,4,97,-5,0.378418,-0.443359,0.847656,-9.4375,-15.5,-8.75,-0.469338,-0.357484,-2.98646
3736,-40,14,17,127,-30,-38,11,-15,0.378418,-0.443359,0.847656,-9.4375,-15.5,-8.75,-0.469338,-0.357484,-2.98646
3736,56,7,5,10,97,6,44,16,0.378418,-0.443359,0.847656,-9.4375,-15.5,-8.75,-0.469338,-0.357484,-2.98646
3736,22,19,-7,-36,8,-17,-62,-74,0.378418,-0.443359,0.847656,-9.4375,-15.5,-8.75,-0.469338,-0.357484,-2.98646
3758,34,-20,-48,-49,-96,-7,28,33,0.36084,-0.415039,0.836426,-1.125,-11.875,-6.5625,-0.469513,-0.362428,-2.98673
3758,-38,-3,59,-54,78,22,-6,16,0.36084,-0.415039,0.836426,-1.125,-11.875,-6.5625,-0.469513,-0.362428,-2.98673
3759,-5,13,9,50,23,9,2,-30,0.36084,-0.415039,0.836426,-1.125,-11.875,-6.5625,-0.469513,-0.362428,-2.98673
3759,119,5,71,7,-39,-17,-10,77,0.36084,-0.415039,0.836426,-1.125,-11.875,-6.5625,-0.469513,-0.362428,-2.98673
3782,-112,-36,-77,-21,2,15,-36,-81,0.363281,-0.339355,0.815918,4.3125,-9.4375,-5.8125,-0.466146,-0.366857,-2.98769
3782,-4,-11,-8,-50,-87,-38,-36,-13,0.363281,-0.339355,0.815918,4.3125,-9.4375,-5.8125,-0.466146,-0.366857,-2.98769
3782,-29,-15,-65,1,10,-52,-50,-6,0.363281,-0.339355,0.815918,4.3125,-9.4375,-5.8125,-0.466146,-0.366857,-2.98769
3782,0,18,16,93,13,62,114,35,0.363281,-0.339355,0.815918,4.3125,-9.4375,-5.8125,-0.466146,-0.366857,-2.98769
3796,-8,18,66,36,36,30,-21,15,0.319336,-0.403809,0.868164,-1.9375,-7.1875,-6.875,-0.465602,-0.368965,-2.98903
3796,99,7,-39,-17,-4,23,-59,43,0.319336,-0.403809,0.868164,-1.9375,-7.1875,-6.875,-0.465602,-0.368965,-2.98903
3797,-17,-5,-24,-7,-23,-23,3,-47,0.319336,-0.403809,0.868164,-1.9375,-7.1875,-6.875,-0.465602,-0.368965,-2.98903
3797,-89,-5,12,13,-45,-48,-44,-32,0.319336,-0.403809,0.868164,-1.9375,-7.1875,-6.875,-0.465602,-0.368965,-2.98903
3819,19,-20,-64,1,26,-9,-63,-32,0.358887,-0.442871,0.869141,-2.1875,-6.875,-3.5625,-0.466502,-0.371139,-2.98909
3819,-1,6,-60,-74,-4,-6,53,21,0.358887,-0.442871,0.869141,-2.1875,-6.875,-3.5625,-0.466502,-0.371139,-2.98909
3820,-12,-24,-21,-100,-9,42,-4,6,0.358887,-0.442871,0.869141,-2.1875,-6.875,-3.5625,-0.466502,-0.371139,-2.98909
3820,-24,-5,-15,28,-67,-35,-40,-21,0.358887,-0.442871,0.869141,-2.1875,-6.875,-3.5625,-0.466502,-0.371139,-2.98909
3842,52,9,70,74,-52,-32,21,17,0.373535,-0.362305,0.815918,8.125,-4,-0.3125,-0.46282,-0.373011,-2.98887
3842,17,-4,-38,85,127,61,36,25,0.373535,-0.362305,0.815918,8.125,-4,-0.3125,-0.46282,-0.373011,-2.98887
3842,-60,-11,38,-91,-56,-2,-46,-72,0.373535,-0.362305,0.815918,8.125,-4,-0.3125,-0.46282,-0.373011,-2.98887
3842,37,-2,-59,35,-48,-23,30,17,0.373535,-0.362305,0.815918,8.125,-4,-0.3125,-0.46282,-0.373011,-2.98887
3856,37,3,43,-30,52,9,17,35,0.353027,-0.350098,0.794922,3.875,-4.125,-0.5,-0.460587,-0.374591,-2.98878
3856,-105,-26,-71,-19,-78,-38,55,-46,0.353027,-0.350098,0.794922,3.875,-4.125,-0.5,-0.460587,-0.374591,-2.98878
3856,110,31,103,114,117,64,41,60,0.353027,-0.350098,0.794922,3.875,-4.125,-0.5,-0.460587,-0.374591,-2.98878
3856,-83,-20,-9,23,88,-12,-94,-72,0.353027,-0.350098,0.794922,3.875,-4.125,-0.5,-0.460587,-0.374591,-2.98878
3879,71,15,-41,-65,-88,-102,-4,7,0.374512,-0.422852,0.804688,1.5625,-0.3125,-2.8125,-0.460196,-0.375521,-2.98941
3879,76,-26,-6,14,-28,14,-22,44,0.374512,-0.422852,0.804688,1.5625,-0.3125,-2.8125,-0.460196,-0.375521,-2.98941
3880,42,8,58,94,59,31,13,8,0.374512,-0.422852,0.804688,1.5625,-0.3125,-2.8125,-0.460196,-0.375521,-2.98941
3880,40,17,32,-57,66,10,35,33,0.374512,-0.422852,0.804688,1.5625,-0.3125,-2.8125,-0.460196,-0.375521,-2.98941
3901,-39,12,24,-6,-54,34,-10,-9,0.359863,-0.433594,0.791504,0.5625,2.6875,-1.75,-0.460631,-0.375011,-2.99008
3901,-20,-5,-10,-71,-99,-32,-16,-36,0.359863,-0.433594,0.791504,0.5625,2.6875,-1.75,-0.460631,-0.375011,-2.99008
3902,-26,-23,-4,-31,19,-17,34,28,0.359863,-0.433594,0.791504,0.5625,2.6875,-1.75,-0.460631,-0.375011,-2.99008
3902,38,-10,-56,54,2,21,-30,8,0.359863,-0.433594,0.791504,0.5625,2.6875,-1.75,-0.460631,-0.375011,-2.99008
3915,-13,-7,30,-81,-52,-28,-10,6,0.365234,-0.392578,0.788086,8.25,5.125,-0.0625,-0.457524,-0.373871,-2.99088
3915,65,-1,21,-57,16,9,-49,-26,0.365234,-0.392578,0.788086,8.25,5.125,-0.0625,-0.457524,-0.373871,-2.99088
3923,-51,17,86,107,14,5,0,-15,0.365234,-0.392578,0.788086,8.25,5.125,-0.0625,-0.457524,-0.373871,-2.99088
3923,-92,-17,-100,-51,23,16,67,8,0.365234,-0.392578,0.788086,8.25,5.125,-0.0625,-0.457524,-0.373871,-2.99088
3939,25,6,39,67,10,4,-43,31,0.346191,-0.361816,0.810547,6.0625,5.25,-1.25,-0.454089,-0.372393,-2.99245
3939,11,8,-5,52,94,3,27,-12,0.346191,-0.361816,0.810547,6.0625,5.25,-1.25,-0.454089,-0.372393,-2.99245
3940,-42,-8,6,-46,-117,-37,-69,-3,0.346191,-0.361816,0.810547,6.0625,5.25,-1.25,-0.454089,-0.372393,-2.99245
3940,0,-13,-59,-128,-19,-69,-23,-15,0.346191,-0.361816,0.810547,6.0625,5.25,-1.25,-0.454089,-0.372393,-2.99245
3961,26,-5,-13,52,80,68,2,-11,0.362305,-0.376953,0.786621,-1.875,4.875,-2.0625,-0.454086,-0.371728,-2.99404
3961,0,21,50,95,57,64,15,15,0.362305,-0.376953,0.786621,-1.875,4.875,-2.0625,-0.454086,-0.371728,-2.99404
3962,-8,13,-39,-45,2,-5,31,7,0.362305,-0.376953,0.786621,-1.875,4.875,-2.0625,-0.454086,-0.371728,-2.99404
3962,-1,3,24,-44,-128,-5,2,5,0.362305,-0.376953,0.786621,-1.875,4.875,-2.0625,-0.454086,-0.371728,-2.99404
3976,-6,-13,-65,-47,100,-51,6,-5,0.361328,-0.403809,0.807129,-0.8125,3.9375,0.375,-0.454378,-0.370663,-2.99449
3976,51,-11,48,99,112,18,-61,-46,0.361328,-0.403809,0.807129,-0.8125,3.9375,0.375,-0.454378,-0.370663,-2.99449
3984,-61,3,-30,-20,13,14,-1,-1,0.361328,-0.403809,0.807129,-0.8125,3.9375,0.375,-0.454378,-0.370663,-2.99449
3984,116,28,14,64,-4,-31,16,51,0.361328,-0.403809,0.807129,-0.8125,3.9375,0.375,-0.454378,-0.370663,-2.99449
3998,-3,-13,-71,-125,-128,18,17,-32,0.379883,-0.380859,0.826172,4.25,4.375,0.125,-0.452086,-0.369874,-2.99528
3998,-89,-10,16,97,60,-16,-25,-26,0.379883,-0.380859,0.826172,4.25,4.375,0.125,-0.452086,-0.369874,-2.99528
3999,5,8,85,82,86,35,8,6,0.379883,-0.380859,0.826172,4.25,4.375,0.125,-0.452086,-0.369874,-2.99528
3999,-22,-4,-63,-41,8,9,13,0,0.379883,-0.380859,0.826172,4.25,4.375,0.125,-0.452086,-0.369874,-2.99528
4021,-22,-2,27,-74,-78,-29,-8,12,0.331543,-0.38623,0.806152,3.6875,2.9375,0.875,-0.450579,-0.368428,-2.99553
4021,-15,-10,-21,-108,-118,-15,4,18,0.331543,-0.38623,0.806152,3.6875,2.9375,0.875,-0.450579,-0.368428,-2.99553
4022,61,0,-16,-77,13,-20,-17,-1,0.331543,-0.38623,0.806152,3.6875,2.9375,0.875,-0.450579,-0.368428,-2.99553
4022,-55,-11,4,31,-69,39,33,11,0.331543,-0.38623,0.806152,3.6875,2.9375,0.875,-0.450579,-0.368428,-2.99553
4036,-52,2,13,13,22,-22,-28,18,0.299316,-0.389648,0.796875,-0.625,3.3125,3.6875,-0.451192,-0.365955,-2.99485
4036,26,5,-51,-61,64,85,56,11,0.299316,-0.389648,0.796875,-0.625,3.3125,3.6875,-0.451192,-0.365955,-2.99485
4044,50,3,45,71,-87,-37,-10,28,0.299316,-0.389648,0.796875,-0.625,3.3125,3.6875,-0.451192,-0.365955,-2.99485
4044,-12,2,77,1,65,42,-6,-57,0.299316,-0.389648,0.796875,-0.625,3.3125,3.6875,-0.451192,-0.365955,-2.99485
4067,-18,17,12,-5,-41,-1,17,20,0.300781,-0.432617,0.850586,-1,3.5,2.0625,-0.45209,-0.36305,-2.99452
4067,-48,4,-34,-29,-82,-36,-3,-8,0.300781,-0.432617,0.850586,-1,3.5,2.0625,-0.45209,-0.36305,-2.99452
4068,-28,-13,-14,9,101,37,65,-10,0.300781,-0.432617,0.850586,-1,3.5,2.0625,-0.45209,-0.36305,-2.99452
4068,56,10,114,69,67,3,2,16,0.300781,-0.432617,0.850586,-1,3.5,2.0625,-0.45209,-0.36305,-2.99452
4081,19,15,-26,79,28,5,-56,-3,0.369141,-0.339844,0.803223,8,4,1.6875,-0.448065,-0.362386,-2.99507
4081,5,-14,28,-30,-29,-29,27,-6,0.369141,-0.339844,0.803223,8,4,1.6875,-0.448065,-0.362386,-2.99507
4082,13,-16,-61,-115,-110,-61,-21,5,0.369141,-0.339844,0.803223,8,4,1.6875,-0.448065,-0.362386,-2.99507
4082,-39,-4,6,0,47,16,5,-32,0.369141,-0.339844,0.803223,8,4,1.6875,-0.448065,-0.362386,-2.99507
4095,30,-6,-15,69,-9,4,8,9,0.36377,-0.373535,0.806641,1,1.75,6.5,-0.448076,-0.36149,-2.99326
4095,-44,8,55,57,103,14,64,-2,0.36377,-0.373535,0.806641,1,1.75,6.5,-0.448076,-0.36149,-2.99326
4104,28,10,-7,62,11,15,-85,-12,0.36377,-0.373535,0.806641,1,1.75,6.5,-0.448076,-0.36149,-2.99326
4104,26,3,-42,-110,-53,-15,88,15,0.36377,-0.373535,0.806641,1,1.75,6.5,-0.448076,-0.36149,-2.99326
4118,-44,-11,30,-92,-62,12,-1,-58,0.327637,-0.398926,0.824707,-5.25,2.375,4.1875,-0.450241,-0.359779,-2.99221
4118,113,21,-8,127,80,23,-58,59,0.327637,-0.398926,0.824707,-5.25,2.375,4.1875,-0.450241,-0.359779,-2.99221
4118,-99,-18,27,-108,-76,19,30,-60,0.327637,-0.398926,0.824707,-5.25,2.375,4.1875,-0.450241,-0.359779,-2.99221
4118,61,13,42,61,18,-33,-107,-12,0.327637,-0.398926,0.824707,-5.25,2.375,4.1875,-0.450241,-0.359779,-2.99221
4141,48,-1,-70,17,-16,-1,11,8,0.338379,-0.391602,0.82666,0.6875,4.625,0.8125,-0.449712,-0.358135,-2.99275
4141,13,16,18,-49,-126,-40,6,20,0.338379,-0.391602,0.82666,0.6875,4.625,0.8125,-0.449712,-0.358135,-2.99275
4142,13,-17,-74,-48,49,-2,-5,3,0.338379,-0.391602,0.82666,0.6875,4.625,0.8125,-0.449712,-0.358135,-2.99275
4142,-18,-2,27,-22,-18,16,-1,20,0.338379,-0.391602,0.82666,0.6875,4.625,0.8125,-0.449712,-0.358135,-2.99275
4155,-28,-6,64,85,118,18,19,-3,0.362305,-0.354492,0.803223,5.8125,4.8125,3.25,-0.447043,-0.356928,-2.99267
4155,-48,-5,34,-86,-119,-40,-40,-32,0.362305,-0.354492,0.803223,5.8125,4.8125,3.25,-0.447043,-0.356928,-2.99267
4163,65,6,-67,127,119,18,40,46,0.362305,-0.354492,0.803223,5.8125,4.8125,3.25,-0.447043,-0.356928,-2.99267
4163,28,-25,-81,-111,-28,5,34,-31,0.362305,-0.354492,0.803223,5.8125,4.8125,3.25,-0.447043,-0.356928,-2.99267
4178,-22,6,37,99,49,-59,-95,27,0.331543,-0.37793,0.822266,2.4375,3.1875,5.1875,-0.446124,-0.354909,-2.99153
4178,-35,-4,42,56,31,41,29,-24,0.331543,-0.37793,0.822266,2.4375,3.1875,5.1875,-0.446124,-0.354909,-2.99153
4179,-67,2,13,33,-30,8,25,-34,0.331543,-0.37793,0.822266,2.4375,3.1875,5.1875,-0.446124,-0.354909,-2.99153
4179,28,-5,-22,-37,-67,-44,36,54,0.331543,-0.37793,0.822266,2.4375,3.1875,5.1875,-0.446124,-0.354909,-2.99153
4202,41,17,50,-6,127,78,18,4,0.348145,-0.399902,0.822754,-2.6875,3.375,3.4375,-0.447366,-0.353608,-2.99098
4202,51,-22,-113,-128,-121,-86,-42,12,0.348145,-0.399902,0.822754,-2.6875,3.375,3.4375,-0.447366,-0.353608,-2.99098
4202,-30,-1,42,87,50,14,-13,-16,0.348145,-0.399902,0.822754,-2.6875,3.375,3.4375,-0.447366,-0.353608,-2.99098
4202,29,3,-38,77,87,29,-17,13,0.348145,-0.399902,0.822754,-2.6875,3.375,3.4375,-0.447366,-0.353608,-2.99098
4215,24,0,73,-31,-87,-16,-63,-18,0.342285,-0.397461,0.834473,1.25,4.625,3.3125,-0.446971,-0.351754,-2.99062
4215,-13,3,-24,-49,84,28,15,-14,0.342285,-0.397461,0.834473,1.25,4.625,3.3125,-0.446971,-0.351754,-2.99062
4223,64,5,-51,8,-80,1,19,23,0.342285,-0.397461,0.834473,1.25,4.625,3.3125,-0.446971,-0.351754,-2.99062
4223,-36,6,-36,-27,-44,-28,-27,-8,0.342285,-0.397461,0.834473,1.25,4.625,3.3125,-0.446971,-0.351754,-2.99062
4239,-7,-29,-59,-37,-11,-4,32,-20,0.317871,-0.408691,0.830566,-1.1875,3.6875,2.8125,-0.447837,-0.349711,-2.99018
4239,-49,-3,16,-40,1,1,13,-9,0.317871,-0.408691,0.830566,-1.1875,3.6875,2.8125,-0.447837,-0.349711,-2.99018
4239,-17,-13,38,-13,41,-21,-116,-30,0.317871,-0.408691,0.830566,-1.1875,3.6875,2.8125,-0.447837,-0.349711,-2.99018
4239,-4,7,57,65,-39,36,3,-8,0.317871,-0.408691,0.830566,-1.1875,3.6875,2.8125,-0.447837,-0.349711,-2.99018
4262,83,21,23,56,-39,1,48,9,0.29541,-0.399414,0.831543,-2.5,2.4375,4.125,-0.448897,-0.347381,-2.9891
4262,-68,-20,-65,-41,-11,-52,-16,-31,0.29541,-0.399414,0.831543,-2.5,2.4375,4.125,-0.448897,-0.347381,-2.9891
4262,34,2,-37,-128,37,88,16,36,0.29541,-0.399414,0.831543,-2.5,2.4375,4.125,-0.448897,-0.347381,-2.9891
4262,-39,-10,7,74,47,-15,-72,-9,0.29541,-0.399414,0.831543,-2.5,2.4375,4.125,-0.448897,-0.347381,-2.9891
4283,60,30,58,27,0,36,45,14,0.300293,-0.382812,0.841797,-0.6875,2.1875,3.9375,-0.448947,-0.345312,-2.98835
4283,-3,5,-31,13,42,-11,-29,21,0.300293,-0.382812,0.841797,-0.6875,2.1875,3.9375,-0.448947,-0.345312,-2.98835
4285,22,-10,5,24,21,-3,23,12,0.300293,-0.382812,0.841797,-0.6875,2.1875,3.9375,-0.448947,-0.345312,-2.98835
4285,-6,2,40,-92,-53,-13,-27,-36,0.300293,-0.382812,0.841797,-0.6875,2.1875,3.9375,-0.448947,-0.345312,-2.98835
4298,-9,-8,-29,26,27,6,14,-25,0.34082,-0.371582,0.848145,1.8125,2.3125,2.5625,-0.447599,-0.344424,-2.98818
4298,12,-4,-3,-19,-103,-23,7,-20,0.34082,-0.371582,0.848145,1.8125,2.3125,2.5625,-0.447599,-0.344424,-2.98818
4299,-39,2,20,-112,-32,-40,-25,-20,0.34082,-0.371582,0.848145,1.8125,2.3125,2.5625,-0.447599,-0.344424,-2.98818
4299,0,-33,-97,36,-7,18,20,7,0.34082,-0.371582,0.848145,1.8125,2.3125,2.5625,-0.447599,-0.344424,-2.98818
4322,15,-15,-31,-66,32,-13,19,8,0.316406,-0.348633,0.852051,8.25,2.5625,4.625,-0.443843,-0.342608,-2.98741
4322,107,35,124,111,98,39,-17,34,0.316406,-0.348633,0.852051,8.25,2.5625,4.625,-0.443843,-0.342608,-2.98741
4323,-69,26,34,-67,-76,17,-2,-22,0.316406,-0.348633,0.852051,8.25,2.5625,4.625,-0.443843,-0.342608,-2.98741
4323,31,-1,-1,-83,6,-51,-31,34,0.316406,-0.348633,0.852051,8.25,2.5625,4.625,-0.443843,-0.342608,-2.98741
4352,-69,-17,-62,27,17,55,3,-13,0.328613,-0.379395,0.833496,0,0.6875,4.4375,-0.443868,-0.341848,-2.98621
4352,28,-6,-13,127,115,-22,73,50,0.328613,-0.379395,0.833496,0,0.6875,4.4375,-0.443868,-0.341848,-2.98621
4352,43,6,-35,19,-33,-3,7,-30,0.328613,-0.379395,0.833496,0,0.6875,4.4375,-0.443868,-0.341848,-2.98621
4352,-25,5,-46,-96,-16,-25,-12,-20,0.328613,-0.379395,0.833496,0,0.6875,4.4375,-0.443868,-0.341848,-2.98621
4359,23,2,52,49,-23,-6,34,8,0.378418,-0.398926,0.825684,2.3125,0.625,4.0625,-0.44353,-0.342232,-2.98492
4359,-61,0,9,39,27,56,10,-12,0.378418,-0.398926,0.825684,2.3125,0.625,4.0625,-0.44353,-0.342232,-2.98492
4359,80,-8,-20,-35,-29,1,85,63,0.378418,-0.398926,0.825684,2.3125,0.625,4.0625,-0.44353,-0.342232,-2.98492
4359,-84,6,87,63,24,-25,-81,-71,0.378418,-0.398926,0.825684,2.3125,0.625,4.0625,-0.44353,-0.342232,-2.98492
4382,12,-3,-4,-97,-78,-39,-30,29,0.334473,-0.376953,0.825684,4.75,0.1875,5.0625,-0.442068,-0.341576,-2.98342
4382,-10,-12,6,3,-26,-18,-5,-7,0.334473,-0.376953,0.825684,4.75,0.1875,5.0625,-0.442068,-0.341576,-2.98342
4383,4,-14,-34,-21,48,-10,24,10,0.334473,-0.376953,0.825684,4.75,0.1875,5.0625,-0.442068,-0.341576,-2.98342
4383,56,-1,-50,23,31,37,54,10,0.334473,-0.376953,0.825684,4.75,0.1875,5.0625,-0.442068,-0.341576,-2.98342
4404,-59,9,-7,-23,-1,-7,-53,-46,0.316406,-0.374512,0.80957,1.6875,0.9375,4.25,-0.441707,-0.340707,-2.9822
4404,-42,11,99,15,-82,-1,26,-11,0.316406,-0.374512,0.80957,1.6875,0.9375,4.25,-0.441707,-0.340707,-2.9822
4405,54,5,15,22,-32,-4,14,32,0.316406,-0.374512,0.80957,1.6875,0.9375,4.25,-0.441707,-0.340707,-2.9822
4405,-1,-20,-30,-42,-36,27,-24,-7,0.316406,-0.374512,0.80957,1.6875,0.9375,4.25,-0.441707,-0.340707,-2.9822
4419,-36,-12,-2,22,121,-48,-38,-26,0.324707,-0.383789,0.806641,2.6875,1.1875,3.0625,-0.441149,-0.340023,-2.98131
4419,60,23,-12,-51,-7,40,4,19,0.324707,-0.383789,0.806641,2.6875,1.1875,3.0625,-0.441149,-0.340023,-2.98131
4419,98,7,-10,68,-9,-14,9,27,0.324707,-0.383789,0.806641,2.6875,1.1875,3.0625,-0.441149,-0.340023,-2.98131
4419,-56,6,94,-9,15,-10,8,-16,0.324707,-0.383789,0.806641,2.6875,1.1875,3.0625,-0.441149,-0.340023,-2.98131
4442,80,-4,-54,-44,-86,-42,22,35,0.356934,-0.401367,0.818848,2.875,-0.25,2.4375,-0.440748,-0.340489,-2.9804
4442,-96,-49,-117,-128,-119,-57,-33,-67,0.356934,-0.401367,0.818848,2.875,-0.25,2.4375,-0.440748,-0.340489,-2.9804
4449,5,-2,6,75,127,59,-58,-7,0.330078,-0.417969,0.837891,1.0625,-3.3125,2.6875,-0.441405,-0.34114,-2.97874
4449,5,26,53,117,83,41,48,28,0.330078,-0.417969,0.837891,1.0625,-3.3125,2.6875,-0.441405,-0.34114,-2.97874
4464,17,12,-31,43,-47,29,77,16,0.330078,-0.417969,0.837891,1.0625,-3.3125,2.6875,-0.441405,-0.34114,-2.97874
4464,112,13,29,-65,-65,-100,-37,9,0.330078,-0.417969,0.837891,1.0625,-3.3125,2.6875,-0.441405,-0.34114,-2.97874
4465,-121,-20,11,39,-63,28,-36,-63,0.316895,-0.36377,0.816895,2.1875,-3.875,3.75,-0.440621,-0.341698,-2.97706
4465,24,-16,-93,41,69,39,21,23,0.316895,-0.36377,0.816895,2.1875,-3.875,3.75,-0.440621,-0.341698,-2.97706
4479,11,12,44,50,44,25,-20,4,0.316895,-0.36377,0.816895,2.1875,-3.875,3.75,-0.440621,-0.341698,-2.97706
4479,31,22,29,-4,27,-7,21,21,0.316895,-0.36377,0.816895,2.1875,-3.875,3.75,-0.440621,-0.341698,-2.97706
4479,3,-26,-36,-128,-128,-33,28,3,0.316895,-0.36377,0.816895,2.1875,-3.875,3.75,-0.440621,-0.341698,-2.97706
4479,-16,-1,14,-66,-60,-33,-43,-4,0.316895,-0.36377,0.816895,2.1875,-3.875,3.75,-0.440621,-0.341698,-2.97706
4502,-21,-13,-18,52,42,3,-6,-10,0.334473,-0.344727,0.786133,2.4375,-3.25,4.6875,-0.439873,-0.342733,-2.97508
4502,-46,-3,-11,59,85,43,-32,9,0.334473,-0.344727,0.786133,2.4375,-3.25,4.6875,-0.439873,-0.342733,-2.97508
4502,26,-5,-19,-112,-103,-56,3,5,0.334473,-0.344727,0.786133,2.4375,-3.25,4.6875,-0.439873,-0.342733,-2.97508
4502,-51,-1,8,116,30,9,15,-12,0.334473,-0.344727,0.786133,2.4375,-3.25,4.6875,-0.439873,-0.342733,-2.97508
4525,-2,-8,13,16,54,0,-13,35,0.339844,-0.368652,0.821777,0.5625,-0.6875,2.5,-0.439538,-0.342974,-2.97433
4525,-2,0,-9,-77,-41,-13,-1,-33,0.339844,-0.368652,0.821777,0.5625,-0.6875,2.5,-0.439538,-0.342974,-2.97433
4526,47,20,33,127,127,57,11,3,0.325195,-0.379883,0.831543,-0.5,1.875,-0.5,-0.439371,-0.342452,-2.97486
4526,69,20,12,-128,-128,-55,12,21,0.325195,-0.379883,0.831543,-0.5,1.875,-0.5,-0.439371,-0.342452,-2.97486
4538,55,-11,-39,-32,-55,-46,8,-7,0.325195,-0.379883,0.831543,-0.5,1.875,-0.5,-0.439371,-0.342452,-2.97486
4538,-101,-45,-10,127,124,79,-4,-42,0.325195,-0.379883,0.831543,-0.5,1.875,-0.5,-0.439371,-0.342452,-2.97486
4547,90,28,-20,10,19,-61,5,68,0.32373,-0.387695,0.814941,0.5625,0.5,1.6875,-0.439428,-0.342074,-2.9743
4547,-43,-3,-11,-112,3,51,55,-35,0.32373,-0.387695,0.814941,0.5625,0.5,1.6875,-0.439428,-0.342074,-2.9743
4561,-18,2,-20,94,73,15,-57,-24,0.32373,-0.387695,0.814941,0.5625,0.5,1.6875,-0.439428,-0.342074,-2.9743
4561,108,20,4,-79,-77,-32,8,62,0.32373,-0.387695,0.814941,0.5625,0.5,1.6875,-0.439428,-0.342074,-2.9743
4563,-116,-18,-22,-37,7,12,-26,-58,0.340332,-0.395508,0.828125,2.625,-0.1875,4.4375,-0.439168,-0.341759,-2.97276
4563,17,-1,-17,36,36,22,46,31,0.340332,-0.395508,0.828125,2.625,-0.1875,4.4375,-0.439168,-0.341759,-2.97276
4584,-44,-8,-50,-105,-56,-21,-68,-11,0.340332,-0.395508,0.828125,2.625,-0.1875,4.4375,-0.439168,-0.341759,-2.97276
4584,76,11,-1,116,46,21,21,37,0.340332,-0.395508,0.828125,2.625,-0.1875,4.4375,-0.439168,-0.341759,-2.97276
4586,-22,-10,5,-2,-83,-54,-47,-29,0.341309,-0.381836,0.826172,-2.75,-0.125,3.5625,-0.440288,-0.341713,-2.97155
4586,-10,0,17,-39,-60,8,-21,-7,0.341309,-0.381836,0.826172,-2.75,-0.125,3.5625,-0.440288,-0.341713,-2.97155
4598,-26,10,73,38,89,32,62,-21,0.341309,-0.381836,0.826172,-2.75,-0.125,3.5625,-0.440288,-0.341713,-2.97155
4598,35,6,-3,-30,-56,-5,-14,13,0.341309,-0.381836,0.826172,-2.75,-0.125,3.5625,-0.440288,-0.341713,-2.97155
4607,-16,6,51,-91,-68,-32,-10,-16,0.30127,-0.380371,0.851074,-0.6875,3.8125,0.6875,-0.439926,-0.339667,-2.97209
4607,-53,-20,7,91,30,-14,-16,2,0.30127,-0.380371,0.851074,-0.6875,3.8125,0.6875,-0.439926,-0.339667,-2.97209
4622,-20,-5,32,-27,-28,21,19,-22,0.30127,-0.380371,0.851074,-0.6875,3.8125,0.6875,-0.439926,-0.339667,-2.97209
4622,-17,-8,-25,17,-25,-10,-17,1,0.30127,-0.380371,0.851074,-0.6875,3.8125,0.6875,-0.439926,-0.339667,-2.97209
4623,36,18,58,127,127,67,32,12,0.299316,-0.362793,0.856934,-0.5,1.375,-0.5625,-0.439031,-0.338724,-2.97287
4623,24,6,-42,23,0,-19,-6,-13,0.299316,-0.362793,0.856934,-0.5,1.375,-0.5625,-0.439031,-0.338724,-2.97287
4644,-58,-6,30,-68,-126,-21,42,7,0.299316,-0.362793,0.856934,-0.5,1.375,-0.5625,-0.439031,-0.338724,-2.97287
4644,-21,-18,-13,-27,80,8,-59,-23,0.299316,-0.362793,0.856934,-0.5,1.375,-0.5625,-0.439031,-0.338724,-2.97287
4646,3,8,-11,-10,26,-10,8,25,0.338379,-0.380371,0.837402,1.0625,1.375,3.5,-0.438606,-0.33804,-2.97197
4646,47,1,5,13,-47,-13,9,37,0.338379,-0.380371,0.837402,1.0625,1.375,3.5,-0.438606,-0.33804,-2.97197
4658,-8,4,8,20,34,30,-3,-32,0.338379,-0.380371,0.837402,1.0625,1.375,3.5,-0.438606,-0.33804,-2.97197
4658,-42,6,115,3,-34,-9,44,-13,0.338379,-0.380371,0.837402,1.0625,1.375,3.5,-0.438606,-0.33804,-2.97197
4667,19,-46,-122,-100,-109,-100,-46,23,0.35791,-0.410156,0.860352,2.0625,2.625,4.1875,-0.438312,-0.337201,-2.97095
4667,17,6,111,127,127,114,31,-17,0.35791,-0.410156,0.860352,2.0625,2.625,4.1875,-0.438312,-0.337201,-2.97095
4682,38,19,6,-128,-128,-51,-3,6,0.35791,-0.410156,0.860352,2.0625,2.625,4.1875,-0.438312,-0.337201,-2.97095
4682,-12,3,68,102,79,30,40,-12,0.35791,-0.410156,0.860352,2.0625,2.625,4.1875,-0.438312,-0.337201,-2.97095
4683,-1,17,38,96,104,39,-39,39,0.316406,-0.364258,0.844727,1.9375,2.375,1.75,-0.437028,-0.336001,-2.97098
4683,81,7,-70,-87,-79,-54,69,60,0.316406,-0.364258,0.844727,1.9375,2.375,1.75,-0.437028,-0.336001,-2.97098
4704,-76,-28,-50,-95,-81,-69,-81,-16,0.316406,-0.364258,0.844727,1.9375,2.375,1.75,-0.437028,-0.336001,-2.97098
4704,4,-12,7,38,55,16,-45,-7,0.316406,-0.364258,0.844727,1.9375,2.375,1.75,-0.437028,-0.336001,-2.97098
4705,46,-5,-18,-22,-31,-12,53,8,0.324219,-0.363281,0.828613,4.875,3.125,0.9375,-0.4347,-0.335172,-2.97137
4705,-33,-1,89,52,24,18,8,-19,0.324219,-0.363281,0.828613,4.875,3.125,0.9375,-0.4347,-0.335172,-2.97137
4717,48,-2,-72,-35,40,48,15,23,0.324219,-0.363281,0.828613,4.875,3.125,0.9375,-0.4347,-0.335172,-2.97137
4717,-3,0,-45,37,-74,1,13,-14,0.324219,-0.363281,0.828613,4.875,3.125,0.9375,-0.4347,-0.335172,-2.97137
4726,-19,16,44,9,-2,7,-1,3,0.31543,-0.401855,0.835938,-0.5625,2.9375,1,-0.435187,-0.333871,-2.97134
4726,-9,2,19,-68,-20,-96,-71,-14,0.31543,-0.401855,0.835938,-0.5625,2.9375,1,-0.435187,-0.333871,-2.97134
4742,42,-7,14,15,44,92,23,-8,0.31543,-0.401855,0.835938,-0.5625,2.9375,1,-0.435187,-0.333871,-2.97134
4742,-92,-23,-127,-128,-45,2,23,3,0.31543,-0.401855,0.835938,-0.5625,2.9375,1,-0.435187,-0.333871,-2.97134
4743,-58,-11,-10,123,83,22,43,-39,0.310059,-0.416016,0.854004,2.1875,2.625,1.4375,-0.43493,-0.332427,-2.97109
4743,24,8,-9,-33,-23,-11,-70,-15,0.310059,-0.416016,0.854004,2.1875,2.625,1.4375,-0.43493,-0.332427,-2.97109
4764,23,17,61,-25,2,-33,13,29,0.310059,-0.416016,0.854004,2.1875,2.625,1.4375,-0.43493,-0.332427,-2.97109
4764,11,-6,-40,-28,-30,12,-14,10,0.310059,-0.416016,0.854004,2.1875,2.625,1.4375,-0.43493,-0.332427,-2.97109
4772,-21,-9,-15,-119,-103,-3,-7,-36,0.316895,-0.365723,0.817383,5.625,1.9375,2.875,-0.432889,-0.331516,-2.97054
4772,-13,-10,19,-1,-7,-12,-12,24,0.316895,-0.365723,0.817383,5.625,1.9375,2.875,-0.432889,-0.331516,-2.97054
4778,9,-10,-57,15,54,-29,36,-32,0.316895,-0.365723,0.817383,5.625,1.9375,2.875,-0.432889,-0.331516,-2.97054
4778,45,4,-40,49,92,40,-23,2,0.316895,-0.365723,0.817383,5.625,1.9375,2.875,-0.432889,-0.331516,-2.97054
4786,-77,9,79,62,-13,4,-13,6,0.304688,-0.370605,0.80957,3.1875,1.5625,2,-0.431838,-0.330713,-2.97014
4786,93,15,6,3,33,23,-2,-17,0.304688,-0.370605,0.80957,3.1875,1.5625,2,-0.431838,-0.330713,-2.97014
4802,-49,-2,32,2,-83,-48,-4,-6,0.304688,-0.370605,0.80957,3.1875,1.5625,2,-0.431838,-0.330713,-2.97014
4802,10,-12,-24,-93,78,26,50,8,0.304688,-0.370605,0.80957,3.1875,1.5625,2,-0.431838,-0.330713,-2.97014
4803,28,12,-16,75,28,30,-32,-20,0.339355,-0.40625,0.823242,-0.1875,0.9375,-0.8125,-0.431997,-0.330831,-2.9701
4803,-29,-2,29,-50,-2,-2,30,-30,0.339355,-0.40625,0.823242,-0.1875,0.9375,-0.8125,-0.431997,-0.330831,-2.9701
4824,25,0,-34,11,-41,24,-34,0,0.339355,-0.40625,0.823242,-0.1875,0.9375,-0.8125,-0.431997,-0.330831,-2.9701
4824,-30,-15,-11,-5,-61,-63,-35,-17,0.339355,-0.40625,0.823242,-0.1875,0.9375,-0.8125,-0.431997,-0.330831,-2.9701
4825,51,-16,-58,-128,-94,-50,15,40,0.310547,-0.385254,0.819336,2.0625,0.1875,-1.5625,-0.431153,-0.330967,-2.97058
4825,-66,-29,-6,107,9,16,-4,20,0.310547,-0.385254,0.819336,2.0625,0.1875,-1.5625,-0.431153,-0.330967,-2.97058
4837,1,31,92,94,110,53,28,-10,0.310547,-0.385254,0.819336,2.0625,0.1875,-1.5625,-0.431153,-0.330967,-2.97058
4837,-12,34,107,-39,3,-32,-26,11,0.310547,-0.385254,0.819336,2.0625,0.1875,-1.5625,-0.431153,-0.330967,-2.97058
4847,56,-16,-91,-25,99,29,41,31,0.31543,-0.38916,0.821777,-3.5,-2.1875,-1.8125,-0.432498,-0.331984,-2.97087
4847,-46,4,28,42,-82,-55,-42,-18,0.31543,-0.38916,0.821777,-3.5,-2.1875,-1.8125,-0.432498,-0.331984,-2.97087
4862,-21,-8,13,-18,78,-38,11,3,0.31543,-0.38916,0.821777,-3.5,-2.1875,-1.8125,-0.432498,-0.331984,-2.97087
4862,51,4,18,51,-25,74,15,5,0.31543,-0.38916,0.821777,-3.5,-2.1875,-1.8125,-0.432498,-0.331984,-2.97087
4864,14,26,64,-11,49,-35,-23,0,0.346191,-0.40918,0.826172,-2.375,0,-2.6875,-0.433802,-0.333053,-2.9714
4864,40,-8,-53,-107,-91,-20,-8,-13,0.346191,-0.40918,0.826172,-2.375,0,-2.6875,-0.433802,-0.333053,-2.9714
4884,-26,-33,-53,-66,-29,-48,-32,0,0.346191,-0.40918,0.826172,-2.375,0,-2.6875,-0.433802,-0.333053,-2.9714
4884,44,17,16,81,78,34,65,3,0.346191,-0.40918,0.826172,-2.375,0,-2.6875,-0.433802,-0.333053,-2.9714
4885,-47,-19,-62,20,-42,-5,-29,4,0.303711,-0.368164,0.830566,1.0625,0.5625,-1.1875,-0.432746,-0.33272,-2.97204
4885,-16,4,26,5,27,-42,-9,4,0.303711,-0.368164,0.830566,1.0625,0.5625,-1.1875,-0.432746,-0.33272,-2.97204
4898,28,12,42,31,19,84,8,-8,0.303711,-0.368164,0.830566,1.0625,0.5625,-1.1875,-0.432746,-0.33272,-2.97204
4898,11,-8,-51,-128,-122,-49,8,28,0.303711,-0.368164,0.830566,1.0625,0.5625,-1.1875,-0.432746,-0.33272,-2.97204
4907,-13,6,97,107,99,64,28,-9,0.319824,-0.358398,0.852051,-2.5625,-0.4375,-0.9375,-0.4328,-0.332966,-2.97261
4907,-12,2,35,-15,39,-21,23,-28,0.319824,-0.358398,0.852051,-2.5625,-0.4375,-0.9375,-0.4328,-0.332966,-2.97261
4921,13,6,-11,-61,-8,6,-45,5,0.319824,-0.358398,0.852051,-2.5625,-0.4375,-0.9375,-0.4328,-0.332966,-2.97261
4921,36,22,63,29,7,15,9,18,0.319824,-0.358398,0.852051,-2.5625,-0.4375,-0.9375,-0.4328,-0.332966,-2.97261
4923,-42,-13,-33,-72,-95,-46,-18,-40,0.342773,-0.328613,0.838379,-0.1875,-0.375,-0.4375,-0.432426,-0.333258,-2.97273
4923,-70,-7,-61,-77,89,10,-5,-30,0.342773,-0.328613,0.838379,-0.1875,-0.375,-0.4375,-0.432426,-0.333258,-2.97273
4944,37,-23,-25,87,8,60,-8,36,0.342773,-0.328613,0.838379,-0.1875,-0.375,-0.4375,-0.432426,-0.333258,-2.97273
4944,0,6,-30,-45,31,-27,-13,-14,0.342773,-0.328613,0.838379,-0.1875,-0.375,-0.4375,-0.432426,-0.333258,-2.97273
4946,62,34,92,121,80,46,5,7,0.324219,-0.346191,0.848145,-1.875,-0.6875,-2.1875,-0.431818,-0.333881,-2.97373
4946,61,8,-92,-61,-100,-16,13,44,0.324219,-0.346191,0.848145,-1.875,-0.6875,-2.1875,-0.431818,-0.333881,-2.97373
4966,-80,-23,-39,-94,-56,-51,-4,-42,0.324219,-0.346191,0.848145,-1.875,-0.6875,-2.1875,-0.431818,-0.333881,-2.97373
4966,-20,-10,50,127,-6,-10,-29,-20,0.324219,-0.346191,0.848145,-1.875,-0.6875,-2.1875,-0.431818,-0.333881,-2.97373
4968,-27,8,42,-53,-78,-4,41,-2,0.348145,-0.400391,0.847656,-1.3125,0.1875,-3.4375,-0.432114,-0.334867,-2.97485
4968,39,-15,-63,3,125,23,26,25,0.348145,-0.400391,0.847656,-1.3125,0.1875,-3.4375,-0.432114,-0.334867,-2.97485
4981,-12,2,-40,29,27,-12,-9,29,0.348145,-0.400391,0.847656,-1.3125,0.1875,-3.4375,-0.432114,-0.334867,-2.97485
4981,-12,5,13,-94,-120,-8,67,36,0.348145,-0.400391,0.847656,-1.3125,0.1875,-3.4375,-0.432114,-0.334867,-2.97485
4983,-6,-28,-58,-42,-9,-74,-79,-55,0.326172,-0.361816,0.818359,1.75,0.1875,-1.6875,-0.430893,-0.335293,-2.97545
4983,26,7,85,39,73,52,-21,15,0.326172,-0.361816,0.818359,1.75,0.1875,-1.6875,-0.430893,-0.335293,-2.97545
5005,23,27,29,78,-16,4,17,10,0.326172,-0.361816,0.818359,1.75,0.1875,-1.6875,-0.430893,-0.335293,-2.97545
5005,-63,-27,-122,4,87,1,19,-7,0.326172,-0.361816,0.818359,1.75,0.1875,-1.6875,-0.430893,-0.335293,-2.97545
5005,-40,2,59,64,26,17,21,-28,0.296875,-0.376465,0.844727,-1.1875,-0.6875,-1.25,-0.430938,-0.335138,-2.97589
5005,15,-3,-39,-94,-128,-27,-17,20,0.296875,-0.376465,0.844727,-1.1875,-0.6875,-1.25,-0.430938,-0.335138,-2.97589
5018,46,4,14,50,64,9,74,25,0.296875,-0.376465,0.844727,-1.1875,-0.6875,-1.25,-0.430938,-0.335138,-2.97589
5018,-84,-1,50,70,48,-7,-97,-87,0.296875,-0.376465,0.844727,-1.1875,-0.6875,-1.25,-0.430938,-0.335138,-2.97589
5026,-6,3,15,61,16,56,-17,14,0.295898,-0.37793,0.837402,0.5,0.9375,-1.8125,-0.430328,-0.334581,-2.97677
5026,9,15,7,59,32,24,3,7,0.295898,-0.37793,0.837402,0.5,0.9375,-1.8125,-0.430328,-0.334581,-2.97677
5042,60,-3,73,-128,-128,-83,6,1,0.295898,-0.37793,0.837402,0.5,0.9375,-1.8125,-0.430328,-0.334581,-2.97677
5042,14,-37,-113,-67,-14,51,-7,27,0.295898,-0.37793,0.837402,0.5,0.9375,-1.8125,-0.430328,-0.334581,-2.97677
5043,-55,-8,-22,-22,3,-21,-15,-38,0.301758,-0.371094,0.825684,3,2.8125,-1.5,-0.428771,-0.333562,-2.97767
5043,-104,7,31,59,81,33,-8,-52,0.301758,-0.371094,0.825684,3,2.8125,-1.5,-0.428771,-0.333562,-2.97767
5066,32,-2,17,-79,-34,-10,-11,5,0.301758,-0.371094,0.825684,3,2.8125,-1.5,-0.428771,-0.333562,-2.97767
5066,-38,0,4,-2,-11,-11,-10,-17,0.301758,-0.371094,0.825684,3,2.8125,-1.5,-0.428771,-0.333562,-2.97767
5067,99,22,29,46,-39,9,44,44,0.360352,-0.387695,0.833984,3.5625,3.8125,0.125,-0.427494,-0.333336,-2.9782
5067,41,-13,-35,0,28,55,48,-4,0.360352,-0.387695,0.833984,3.5625,3.8125,0.125,-0.427494,-0.333336,-2.9782
5077,31,11,-32,-25,-35,-41,-66,38,0.360352,-0.387695,0.833984,3.5625,3.8125,0.125,-0.427494,-0.333336,-2.9782
5077,-64,-28,-58,113,86,13,11,-51,0.360352,-0.387695,0.833984,3.5625,3.8125,0.125,-0.427494,-0.333336,-2.9782
5087,6,12,29,-31,4,20,-8,6,0.418457,-0.405273,0.810059,4.5,1.625,3,-0.42713,-0.334789,-2.97706
5087,-3,14,9,-69,-46,-10,-4,-17,0.418457,-0.405273,0.810059,4.5,1.625,3,-0.42713,-0.334789,-2.97706
5102,-32,-20,-22,-17,-89,-26,16,-6,0.418457,-0.405273,0.810059,4.5,1.625,3,-0.42713,-0.334789,-2.97706
5102,108,5,-2,-128,-128,-66,-43,20,0.418457,-0.405273,0.810059,4.5,1.625,3,-0.42713,-0.334789,-2.97706
5104,48,-19,-42,56,87,13,33,43,0.28125,-0.371582,0.844238,-2.1875,0.75,2.6875,-0.427814,-0.333209,-2.97639
5104,-48,-12,36,-6,84,19,-30,-2,0.28125,-0.371582,0.844238,-2.1875,0.75,2.6875,-0.427814,-0.333209,-2.97639
5124,-44,9,-24,127,108,53,18,-29,0.28125,-0.371582,0.844238,-2.1875,0.75,2.6875,-0.427814,-0.333209,-2.97639
5124,64,46,62,50,-45,-3,22,35,0.28125,-0.371582,0.844238,-2.1875,0.75,2.6875,-0.427814,-0.333209,-2.97639
5131,-21,-20,-68,-128,-128,-44,-26,-29,0.211914,-0.30127,0.839844,-11.625,3,-5.8125,-0.429013,-0.330984,-2.97948
5131,34,-4,-14,78,36,-8,-2,20,0.211914,-0.30127,0.839844,-11.625,3,-5.8125,-0.429013,-0.330984,-2.97948
5138,-27,-6,-89,-73,-60,12,15,-4,0.211914,-0.30127,0.839844,-11.625,3,-5.8125,-0.429013,-0.330984,-2.97948
5138,-15,4,39,112,126,-15,2,-10,0.211914,-0.30127,0.839844,-11.625,3,-5.8125,-0.429013,-0.330984,-2.97948
5147,10,0,-23,-26,47,37,-18,12,0.254395,-0.349121,0.863281,-14.5,2.75,-10.4375,-0.431665,-0.330086,-2.98375
5147,12,13,24,37,-33,9,23,18,0.254395,-0.349121,0.863281,-14.5,2.75,-10.4375,-0.431665,-0.330086,-2.98375
5162,-15,-1,-3,-66,-37,-28,-14,-23,0.254395,-0.349121,0.863281,-14.5,2.75,-10.4375,-0.431665,-0.330086,-2.98375
5162,-3,-29,-22,-31,-109,-44,-17,7,0.254395,-0.349121,0.863281,-14.5,2.75,-10.4375,-0.431665,-0.330086,-2.98375
5163,41,14,13,-75,-84,17,23,5,0.313477,-0.383301,0.848633,-5.125,1.625,-3.375,-0.432779,-0.329965,-2.98523
5163,-50,-13,34,81,66,15,0,13,0.313477,-0.383301,0.848633,-5.125,1.625,-3.375,-0.432779,-0.329965,-2.98523
5184,-38,6,9,-28,-37,-32,-23,-28,0.313477,-0.383301,0.848633,-5.125,1.625,-3.375,-0.432779,-0.329965,-2.98523
5184,7,-1,33,-87,1,-33,-20,1,0.313477,-0.383301,0.848633,-5.125,1.625,-3.375,-0.432779,-0.329965,-2.98523
5185,70,16,66,90,121,49,35,18,0.305664,-0.398438,0.818359,-0.0625,0.9375,-0.5625,-0.432913,-0.32996,-2.98521
5185,-87,-13,-7,-96,-128,-25,-22,-46,0.305664,-0.398438,0.818359,-0.0625,0.9375,-0.5625,-0.432913,-0.32996,-2.98521
5207,80,-10,-62,112,127,19,56,29,0.305664,-0.398438,0.818359,-0.0625,0.9375,-0.5625,-0.432913,-0.32996,-2.98521
5207,-24,6,69,69,46,79,2,5,0.305664,-0.398438,0.818359,-0.0625,0.9375,-0.5625,-0.432913,-0.32996,-2.98521
5208,-45,9,-70,-110,-33,-41,-10,-5,0.342285,-0.37793,0.803223,0.9375,-3.3125,0.875,-0.433015,-0.331664,-2.98427
5208,68,-2,-50,45,100,8,5,11,0.342285,-0.37793,0.803223,0.9375,-3.3125,0.875,-0.433015,-0.331664,-2.98427
5222,-102,9,72,82,37,17,-2,-5,0.342285,-0.37793,0.803223,0.9375,-3.3125,0.875,-0.433015,-0.331664,-2.98427
5222,54,6,-2,-79,-78,-32,-19,1,0.342285,-0.37793,0.803223,0.9375,-3.3125,0.875,-0.433015,-0.331664,-2.98427
5223,-72,-17,42,-69,-89,-20,-10,-30,0.391113,-0.380371,0.814941,-1.375,-4.3125,-0.625,-0.433709,-0.334875,-2.98391
5223,49,-13,-108,54,27,-28,3,15,0.391113,-0.380371,0.814941,-1.375,-4.3125,-0.625,-0.433709,-0.334875,-2.98391
5244,-24,-6,45,16,76,47,-6,-31,0.391113,-0.380371,0.814941,-1.375,-4.3125,-0.625,-0.433709,-0.334875,-2.98391
5244,-17,-6,-27,-44,-28,-1,11,12,0.391113,-0.380371,0.814941,-1.375,-4.3125,-0.625,-0.433709,-0.334875,-2.98391
5246,12,5,36,-94,-23,-42,-9,13,0.297363,-0.383789,0.823242,-4.6875,-2.125,-3.9375,-0.435009,-0.335654,-2.98487
5246,14,-7,-21,20,-9,-6,-9,10,0.297363,-0.383789,0.823242,-4.6875,-2.125,-3.9375,-0.435009,-0.335654,-2.98487
5266,37,20,29,-34,46,34,22,15,0.297363,-0.383789,0.823242,-4.6875,-2.125,-3.9375,-0.435009,-0.335654,-2.98487
5266,7,12,-1,127,71,-6,-12,-6,0.297363,-0.383789,0.823242,-4.6875,-2.125,-3.9375,-0.435009,-0.335654,-2.98487
5268,7,7,76,-48,-113,-25,-4,6,0.306641,-0.393066,0.841309,-5.625,-1,-4.625,-0.436491,-0.336277,-2.98625
5268,-29,-15,-80,-102,-76,-3,21,-8,0.306641,-0.393066,0.841309,-5.625,-1,-4.625,-0.436491,-0.336277,-2.98625
5281,-56,3,88,108,95,17,-7,-19,0.306641,-0.393066,0.841309,-5.625,-1,-4.625,-0.436491,-0.336277,-2.98625
5281,6,3,33,-93,-101,-5,-7,0,0.306641,-0.393066,0.841309,-5.625,-1,-4.625,-0.436491,-0.336277,-2.98625
5288,-21,-20,-49,16,41,-58,-32,-31,0.353027,-0.396973,0.829102,-1.25,-3.75,0.5,-0.437365,-0.338104,-2.9854
5288,0,16,127,122,89,56,-2,-9,0.353027,-0.396973,0.829102,-1.25,-3.75,0.5,-0.437365,-0.338104,-2.9854
5304,55,8,2,-49,-98,-5,-10,15,0.353027,-0.396973,0.829102,-1.25,-3.75,0.5,-0.437365,-0.338104,-2.9854
5304,-39,4,-33,-100,-38,-2,-17,-14,0.353027,-0.396973,0.829102,-1.25,-3.75,0.5,-0.437365,-0.338104,-2.9854
5305,-11,-14,-92,105,68,17,12,3,0.384766,-0.371094,0.819336,-3,-4.1875,2.875,-0.438563,-0.340522,-2.98382
5305,48,1,39,-3,-90,-42,-24,6,0.384766,-0.371094,0.819336,-3,-4.1875,2.875,-0.438563,-0.340522,-2.98382
5327,-24,-22,-29,-78,-40,18,8,-6,0.384766,-0.371094,0.819336,-3,-4.1875,2.875,-0.438563,-0.340522,-2.98382
5327,49,7,45,70,81,11,8,25,0.384766,-0.371094,0.819336,-3,-4.1875,2.875,-0.438563,-0.340522,-2.98382
5328,35,4,-54,26,-22,-32,-2,-10,0.30957,-0.371094,0.827148,-6.875,-1.875,-2.0625,-0.440444,-0.341083,-2.98437
5328,-21,10,24,-120,-27,12,10,-6,0.30957,-0.371094,0.827148,-6.875,-1.875,-2.0625,-0.440444,-0.341083,-2.98437
5341,21,-6,-32,11,-13,-5,-9,-2,0.30957,-0.371094,0.827148,-6.875,-1.875,-2.0625,-0.440444,-0.341083,-2.98437
5341,57,0,-19,1,30,6,13,3,0.30957,-0.371094,0.827148,-6.875,-1.875,-2.0625,-0.440444,-0.341083,-2.98437
5343,-24,-16,-12,-20,-34,-9,6,9,0.284668,-0.374512,0.853516,-2.5625,1.875,-2.875,-0.440275,-0.339861,-2.98583
5343,-25,7,64,-39,-55,-4,-21,-21,0.284668,-0.374512,0.853516,-2.5625,1.875,-2.875,-0.440275,-0.339861,-2.98583
5364,-12,-10,-35,21,39,-46,-11,11,0.284668,-0.374512,0.853516,-2.5625,1.875,-2.875,-0.440275,-0.339861,-2.98583
5364,-21,-2,5,43,115,56,40,1,0.284668,-0.374512,0.853516,-2.5625,1.875,-2.875,-0.440275,-0.339861,-2.98583
5365,50,13,-13,104,127,41,-14,4,0.275391,-0.395996,0.881836,-1.75,-0.75,-0.5,-0.440348,-0.338653,-2.98612
5365,-47,14,23,14,-37,-17,17,28,0.275391,-0.395996,0.881836,-1.75,-0.75,-0.5,-0.440348,-0.338653,-2.98612
5387,38,-4,25,-100,-109,-46,-25,-10,0.275391,-0.395996,0.881836,-1.75,-0.75,-0.5,-0.440348,-0.338653,-2.98612
5387,-88,-24,22,-128,-82,-54,-33,-24,0.275391,-0.395996,0.881836,-1.75,-0.75,-0.5,-0.440348,-0.338653,-2.98612
5388,-25,-13,18,47,-44,-4,10,5,0.30957,-0.375,0.851074,2.125,-3.5,2.5,-0.439465,-0.338908,-2.9848
5388,62,-12,-39,-47,49,21,14,-3,0.30957,-0.375,0.851074,2.125,-3.5,2.5,-0.439465,-0.338908,-2.9848
5401,-43,4,15,50,24,17,-35,-26,0.30957,-0.375,0.851074,2.125,-3.5,2.5,-0.439465,-0.338908,-2.9848
5401,0,5,-62,7,-14,-14,5,5,0.30957,-0.375,0.851074,2.125,-3.5,2.5,-0.439465,-0.338908,-2.9848
5416,-27,10,51,78,55,10,6,-4,0.305664,-0.399902,0.839844,-2.8125,-6,2.0625,-0.441045,-0.339904,-2.98314
5416,35,19,49,-97,-105,-6,-10,-3,0.305664,-0.399902,0.839844,-2.8125,-6,2.0625,-0.441045,-0.339904,-2.98314
5425,14,-14,-42,2,42,-17,0,9,0.305664,-0.399902,0.839844,-2.8125,-6,2.0625,-0.441045,-0.339904,-2.98314
5425,-26,-4,-49,-80,10,13,-3,-13,0.305664,-0.399902,0.839844,-2.8125,-6,2.0625,-0.441045,-0.339904,-2.98314
5426,-1,-1,31,40,22,11,-5,14,0.314941,-0.356445,0.827637,1.125,-3.75,-0.4375,-0.43994,-0.341049,-2.98293
5426,99,-2,-1,62,6,-11,-12,32,0.314941,-0.356445,0.827637,1.125,-3.75,-0.4375,-0.43994,-0.341049,-2.98293
5446,-103,10,89,84,35,17,8,-37,0.314941,-0.356445,0.827637,1.125,-3.75,-0.4375,-0.43994,-0.341049,-2.98293
5446,79,12,57,-14,-100,6,20,25,0.314941,-0.356445,0.827637,1.125,-3.75,-0.4375,-0.43994,-0.341049,-2.98293
5448,6,8,10,37,92,25,8,-13,0.311035,-0.371094,0.849121,1.5625,-4.625,-0.875,-0.438969,-0.342191,-2.98272
5448,30,-6,-52,-118,-82,-35,40,14,0.311035,-0.371094,0.849121,1.5625,-4.625,-0.875,-0.438969,-0.342191,-2.98272
5461,39,-8,4,5,10,-23,-44,20,0.311035,-0.371094,0.849121,1.5625,-4.625,-0.875,-0.438969,-0.342191,-2.98272
5461,-32,-12,-8,48,79,8,10,-26,0.311035,-0.371094,0.849121,1.5625,-4.625,-0.875,-0.438969,-0.342191,-2.98272
5468,-34,1,17,-128,-68,18,-34,-21,0.362793,-0.38623,0.84082,-0.8125,-4.6875,0.6875,-0.439254,-0.344316,-2.98192
5468,-16,4,38,127,44,-2,-5,-2,0.362793,-0.38623,0.84082,-0.8125,-4.6875,0.6875,-0.439254,-0.344316,-2.98192
5484,81,7,15,-48,2,35,37,24,0.362793,-0.38623,0.84082,-0.8125,-4.6875,0.6875,-0.439254,-0.344316,-2.98192
5484,-92,-18,-13,-53,-87,-72,20,-39,0.362793,-0.38623,0.84082,-0.8125,-4.6875,0.6875,-0.439254,-0.344316,-2.98192
5485,14,-8,-33,73,63,59,18,17,0.346191,-0.40625,0.838867,0.625,-5,1.3125,-0.439709,-0.345933,-2.98057
5485,-81,8,29,74,63,-7,-46,-36,0.346191,-0.40625,0.838867,0.625,-5,1.3125,-0.439709,-0.345933,-2.98057
5506,48,22,33,-7,-59,-6,-13,7,0.346191,-0.40625,0.838867,0.625,-5,1.3125,-0.439709,-0.345933,-2.98057
5506,96,10,3,-8,-4,6,24,27,0.346191,-0.40625,0.838867,0.625,-5,1.3125,-0.439709,-0.345933,-2.98057
5507,-54,-23,21,-110,-115,-23,12,-9,0.347656,-0.372559,0.818359,4.6875,-3.4375,-2.25,-0.437858,-0.347865,-2.98086
5507,39,-16,-31,-125,-109,-51,-24,4,0.347656,-0.372559,0.818359,4.6875,-3.4375,-2.25,-0.437858,-0.347865,-2.98086
5521,-63,-14,-36,93,117,29,4,-9,0.347656,-0.372559,0.818359,4.6875,-3.4375,-2.25,-0.437858,-0.347865,-2.98086
5521,29,8,-79,99,83,49,20,10,0.347656,-0.372559,0.818359,4.6875,-3.4375,-2.25,-0.437858,-0.347865,-2.98086
5528,-38,5,49,-114,-90,-50,-15,-13,0.302246,-0.366211,0.823242,2.25,-2.1875,-1,-0.43658,-0.348089,-2.98106
5528,28,-6,-65,-43,-13,-10,5,19,0.302246,-0.366211,0.823242,2.25,-2.1875,-1,-0.43658,-0.348089,-2.98106
5544,-3,-18,-15,38,41,43,6,27,0.302246,-0.366211,0.823242,2.25,-2.1875,-1,-0.43658,-0.348089,-2.98106
5544,12,32,111,72,89,-13,-16,-14,0.302246,-0.366211,0.823242,2.25,-2.1875,-1,-0.43658,-0.348089,-2.98106
5545,35,19,14,64,35,18,-11,35,0.359863,-0.416504,0.82666,-2,-1.9375,-0.6875,-0.437934,-0.349372,-2.98074
5545,-70,-5,-3,-107,-99,-13,-23,-58,0.359863,-0.416504,0.82666,-2,-1.9375,-0.6875,-0.437934,-0.349372,-2.98074
5566,6,-13,-63,-106,-52,-24,20,9,0.359863,-0.416504,0.82666,-2,-1.9375,-0.6875,-0.437934,-0.349372,-2.98074
5566,-35,-16,26,37,34,4,-11,0,0.359863,-0.416504,0.82666,-2,-1.9375,-0.6875,-0.437934,-0.349372,-2.98074
5568,-16,2,-18,10,-12,21,17,-4,0.357422,-0.379883,0.831055,6.0625,-0.4375,0.25,-0.43574,-0.349959,-2.98066
5568,-6,-5,35,38,83,24,41,-45,0.357422,-0.379883,0.831055,6.0625,-0.4375,0.25,-0.43574,-0.349959,-2.98066
5581,28,16,93,43,-36,-16,-26,12,0.357422,-0.379883,0.831055,6.0625,-0.4375,0.25,-0.43574,-0.349959,-2.98066
5581,5,-10,-52,-54,-32,15,36,35,0.357422,-0.379883,0.831055,6.0625,-0.4375,0.25,-0.43574,-0.349959,-2.98066
5587,29,-3,22,-57,-64,-56,-60,-4,0.307129,-0.332031,0.822266,8.1875,0.3125,-1.3125,-0.431594,-0.349664,-2.98152
5587,-18,-9,-52,-5,-29,6,2,-4,0.307129,-0.332031,0.822266,8.1875,0.3125,-1.3125,-0.431594,-0.349664,-2.98152
5605,-11,2,17,9,-8,-11,4,-25,0.307129,-0.332031,0.822266,8.1875,0.3125,-1.3125,-0.431594,-0.349664,-2.98152
5605,13,-10,-43,-24,23,3,-6,4,0.307129,-0.332031,0.822266,8.1875,0.3125,-1.3125,-0.431594,-0.349664,-2.98152
5606,19,0,27,82,29,39,34,16,0.278809,-0.367676,0.825684,4.4375,2,0.125,-0.429672,-0.347876,-2.98178
5606,0,9,-68,6,79,-20,-4,9,0.278809,-0.367676,0.825684,4.4375,2,0.125,-0.429672,-0.347876,-2.98178
5627,-5,-3,-2,-104,-79,-26,-2,-18,0.278809,-0.367676,0.825684,4.4375,2,0.125,-0.429672,-0.347876,-2.98178
5627,9,-2,35,70,-32,38,-4,4,0.278809,-0.367676,0.825684,4.4375,2,0.125,-0.429672,-0.347876,-2.98178
5627,20,-9,-54,-77,-19,-66,29,-5,0.334473,-0.422363,0.825195,5.9375,1.6875,-0.25,-0.428471,-0.347294,-2.98178
5627,-4,20,95,127,127,96,-18,23,0.334473,-0.422363,0.825195,5.9375,1.6875,-0.25,-0.428471,-0.347294,-2.98178
5649,17,26,4,62,41,23,17,-9,0.334473,-0.422363,0.825195,5.9375,1.6875,-0.25,-0.428471,-0.347294,-2.98178
5649,29,6,36,-69,-93,-6,-15,-12,0.334473,-0.422363,0.825195,5.9375,1.6875,-0.25,-0.428471,-0.347294,-2.98178
5650,-75,-7,18,-68,-56,-9,3,-30,0.371582,-0.396973,0.79834,3.6875,-0.25,-1.875,-0.427824,-0.348777,-2.98205
5650,55,-20,-38,-54,-120,-45,-2,36,0.371582,-0.396973,0.79834,3.6875,-0.25,-1.875,-0.427824,-0.348777,-2.98205
