0,-2,-2,-1,-1,-1,-2,0,0,1.03809,0.101074,0.172852,-36.125,-0.3125,-25.375,2.96973,-1.52144,-2.28502
0,-1,1,-2,1,-2,-2,0,-1,1.03809,0.101074,0.172852,-36.125,-0.3125,-25.375,2.96973,-1.52144,-2.28502
1,-2,-1,-1,1,-1,-1,-2,0,1.03809,0.101074,0.172852,-36.125,-0.3125,-25.375,2.96973,-1.52144,-2.28502
1,0,0,-2,-4,0,0,-2,-1,1.03809,0.101074,0.172852,-36.125,-0.3125,-25.375,2.96973,-1.52144,-2.28502
2,-2,-1,-3,-1,-2,-2,0,0,1.03809,0.101074,0.172852,-36.125,-0.3125,-25.375,2.96973,-1.52144,-2.28502
2,-3,-2,-3,-2,-1,0,-1,-2,1.03809,0.101074,0.172852,-36.125,-0.3125,-25.375,2.96973,-1.52144,-2.28502
5,-1,-2,-1,-1,-2,-1,-1,-2,1.07324,0.0844727,0.163574,-42.25,5.8125,-21.375,2.72152,-1.52708,-2.05231
5,-1,0,0,0,-1,-1,-1,-1,1.07324,0.0844727,0.163574,-42.25,5.8125,-21.375,2.72152,-1.52708,-2.05231
12,1,-1,0,-2,-3,-1,0,0,1.07324,0.0844727,0.163574,-42.25,5.8125,-21.375,2.72152,-1.52708,-2.05231
12,-3,0,0,0,0,-2,-1,0,1.07324,0.0844727,0.163574,-42.25,5.8125,-21.375,2.72152,-1.52708,-2.05231
23,0,-2,-1,1,0,-1,-2,0,1.10352,0.0795898,0.15918,-45.4375,13.8125,-16.75,2.434,-1.53043,-1.78024
23,-2,-1,0,-1,-1,-2,-1,0,1.10352,0.0795898,0.15918,-45.4375,13.8125,-16.75,2.434,-1.53043,-1.78024
27,0,1,-1,-3,0,-2,-3,-2,1.10352,0.0795898,0.15918,-45.4375,13.8125,-16.75,2.434,-1.53043,-1.78024
27,-2,-1,0,-1,-2,-3,-1,0,1.10352,0.0795898,0.15918,-45.4375,13.8125,-16.75,2.434,-1.53043,-1.78024
46,0,0,-1,-2,0,-2,1,-2,1.06885,0.0766602,0.171875,-45.3125,21.25,-12.0625,2.08065,-1.53464,-1.44293
46,0,-1,0,1,0,-1,0,0,1.06885,0.0766602,0.171875,-45.3125,21.25,-12.0625,2.08065,-1.53464,-1.44293
49,0,0,-2,0,0,0,-1,-1,1.06885,0.0766602,0.171875,-45.3125,21.25,-12.0625,2.08065,-1.53464,-1.44293
49,1,-1,1,-1,-1,0,0,1,1.06885,0.0766602,0.171875,-45.3125,21.25,-12.0625,2.08065,-1.53464,-1.44293
64,1,-2,-1,0,-2,-2,0,-1,1.00732,0.0751953,0.151855,-41.6875,27.625,-7.25,1.67248,-1.5361,-1.0491
64,0,0,-3,-1,-1,-2,0,-1,1.00732,0.0751953,0.151855,-41.6875,27.625,-7.25,1.67248,-1.5361,-1.0491
73,-3,-3,1,0,2,-1,0,-1,1.00732,0.0751953,0.151855,-41.6875,27.625,-7.25,1.67248,-1.5361,-1.0491
73,0,-1,0,-3,-3,-3,-1,-1,1.00732,0.0751953,0.151855,-41.6875,27.625,-7.25,1.67248,-1.5361,-1.0491
88,-4,-1,-1,-2,0,-1,-2,-2,0.938477,0.074707,0.182129,-37.3125,31.8125,-1.25,1.24624,-1.53318,-0.635596
88,-2,-2,0,-1,-2,-1,-1,-1,0.938477,0.074707,0.182129,-37.3125,31.8125,-1.25,1.24624,-1.53318,-0.635596
129,0,0,0,1,-1,-1,0,-1,0.877441,0.0341797,0.192383,-27.3125,31.125,1.875,0.680042,-1.51432,-0.0904265
129,-1,-1,-1,-2,-2,0,0,-1,0.877441,0.0341797,0.192383,-27.3125,31.125,1.875,0.680042,-1.51432,-0.0904265
129,0,-2,-3,-3,-3,-3,-1,-1,0.877441,0.0341797,0.192383,-27.3125,31.125,1.875,0.680042,-1.51432,-0.0904265
129,-1,-2,-3,0,0,1,-2,-2,0.877441,0.0341797,0.192383,-27.3125,31.125,1.875,0.680042,-1.51432,-0.0904265
132,0,-2,-2,0,-1,0,0,-1,0.877441,0.0341797,0.192383,-27.3125,31.125,1.875,0.680042,-1.51432,-0.0904265
132,0,-1,-2,1,-1,0,1,-2,0.877441,0.0341797,0.192383,-27.3125,31.125,1.875,0.680042,-1.51432,-0.0904265
133,-2,0,-2,-2,-1,-2,0,-1,0.877441,0.0341797,0.192383,-27.3125,31.125,1.875,0.680042,-1.51432,-0.0904265
133,0,0,0,-2,-2,-1,0,-1,0.877441,0.0341797,0.192383,-27.3125,31.125,1.875,0.680042,-1.51432,-0.0904265
141,-2,-3,-1,-1,-1,-1,-3,-1,0.867188,0.0195312,0.235352,-22.0625,29.5,2.875,0.517027,-1.50368,0.0655474
141,0,-1,-1,-1,-3,-1,-2,-1,0.867188,0.0195312,0.235352,-22.0625,29.5,2.875,0.517027,-1.50368,0.0655474
156,-2,-2,-2,-2,0,0,0,0,0.867188,0.0195312,0.235352,-22.0625,29.5,2.875,0.517027,-1.50368,0.0655474
156,-1,-1,-2,1,-1,-2,-2,0,0.867188,0.0195312,0.235352,-22.0625,29.5,2.875,0.517027,-1.50368,0.0655474
157,-1,0,0,-1,-4,-1,0,0,0.875488,0.0209961,0.235352,-14.1875,27.6875,3.875,0.409162,-1.49203,0.168718
157,-1,-1,0,-2,0,-2,0,-2,0.875488,0.0209961,0.235352,-14.1875,27.6875,3.875,0.409162,-1.49203,0.168718
169,-1,-1,-2,-1,1,0,-2,-1,0.875488,0.0209961,0.235352,-14.1875,27.6875,3.875,0.409162,-1.49203,0.168718
169,-1,-2,0,0,-1,-1,0,-1,0.875488,0.0209961,0.235352,-14.1875,27.6875,3.875,0.409162,-1.49203,0.168718
178,0,-2,0,-1,-2,-3,-1,-1,0.907715,0.0366211,0.254395,-6.75,26.8125,6.3125,0.32708,-1.48038,0.248865
178,-1,-2,0,-1,-2,1,-1,2,0.907715,0.0366211,0.254395,-6.75,26.8125,6.3125,0.32708,-1.48038,0.248865
201,0,-2,0,-1,-1,0,0,1,0.907715,0.0366211,0.254395,-6.75,26.8125,6.3125,0.32708,-1.48038,0.248865
201,-1,-1,0,-1,-1,-2,1,-1,0.907715,0.0366211,0.254395,-6.75,26.8125,6.3125,0.32708,-1.48038,0.248865
203,-1,1,0,0,0,0,0,-2,0.924805,0.0200195,0.264648,1.6875,24.5625,8.3125,0.25953,-1.46869,0.317088
203,0,-1,0,-2,0,-4,0,-2,0.924805,0.0200195,0.264648,1.6875,24.5625,8.3125,0.25953,-1.46869,0.317088
215,-1,-1,0,-1,-2,0,0,-1,0.924805,0.0200195,0.264648,1.6875,24.5625,8.3125,0.25953,-1.46869,0.317088
215,-2,0,-1,0,-1,0,1,-2,0.924805,0.0200195,0.264648,1.6875,24.5625,8.3125,0.25953,-1.46869,0.317088
224,-2,0,-2,-1,0,0,0,-1,0.94873,0.0395508,0.240234,10.375,23.9375,8.5625,0.213534,-1.45786,0.366819
224,1,0,5,1,-2,0,-3,1,0.94873,0.0395508,0.240234,10.375,23.9375,8.5625,0.213534,-1.45786,0.366819
239,-1,-1,-8,-2,1,-1,-2,-1,0.94873,0.0395508,0.240234,10.375,23.9375,8.5625,0.213534,-1.45786,0.366819
239,1,-1,-1,-2,-1,-2,-1,-2,0.94873,0.0395508,0.240234,10.375,23.9375,8.5625,0.213534,-1.45786,0.366819
241,-1,-1,-1,1,0,1,0,-2,0.957031,0.0512695,0.241699,19.5625,23.625,10.0625,0.178574,-1.44737,0.408975
241,0,0,-2,-1,0,-3,-2,0,0.957031,0.0512695,0.241699,19.5625,23.625,10.0625,0.178574,-1.44737,0.408975
261,1,0,4,-2,-1,-2,-1,1,0.957031,0.0512695,0.241699,19.5625,23.625,10.0625,0.178574,-1.44737,0.408975
261,-1,-1,-1,-2,0,-3,1,0,0.957031,0.0512695,0.241699,19.5625,23.625,10.0625,0.178574,-1.44737,0.408975
263,0,-1,-1,-1,1,-1,-1,-1,0.952637,0.0522461,0.233887,26.6875,21.6875,11.625,0.15046,-1.43745,0.446618
263,-2,1,-1,-1,0,0,0,-1,0.952637,0.0522461,0.233887,26.6875,21.6875,11.625,0.15046,-1.43745,0.446618
274,-2,-1,1,-1,-2,0,-1,-2,0.952637,0.0522461,0.233887,26.6875,21.6875,11.625,0.15046,-1.43745,0.446618
274,-2,1,-1,-1,0,0,-4,-1,0.952637,0.0522461,0.233887,26.6875,21.6875,11.625,0.15046,-1.43745,0.446618
291,1,0,0,0,-1,-4,-2,0,0.942871,0.0571289,0.206543,33.1875,20.5625,12.625,0.128226,-1.42931,0.480973
291,0,-1,-2,-1,-1,0,-1,-1,0.942871,0.0571289,0.206543,33.1875,20.5625,12.625,0.128226,-1.42931,0.480973
298,-2,-1,0,-2,-1,-1,0,-2,0.942871,0.0571289,0.206543,33.1875,20.5625,12.625,0.128226,-1.42931,0.480973
298,0,-1,-1,-2,-2,0,0,0,0.942871,0.0571289,0.206543,33.1875,20.5625,12.625,0.128226,-1.42931,0.480973
300,0,-2,0,-1,-2,-1,-1,0,0.929199,0.0688477,0.19873,37.0625,20.6875,12.8125,0.112932,-1.42096,0.509623
300,-1,-1,-1,1,-1,-2,-1,0,0.929199,0.0688477,0.19873,37.0625,20.6875,12.8125,0.112932,-1.42096,0.509623
321,0,-1,-1,-1,-1,-3,-2,0,0.929199,0.0688477,0.19873,37.0625,20.6875,12.8125,0.112932,-1.42096,0.509623
321,-1,-1,1,0,-2,1,-2,1,0.929199,0.0688477,0.19873,37.0625,20.6875,12.8125,0.112932,-1.42096,0.509623
323,-1,-1,0,-1,0,0,-1,0,0.90332,0.074707,0.198242,37.3125,20.375,12.125,0.102237,-1.41285,0.5339
323,-2,0,-1,-2,0,0,0,-2,0.90332,0.074707,0.198242,37.3125,20.375,12.125,0.102237,-1.41285,0.5339
335,1,-3,-1,0,0,0,-1,-2,0.90332,0.074707,0.198242,37.3125,20.375,12.125,0.102237,-1.41285,0.5339
335,-2,-2,-1,-1,1,0,-1,-2,0.90332,0.074707,0.198242,37.3125,20.375,12.125,0.102237,-1.41285,0.5339
344,-1,-1,-2,-1,-1,-3,0,-1,0.922852,0.0620117,0.195312,37,18.875,11.6875,0.0923167,-1.40581,0.557383
344,0,-2,-2,-2,-1,-2,-1,-1,0.922852,0.0620117,0.195312,37,18.875,11.6875,0.0923167,-1.40581,0.557383
358,0,-1,-2,1,-2,-2,-1,1,0.922852,0.0620117,0.195312,37,18.875,11.6875,0.0923167,-1.40581,0.557383
358,0,-1,-1,-1,-1,-1,-1,-1,0.922852,0.0620117,0.195312,37,18.875,11.6875,0.0923167,-1.40581,0.557383
360,-2,1,1,0,-3,-1,0,-2,0.989258,0.0473633,0.187988,36.5,18,10.8125,0.0848634,-1.39939,0.577984
360,-1,0,0,-1,-1,-1,-1,0,0.989258,0.0473633,0.187988,36.5,18,10.8125,0.0848634,-1.39939,0.577984
381,-1,0,0,-1,-2,-1,3,8,0.989258,0.0473633,0.187988,36.5,18,10.8125,0.0848634,-1.39939,0.577984
381,1,0,-2,1,-1,-2,-2,-5,0.989258,0.0473633,0.187988,36.5,18,10.8125,0.0848634,-1.39939,0.577984
383,0,-1,-2,1,-1,-1,-1,0,1.04688,0.027832,0.172363,35,17,8.5,0.0792087,-1.39381,0.596122
383,0,-2,-2,1,0,0,-2,-3,1.04688,0.027832,0.172363,35,17,8.5,0.0792087,-1.39381,0.596122
395,-2,1,-1,0,-2,-1,0,1,1.04688,0.027832,0.172363,35,17,8.5,0.0792087,-1.39381,0.596122
395,-2,-3,-1,-1,0,-1,0,2,1.04688,0.027832,0.172363,35,17,8.5,0.0792087,-1.39381,0.596122
403,0,-1,0,-2,-1,0,-1,-2,1.07324,0.0380859,0.155273,30.75,17.5,5.9375,0.0790645,-1.38854,0.607074
403,-1,1,0,-2,-1,-1,0,1,1.07324,0.0380859,0.155273,30.75,17.5,5.9375,0.0790645,-1.38854,0.607074
426,-1,-1,0,1,0,0,-2,-3,1.07324,0.0380859,0.155273,30.75,17.5,5.9375,0.0790645,-1.38854,0.607074
426,-2,0,-1,0,-1,-4,-1,1,1.07324,0.0380859,0.155273,30.75,17.5,5.9375,0.0790645,-1.38854,0.607074
427,0,-2,-1,-3,-1,-2,-1,0,1.02686,0.0224609,0.151855,25.9375,16.9375,4.625,0.0786972,-1.38377,0.616758
427,0,0,-1,-1,-2,-2,0,0,1.02686,0.0224609,0.151855,25.9375,16.9375,4.625,0.0786972,-1.38377,0.616758
441,-1,0,-1,-1,-1,-1,0,-3,1.02686,0.0224609,0.151855,25.9375,16.9375,4.625,0.0786972,-1.38377,0.616758
441,-1,-2,-1,-2,-2,1,-2,-3,1.02686,0.0224609,0.151855,25.9375,16.9375,4.625,0.0786972,-1.38377,0.616758
442,0,-2,0,-2,0,-1,0,1,0.965332,0.00976562,0.137207,21.9375,16.1875,4,0.0767336,-1.37972,0.62681
442,-1,0,-3,0,-1,-1,-2,-1,0.965332,0.00976562,0.137207,21.9375,16.1875,4,0.0767336,-1.37972,0.62681
454,-1,-1,0,0,0,0,-2,-3,0.965332,0.00976562,0.137207,21.9375,16.1875,4,0.0767336,-1.37972,0.62681
454,-1,-2,-2,0,-1,-2,0,2,0.965332,0.00976562,0.137207,21.9375,16.1875,4,0.0767336,-1.37972,0.62681
464,-1,-1,-1,0,-1,-1,-2,-2,0.886719,0.0185547,0.129883,18.9375,16.125,3.75,0.0754454,-1.37524,0.634867
464,-1,-2,-1,0,-1,-2,-1,-1,0.886719,0.0185547,0.129883,18.9375,16.125,3.75,0.0754454,-1.37524,0.634867
478,-2,0,-2,-2,1,-1,-1,-3,0.886719,0.0185547,0.129883,18.9375,16.125,3.75,0.0754454,-1.37524,0.634867
478,1,-3,-2,-2,1,-1,-1,-1,0.886719,0.0185547,0.129883,18.9375,16.125,3.75,0.0754454,-1.37524,0.634867
479,-1,-1,-2,-2,-2,-1,-1,-1,0.823242,0.00830078,0.137695,14.3125,16.0625,2.5625,0.0737034,-1.37066,0.641856
479,-3,-2,-1,-1,0,0,-2,-4,0.823242,0.00830078,0.137695,14.3125,16.0625,2.5625,0.0737034,-1.37066,0.641856
501,0,-2,-1,-1,-1,-3,0,3,0.823242,0.00830078,0.137695,14.3125,16.0625,2.5625,0.0737034,-1.37066,0.641856
501,-1,0,1,0,-2,-1,0,0,0.823242,0.00830078,0.137695,14.3125,16.0625,2.5625,0.0737034,-1.37066,0.641856
503,-2,0,-1,-2,0,0,-2,-1,0.787598,-0.019043,0.15332,11.9375,14.4375,2.6875,0.0676138,-1.36569,0.652071
503,-1,-3,0,-2,-1,-2,-1,0,0.787598,-0.019043,0.15332,11.9375,14.4375,2.6875,0.0676138,-1.36569,0.652071
515,-1,-2,-2,0,-1,-1,-1,-3,0.787598,-0.019043,0.15332,11.9375,14.4375,2.6875,0.0676138,-1.36569,0.652071
515,0,0,-2,0,-2,-3,-2,0,0.787598,-0.019043,0.15332,11.9375,14.4375,2.6875,0.0676138,-1.36569,0.652071
524,1,-2,-2,0,0,-2,1,-2,0.8125,-0.0356445,0.159668,11.0625,12.875,2.625,0.0606091,-1.36176,0.662999
524,2,-2,-1,-1,-1,-2,-1,-1,0.8125,-0.0356445,0.159668,11.0625,12.875,2.625,0.0606091,-1.36176,0.662999
546,0,-2,1,-2,-2,-2,-2,-1,0.8125,-0.0356445,0.159668,11.0625,12.875,2.625,0.0606091,-1.36176,0.662999
546,-1,1,1,-3,-1,-4,0,0,0.8125,-0.0356445,0.159668,11.0625,12.875,2.625,0.0606091,-1.36176,0.662999
548,-1,0,-2,1,-2,-1,-2,-1,0.865234,-0.0498047,0.168457,8.25,10.6875,2.5,0.0514428,-1.35836,0.674996
548,-1,1,-2,0,-1,-1,-1,-3,0.865234,-0.0498047,0.168457,8.25,10.6875,2.5,0.0514428,-1.35836,0.674996
569,-2,1,-2,-2,-1,0,0,-2,0.865234,-0.0498047,0.168457,8.25,10.6875,2.5,0.0514428,-1.35836,0.674996
569,0,1,-1,-1,-1,1,-1,-1,0.865234,-0.0498047,0.168457,8.25,10.6875,2.5,0.0514428,-1.35836,0.674996
570,-1,-1,-1,0,-2,-2,-2,0,0.908203,-0.0488281,0.183105,4.125,7.4375,2.6875,0.0415768,-1.35634,0.686245
570,-2,-1,0,-1,0,0,-1,0,0.908203,-0.0488281,0.183105,4.125,7.4375,2.6875,0.0415768,-1.35634,0.686245
575,0,-1,-1,-1,-1,-1,-2,-1,0.908203,-0.0488281,0.183105,4.125,7.4375,2.6875,0.0415768,-1.35634,0.686245
575,-3,-1,-1,-2,-2,0,0,0,0.908203,-0.0488281,0.183105,4.125,7.4375,2.6875,0.0415768,-1.35634,0.686245
584,-2,-1,-2,-1,-1,1,-1,0,0.926758,-0.0742188,0.200195,1.875,2.8125,3.875,0.0262409,-1.35563,0.702277
584,-1,-3,-1,-2,-2,-2,0,1,0.926758,-0.0742188,0.200195,1.875,2.8125,3.875,0.0262409,-1.35563,0.702277
599,-2,-1,0,-1,0,-1,0,-1,0.926758,-0.0742188,0.200195,1.875,2.8125,3.875,0.0262409,-1.35563,0.702277
599,0,-1,-1,0,0,-2,2,-2,0.926758,-0.0742188,0.200195,1.875,2.8125,3.875,0.0262409,-1.35563,0.702277
600,0,-1,-2,-2,0,-2,-1,-1,0.941406,-0.090332,0.199219,4.5,-1.375,5.1875,0.00924597,-1.35614,0.720743
600,-1,0,-2,-2,-2,1,0,0,0.941406,-0.090332,0.199219,4.5,-1.375,5.1875,0.00924597,-1.35614,0.720743
621,0,-1,-2,0,-2,-3,-2,-2,0.941406,-0.090332,0.199219,4.5,-1.375,5.1875,0.00924597,-1.35614,0.720743
621,-2,-2,-1,0,0,-1,-1,-3,0.941406,-0.090332,0.199219,4.5,-1.375,5.1875,0.00924597,-1.35614,0.720743
623,-1,0,0,-1,0,-1,-2,-2,0.935059,-0.0898438,0.192871,10.375,-4.0625,6.375,-0.00743252,-1.35746,0.740885
623,-1,0,-1,-1,0,-1,1,-2,0.935059,-0.0898438,0.192871,10.375,-4.0625,6.375,-0.00743252,-1.35746,0.740885
635,0,0,-1,-1,0,-1,-2,1,0.935059,-0.0898438,0.192871,10.375,-4.0625,6.375,-0.00743252,-1.35746,0.740885
635,-1,0,1,-1,0,-1,1,0,0.935059,-0.0898438,0.192871,10.375,-4.0625,6.375,-0.00743252,-1.35746,0.740885
643,-2,0,-1,0,-1,-1,0,0,0.925781,-0.0854492,0.192871,15.5625,-6.125,7.125,-0.0236736,-1.35971,0.762704
643,-1,-1,-2,-2,-1,-1,-1,-2,0.925781,-0.0854492,0.192871,15.5625,-6.125,7.125,-0.0236736,-1.35971,0.762704
658,-1,-2,0,-1,0,0,1,0,0.925781,-0.0854492,0.192871,15.5625,-6.125,7.125,-0.0236736,-1.35971,0.762704
658,-2,0,-2,-1,-1,0,-2,0,0.925781,-0.0854492,0.192871,15.5625,-6.125,7.125,-0.0236736,-1.35971,0.762704
665,0,-1,-1,-1,-2,0,1,-2,0.946777,-0.108398,0.201172,19.9375,-8.9375,6.9375,-0.0404524,-1.36254,0.786401
665,-1,1,-1,0,0,-2,0,2,0.946777,-0.108398,0.201172,19.9375,-8.9375,6.9375,-0.0404524,-1.36254,0.786401
681,0,0,-1,0,-1,0,-1,-2,0.946777,-0.108398,0.201172,19.9375,-8.9375,6.9375,-0.0404524,-1.36254,0.786401
681,0,-2,-1,-2,-3,-1,-2,0,0.946777,-0.108398,0.201172,19.9375,-8.9375,6.9375,-0.0404524,-1.36254,0.786401
683,1,0,0,-1,-1,0,-1,1,0.987305,-0.130371,0.205078,26.3125,-10.875,6.75,-0.057378,-1.36641,0.812716
683,-2,-2,-2,2,-2,0,0,-1,0.987305,-0.130371,0.205078,26.3125,-10.875,6.75,-0.057378,-1.36641,0.812716
695,-1,-2,-1,-1,-2,-2,-2,0,0.987305,-0.130371,0.205078,26.3125,-10.875,6.75,-0.057378,-1.36641,0.812716
695,-1,-2,-1,-2,0,-1,1,-2,0.987305,-0.130371,0.205078,26.3125,-10.875,6.75,-0.057378,-1.36641,0.812716
704,-1,-1,0,-1,-2,-2,-2,-1,1.05469,-0.125977,0.197754,31.1875,-10.8125,6.4375,-0.0723894,-1.37001,0.838428
704,0,-3,0,-3,-2,-2,-2,-1,1.05469,-0.125977,0.197754,31.1875,-10.8125,6.4375,-0.0723894,-1.37001,0.838428
718,0,1,-1,0,-1,-1,2,1,1.05469,-0.125977,0.197754,31.1875,-10.8125,6.4375,-0.0723894,-1.37001,0.838428
718,0,-3,-2,1,-1,0,-6,-3,1.05469,-0.125977,0.197754,31.1875,-10.8125,6.4375,-0.0723894,-1.37001,0.838428
726,-1,-2,-1,-1,0,-2,0,-1,1.08398,-0.0927734,0.1875,27.3125,-8.875,6.5,-0.0849593,-1.37381,0.860827
726,1,-1,-2,-1,-2,0,-1,-1,1.08398,-0.0927734,0.1875,27.3125,-8.875,6.5,-0.0849593,-1.37381,0.860827
741,-1,2,0,-2,-3,-3,-3,-1,1.08398,-0.0927734,0.1875,27.3125,-8.875,6.5,-0.0849593,-1.37381,0.860827
741,-2,-1,-3,-1,-3,-1,1,0,1.08398,-0.0927734,0.1875,27.3125,-8.875,6.5,-0.0849593,-1.37381,0.860827
743,-1,0,-2,-2,1,-1,-1,0,1.08594,-0.0634766,0.168457,15.75,-6.375,7.6875,-0.0997702,-1.37666,0.881312
743,0,1,1,0,-1,-2,-1,-2,1.08594,-0.0634766,0.168457,15.75,-6.375,7.6875,-0.0997702,-1.37666,0.881312
763,-1,-1,-1,-2,-2,0,-2,0,1.08594,-0.0634766,0.168457,15.75,-6.375,7.6875,-0.0997702,-1.37666,0.881312
763,0,0,-1,0,0,1,0,0,1.08594,-0.0634766,0.168457,15.75,-6.375,7.6875,-0.0997702,-1.37666,0.881312
765,-1,0,-1,-1,-2,-1,1,-1,1.07373,-0.0664062,0.175781,3.0625,-4.125,9.25,-0.121494,-1.37828,0.904187
765,-1,1,-1,-2,1,-1,-1,-1,1.07373,-0.0664062,0.175781,3.0625,-4.125,9.25,-0.121494,-1.37828,0.904187
778,-2,-2,0,-1,-2,0,0,-3,1.07373,-0.0664062,0.175781,3.0625,-4.125,9.25,-0.121494,-1.37828,0.904187
778,-1,-1,-2,-1,-3,-2,-3,-1,1.07373,-0.0664062,0.175781,3.0625,-4.125,9.25,-0.121494,-1.37828,0.904187
785,0,-1,-3,-1,-1,-1,0,-1,1.05078,-0.0683594,0.159668,-5.4375,-1.125,10.875,-0.14875,-1.37902,0.929874
785,1,1,0,-2,-1,0,-1,0,1.05078,-0.0683594,0.159668,-5.4375,-1.125,10.875,-0.14875,-1.37902,0.929874
801,0,-1,-1,0,0,-1,-1,-1,1.05078,-0.0683594,0.159668,-5.4375,-1.125,10.875,-0.14875,-1.37902,0.929874
801,-1,-2,1,-3,0,-1,1,-4,1.05078,-0.0683594,0.159668,-5.4375,-1.125,10.875,-0.14875,-1.37902,0.929874
802,-2,-3,0,-1,-3,-2,2,0,1.01025,-0.0830078,0.175781,-6.5,1.4375,12.9375,-0.179684,-1.37782,0.958789
802,-1,-2,-2,0,-2,1,-1,2,1.01025,-0.0830078,0.175781,-6.5,1.4375,12.9375,-0.179684,-1.37782,0.958789
823,-1,0,-2,-2,0,0,3,12,1.01025,-0.0830078,0.175781,-6.5,1.4375,12.9375,-0.179684,-1.37782,0.958789
823,0,0,0,-1,-1,-2,-6,-12,1.01025,-0.0830078,0.175781,-6.5,1.4375,12.9375,-0.179684,-1.37782,0.958789
830,0,-1,-1,-1,-1,-3,-1,-1,0.980469,-0.112305,0.20166,-1.3125,1.6875,14.0625,-0.212864,-1.37586,0.99184
830,1,-2,2,1,1,0,-3,-5,0.980469,-0.112305,0.20166,-1.3125,1.6875,14.0625,-0.212864,-1.37586,0.99184
838,0,-2,-2,-1,1,-3,0,2,0.980469,-0.112305,0.20166,-1.3125,1.6875,14.0625,-0.212864,-1.37586,0.99184
838,0,1,0,-1,-1,0,1,4,0.980469,-0.112305,0.20166,-1.3125,1.6875,14.0625,-0.212864,-1.37586,0.99184
840,-1,-1,-1,0,-2,-1,-2,-2,0.949219,-0.111328,0.209473,5.75,2.4375,13.9375,-0.241114,-1.37312,1.02256
840,-1,0,-1,0,-1,-3,-1,-1,0.949219,-0.111328,0.209473,5.75,2.4375,13.9375,-0.241114,-1.37312,1.02256
861,-1,-1,0,-1,-1,1,-1,-4,0.949219,-0.111328,0.209473,5.75,2.4375,13.9375,-0.241114,-1.37312,1.02256
861,-1,2,-2,0,-1,-1,2,2,0.949219,-0.111328,0.209473,5.75,2.4375,13.9375,-0.241114,-1.37312,1.02256
862,-1,0,-3,-2,0,-2,-2,-3,0.921387,-0.108887,0.231445,11.875,2.0625,14.0625,-0.265136,-1.36952,1.05111
862,-1,-3,0,-2,-1,-1,4,3,0.921387,-0.108887,0.231445,11.875,2.0625,14.0625,-0.265136,-1.36952,1.05111
883,0,-4,-1,-1,0,-1,-3,-7,0.921387,-0.108887,0.231445,11.875,2.0625,14.0625,-0.265136,-1.36952,1.05111
883,0,-2,-1,0,-1,-2,-2,0,0.921387,-0.108887,0.231445,11.875,2.0625,14.0625,-0.265136,-1.36952,1.05111
885,0,-1,0,1,-1,0,-3,2,0.908691,-0.106445,0.238281,13,0.1875,12.875,-0.285917,-1.36638,1.07662
885,-1,0,-1,-1,-2,-1,0,0,0.908691,-0.106445,0.238281,13,0.1875,12.875,-0.285917,-1.36638,1.07662
898,0,1,-1,-1,-1,-1,-2,-3,0.908691,-0.106445,0.238281,13,0.1875,12.875,-0.285917,-1.36638,1.07662
898,0,0,0,-2,0,-1,0,-1,0.908691,-0.106445,0.238281,13,0.1875,12.875,-0.285917,-1.36638,1.07662
904,0,-1,0,0,-2,2,0,0,0.914551,-0.111816,0.251465,9.0625,-1.25,10.6875,-0.304507,-1.36396,1.09878
904,-1,-2,-2,-2,-1,-2,-2,-2,0.914551,-0.111816,0.251465,9.0625,-1.25,10.6875,-0.304507,-1.36396,1.09878
921,-1,-2,0,-1,-1,-3,-2,-2,0.914551,-0.111816,0.251465,9.0625,-1.25,10.6875,-0.304507,-1.36396,1.09878
921,-1,-2,-4,0,-1,0,0,1,0.914551,-0.111816,0.251465,9.0625,-1.25,10.6875,-0.304507,-1.36396,1.09878
923,-3,0,0,1,-1,0,-1,0,0.920898,-0.127441,0.243652,6.25,-2.1875,8.125,-0.321411,-1.36184,1.11797
923,-2,2,-2,2,-2,0,-2,-2,0.920898,-0.127441,0.243652,6.25,-2.1875,8.125,-0.321411,-1.36184,1.11797
944,0,-2,-1,-1,-2,1,-1,-2,0.920898,-0.127441,0.243652,6.25,-2.1875,8.125,-0.321411,-1.36184,1.11797
944,1,0,-1,-1,-2,0,0,2,0.920898,-0.127441,0.243652,6.25,-2.1875,8.125,-0.321411,-1.36184,1.11797
950,-1,-2,-2,-3,0,-1,-2,-2,0.930176,-0.119629,0.239746,4.0625,-2.4375,6.4375,-0.335638,-1.36038,1.13391
950,2,0,-2,-2,-1,-1,-2,0,0.930176,-0.119629,0.239746,4.0625,-2.4375,6.4375,-0.335638,-1.36038,1.13391
958,-2,-2,-2,0,1,-2,-1,-3,0.930176,-0.119629,0.239746,4.0625,-2.4375,6.4375,-0.335638,-1.36038,1.13391
958,-2,-2,-2,-2,-1,0,-2,-1,0.930176,-0.119629,0.239746,4.0625,-2.4375,6.4375,-0.335638,-1.36038,1.13391
964,-1,-1,-1,0,-1,-1,-1,1,0.924805,-0.0991211,0.234863,0.9375,-2.125,5.8125,-0.346937,-1.35901,1.1457
964,-2,-3,0,-2,0,1,-2,-1,0.924805,-0.0991211,0.234863,0.9375,-2.125,5.8125,-0.346937,-1.35901,1.1457
981,-1,-1,0,-2,-2,-1,0,0,0.924805,-0.0991211,0.234863,0.9375,-2.125,5.8125,-0.346937,-1.35901,1.1457
981,-1,-1,1,1,-1,0,1,-1,0.924805,-0.0991211,0.234863,0.9375,-2.125,5.8125,-0.346937,-1.35901,1.1457
982,0,0,-1,0,-2,-1,-1,1,0.916016,-0.101562,0.240723,-1.6875,-2,6.375,-0.359222,-1.35737,1.15762
982,1,6,-1,-1,0,0,-2,-1,0.916016,-0.101562,0.240723,-1.6875,-2,6.375,-0.359222,-1.35737,1.15762
1003,0,1,-1,-1,-1,-2,2,5,0.916016,-0.101562,0.240723,-1.6875,-2,6.375,-0.359222,-1.35737,1.15762
1003,-3,-3,-2,-3,-3,-2,-6,-20,0.916016,-0.101562,0.240723,-1.6875,-2,6.375,-0.359222,-1.35737,1.15762
1005,2,-2,0,0,1,-2,1,4,0.932129,-0.128418,0.253906,-0.75,-3,6.1875,-0.373643,-1.35543,1.17186
1005,-1,-2,0,1,-2,0,0,0,0.932129,-0.128418,0.253906,-0.75,-3,6.1875,-0.373643,-1.35543,1.17186
1018,-1,-2,-1,-1,-1,-2,-2,-4,0.932129,-0.128418,0.253906,-0.75,-3,6.1875,-0.373643,-1.35543,1.17186
1018,0,0,-1,0,0,-1,1,5,0.932129,-0.128418,0.253906,-0.75,-3,6.1875,-0.373643,-1.35543,1.17186
1032,-2,1,-1,1,0,-1,1,0,0.942871,-0.14502,0.25293,4.875,-2.75,5.5,-0.386686,-1.35382,1.18685
1032,-1,-4,-4,-1,-2,-1,-1,-4,0.942871,-0.14502,0.25293,4.875,-2.75,5.5,-0.386686,-1.35382,1.18685
1041,-1,-3,0,-2,-1,0,0,-1,0.942871,-0.14502,0.25293,4.875,-2.75,5.5,-0.386686,-1.35382,1.18685
1041,0,-3,0,0,0,-2,1,4,0.942871,-0.14502,0.25293,4.875,-2.75,5.5,-0.386686,-1.35382,1.18685
1042,-2,-1,0,-1,0,-1,-3,-4,0.93457,-0.123535,0.256836,10.75,-2.5625,5.125,-0.393325,-1.35203,1.19738
1042,-1,-2,-1,0,1,-1,-1,2,0.93457,-0.123535,0.256836,10.75,-2.5625,5.125,-0.393325,-1.35203,1.19738
1064,-1,-1,0,1,0,0,-1,-2,0.93457,-0.123535,0.256836,10.75,-2.5625,5.125,-0.393325,-1.35203,1.19738
1064,0,0,0,0,-1,0,-1,2,0.93457,-0.123535,0.256836,10.75,-2.5625,5.125,-0.393325,-1.35203,1.19738
1066,0,-2,-1,0,0,0,0,-6,0.927246,-0.11377,0.242676,9.3125,-3.0625,3.875,-0.398735,-1.35077,1.20602
1066,-1,-4,-2,-2,0,-2,0,2,0.927246,-0.11377,0.242676,9.3125,-3.0625,3.875,-0.398735,-1.35077,1.20602
1078,0,0,-2,-1,-2,-2,0,-3,0.927246,-0.11377,0.242676,9.3125,-3.0625,3.875,-0.398735,-1.35077,1.20602
1078,0,-1,1,-1,0,-3,0,0,0.927246,-0.11377,0.242676,9.3125,-3.0625,3.875,-0.398735,-1.35077,1.20602
1084,-1,0,-3,-2,-3,-1,-1,1,0.929199,-0.113281,0.246582,4,-3.625,2.8125,-0.404546,-1.34997,1.21337
1084,-3,-1,-2,-2,-1,0,0,-1,0.929199,-0.113281,0.246582,4,-3.625,2.8125,-0.404546,-1.34997,1.21337
1100,1,2,0,-2,0,-1,-1,-1,0.929199,-0.113281,0.246582,4,-3.625,2.8125,-0.404546,-1.34997,1.21337
1100,-2,-1,-1,-1,0,1,1,3,0.929199,-0.113281,0.246582,4,-3.625,2.8125,-0.404546,-1.34997,1.21337
1108,-1,-3,-2,-2,-3,-2,0,-1,0.919922,-0.138672,0.237305,4.1875,-4.6875,1.875,-0.412391,-1.34974,1.2228
1108,0,0,0,-1,-1,-2,0,-1,0.919922,-0.138672,0.237305,4.1875,-4.6875,1.875,-0.412391,-1.34974,1.2228
1123,-3,1,-2,0,-1,-2,-1,0,0.919922,-0.138672,0.237305,4.1875,-4.6875,1.875,-0.412391,-1.34974,1.2228
1123,-2,1,-2,-2,1,-1,-2,-1,0.919922,-0.138672,0.237305,4.1875,-4.6875,1.875,-0.412391,-1.34974,1.2228
1125,-2,0,0,-2,1,0,1,-2,0.925293,-0.154297,0.243652,9.25,-5.3125,0.625,-0.41796,-1.34961,1.23177
1125,2,2,0,-1,-2,-1,-2,-1,0.925293,-0.154297,0.243652,9.25,-5.3125,0.625,-0.41796,-1.34961,1.23177
1147,-2,-5,-1,0,-2,-3,0,-1,0.925293,-0.154297,0.243652,9.25,-5.3125,0.625,-0.41796,-1.34961,1.23177
1147,0,-3,-1,-1,-1,0,1,5,0.925293,-0.154297,0.243652,9.25,-5.3125,0.625,-0.41796,-1.34961,1.23177
1152,0,-2,-2,-1,-1,0,-1,-3,0.93457,-0.133789,0.224121,13.1875,-5.75,-1.0625,-0.418874,-1.35042,1.2373
1152,-1,-1,-1,-1,-1,0,-1,-1,0.93457,-0.133789,0.224121,13.1875,-5.75,-1.0625,-0.418874,-1.35042,1.2373
1160,-1,-1,1,1,-1,-2,-1,-1,0.93457,-0.133789,0.224121,13.1875,-5.75,-1.0625,-0.418874,-1.35042,1.2373
1160,0,-1,-2,-1,-2,-1,-3,-2,0.93457,-0.133789,0.224121,13.1875,-5.75,-1.0625,-0.418874,-1.35042,1.2373
1169,-2,-3,-2,-1,-2,-2,0,4,0.9375,-0.116211,0.222168,10.6875,-5.75,-2.9375,-0.416779,-1.35174,1.23888
1169,-1,-2,0,0,-1,-1,-2,-1,0.9375,-0.116211,0.222168,10.6875,-5.75,-2.9375,-0.416779,-1.35174,1.23888
1183,-2,-1,-3,1,-1,2,0,-3,0.9375,-0.116211,0.222168,10.6875,-5.75,-2.9375,-0.416779,-1.35174,1.23888
1183,1,-1,-1,1,-2,-2,1,2,0.9375,-0.116211,0.222168,10.6875,-5.75,-2.9375,-0.416779,-1.35174,1.23888
1185,1,0,-1,-2,0,0,-2,-1,0.939453,-0.101074,0.20459,5.4375,-4.875,-4.875,-0.411876,-1.35328,1.23566
1185,-1,1,1,-1,0,-1,-1,-3,0.939453,-0.101074,0.20459,5.4375,-4.875,-4.875,-0.411876,-1.35328,1.23566
1206,-1,-4,-4,-3,1,-2,-3,-1,0.939453,-0.101074,0.20459,5.4375,-4.875,-4.875,-0.411876,-1.35328,1.23566
1206,1,0,0,0,0,-1,-2,-2,0.939453,-0.101074,0.20459,5.4375,-4.875,-4.875,-0.411876,-1.35328,1.23566
1207,0,0,-2,-2,-3,-3,-1,0,0.939941,-0.103516,0.213867,-0.3125,-4,-6.5625,-0.406476,-1.35493,1.23005
1207,1,1,-1,2,-1,-2,-3,0,0.939941,-0.103516,0.213867,-0.3125,-4,-6.5625,-0.406476,-1.35493,1.23005
1227,-1,-2,-2,0,-1,-2,-2,2,0.939941,-0.103516,0.213867,-0.3125,-4,-6.5625,-0.406476,-1.35493,1.23005
1227,-1,-4,-3,-2,0,0,-2,0,0.939941,-0.103516,0.213867,-0.3125,-4,-6.5625,-0.406476,-1.35493,1.23005
1236,-2,-2,-1,-2,-1,-1,-2,-1,0.973633,-0.12207,0.210938,-2.625,-3.9375,-8.5625,-0.400115,-1.35643,1.22238
1236,-2,-2,0,0,-2,-1,0,1,0.973633,-0.12207,0.210938,-2.625,-3.9375,-8.5625,-0.400115,-1.35643,1.22238
1251,-3,-2,-1,0,-3,-1,-1,0,0.973633,-0.12207,0.210938,-2.625,-3.9375,-8.5625,-0.400115,-1.35643,1.22238
1251,-1,-1,-1,-1,-1,-2,-2,-4,0.973633,-0.12207,0.210938,-2.625,-3.9375,-8.5625,-0.400115,-1.35643,1.22238
1252,-1,0,1,0,-1,0,-1,-1,1,-0.115234,0.216797,0.75,-3.8125,-10.375,-0.389796,-1.35852,1.21204
1252,-3,-5,-1,-2,1,-1,-1,0,1,-0.115234,0.216797,0.75,-3.8125,-10.375,-0.389796,-1.35852,1.21204
1266,-4,-3,-1,0,-2,0,1,-1,1,-0.115234,0.216797,0.75,-3.8125,-10.375,-0.389796,-1.35852,1.21204
1266,-1,2,-2,-1,-2,-1,-1,-3,1,-0.115234,0.216797,0.75,-3.8125,-10.375,-0.389796,-1.35852,1.21204
1268,-2,4,0,-1,-1,-3,-1,-1,1.04346,-0.0996094,0.22998,5.0625,-4.75,-12.0625,-0.373509,-1.36081,1.19713
1268,-2,3,-1,-2,0,-1,-1,-3,1.04346,-0.0996094,0.22998,5.0625,-4.75,-12.0625,-0.373509,-1.36081,1.19713
1289,2,9,0,-2,0,0,-2,-3,1.04346,-0.0996094,0.22998,5.0625,-4.75,-12.0625,-0.373509,-1.36081,1.19713
1289,1,13,-1,0,0,-1,0,2,1.04346,-0.0996094,0.22998,5.0625,-4.75,-12.0625,-0.373509,-1.36081,1.19713
1290,-2,1,-4,0,0,0,-3,-3,1.07324,-0.0820312,0.209961,2.6875,-5.5,-14.6875,-0.353583,-1.36418,1.17756
1290,1,-3,-2,-2,-2,0,-1,-1,1.07324,-0.0820312,0.209961,2.6875,-5.5,-14.6875,-0.353583,-1.36418,1.17756
1303,-2,-6,-1,-2,0,-2,-1,-1,1.07324,-0.0820312,0.209961,2.6875,-5.5,-14.6875,-0.353583,-1.36418,1.17756
1303,0,-9,0,-1,-2,-2,1,0,1.07324,-0.0820312,0.209961,2.6875,-5.5,-14.6875,-0.353583,-1.36418,1.17756
1305,2,-6,-1,0,0,-1,-2,0,1.02246,-0.0429688,0.196777,-2.6875,-5.4375,-16.5625,-0.328568,-1.36818,1.15119
1305,-1,-8,-3,1,-2,-1,-1,-1,1.02246,-0.0429688,0.196777,-2.6875,-5.4375,-16.5625,-0.328568,-1.36818,1.15119
1326,-3,-6,-2,-1,-2,1,4,12,1.02246,-0.0429688,0.196777,-2.6875,-5.4375,-16.5625,-0.328568,-1.36818,1.15119
1326,-1,-5,-1,1,-1,0,-7,-14,1.02246,-0.0429688,0.196777,-2.6875,-5.4375,-16.5625,-0.328568,-1.36818,1.15119
1328,-1,-1,0,-2,-2,-1,-2,-2,0.928711,0.0224609,0.173828,-12.875,-3.5625,-17.0625,-0.298362,-1.37188,1.11618
1328,-2,-2,-2,-2,-2,-1,0,0,0.928711,0.0224609,0.173828,-12.875,-3.5625,-17.0625,-0.298362,-1.37188,1.11618
1349,0,-1,0,0,1,0,-2,-7,0.928711,0.0224609,0.173828,-12.875,-3.5625,-17.0625,-0.298362,-1.37188,1.11618
1349,-2,-2,0,-2,-1,-3,2,16,0.928711,0.0224609,0.173828,-12.875,-3.5625,-17.0625,-0.298362,-1.37188,1.11618
1350,-1,1,0,0,0,1,0,-5,0.829102,0.0361328,0.15625,-23.9375,-1.125,-16.8125,-0.269813,-1.3747,1.07905
1350,-1,1,-1,-1,0,0,-1,1,0.829102,0.0361328,0.15625,-23.9375,-1.125,-16.8125,-0.269813,-1.3747,1.07905
1363,0,3,1,1,-2,0,-2,-3,0.829102,0.0361328,0.15625,-23.9375,-1.125,-16.8125,-0.269813,-1.3747,1.07905
1363,0,-3,-3,0,-1,1,-1,9,0.829102,0.0361328,0.15625,-23.9375,-1.125,-16.8125,-0.269813,-1.3747,1.07905
1371,-3,-3,-1,-1,-1,0,0,-5,0.780762,0.0219727,0.171387,-28.0625,0.6875,-15.4375,-0.244798,-1.37542,1.04373
1371,0,2,1,0,-2,-2,-2,0,0.780762,0.0219727,0.171387,-28.0625,0.6875,-15.4375,-0.244798,-1.37542,1.04373
1386,2,4,0,-1,-2,1,0,-3,0.780762,0.0219727,0.171387,-28.0625,0.6875,-15.4375,-0.244798,-1.37542,1.04373
1386,-1,0,1,0,-1,-2,1,6,0.780762,0.0219727,0.171387,-28.0625,0.6875,-15.4375,-0.244798,-1.37542,1.04373
1388,1,0,-1,-2,-3,0,-9,-19,0.80127,-0.0219727,0.172852,-21.125,0.8125,-14.8125,-0.224607,-1.37611,1.01584
1388,-2,5,-2,-2,0,0,2,-2,0.80127,-0.0219727,0.172852,-21.125,0.8125,-14.8125,-0.224607,-1.37611,1.01584
1409,2,1,5,0,-1,0,-2,0,0.80127,-0.0219727,0.172852,-21.125,0.8125,-14.8125,-0.224607,-1.37611,1.01584
1409,-3,-4,-11,-1,1,-1,-2,-12,0.80127,-0.0219727,0.172852,-21.125,0.8125,-14.8125,-0.224607,-1.37611,1.01584
1411,1,-2,-1,-2,-1,-3,1,19,0.81543,0.00878906,0.154297,-9.375,2.0625,-13.5625,-0.198256,-1.3765,0.985754
1411,-5,-5,-4,-2,-1,-1,-2,-18,0.81543,0.00878906,0.154297,-9.375,2.0625,-13.5625,-0.198256,-1.3765,0.985754
1431,-5,0,0,-1,-2,-4,-8,-20,0.81543,0.00878906,0.154297,-9.375,2.0625,-13.5625,-0.198256,-1.3765,0.985754
1431,3,1,2,-3,-2,-1,4,13,0.81543,0.00878906,0.154297,-9.375,2.0625,-13.5625,-0.198256,-1.3765,0.985754
1433,1,5,4,2,0,-1,-1,3,0.79541,0.0493164,0.138184,-5.25,3.75,-12.9375,-0.167329,-1.37674,0.952731
1433,-1,-5,-12,-1,0,-1,-2,0,0.79541,0.0493164,0.138184,-5.25,3.75,-12.9375,-0.167329,-1.37674,0.952731
1446,3,3,-1,-1,0,0,1,5,0.79541,0.0493164,0.138184,-5.25,3.75,-12.9375,-0.167329,-1.37674,0.952731
1446,-1,2,3,1,0,0,0,-9,0.79541,0.0493164,0.138184,-5.25,3.75,-12.9375,-0.167329,-1.37674,0.952731
1447,1,0,-5,-1,-2,-1,1,7,0.783203,0.0629883,0.142578,-7.6875,3.8125,-10.875,-0.13945,-1.37631,0.92181
1447,-1,2,3,-2,-1,-1,0,-3,0.783203,0.0629883,0.142578,-7.6875,3.8125,-10.875,-0.13945,-1.37631,0.92181
1469,-1,2,-3,0,-2,0,-3,-8,0.783203,0.0629883,0.142578,-7.6875,3.8125,-10.875,-0.13945,-1.37631,0.92181
1469,1,0,0,1,-1,1,3,10,0.783203,0.0629883,0.142578,-7.6875,3.8125,-10.875,-0.13945,-1.37631,0.92181
1470,-4,-8,0,-2,0,-1,-1,-11,0.824219,0.0571289,0.140137,-8.9375,2,-8.3125,-0.118631,-1.37692,0.897907
1470,5,2,2,0,-1,-2,-2,10,0.824219,0.0571289,0.140137,-8.9375,2,-8.3125,-0.118631,-1.37692,0.897907
1483,-4,-16,-4,-3,-1,-2,-1,10,0.824219,0.0571289,0.140137,-8.9375,2,-8.3125,-0.118631,-1.37692,0.897907
1483,1,0,1,1,-1,-1,-2,-2,0.824219,0.0571289,0.140137,-8.9375,2,-8.3125,-0.118631,-1.37692,0.897907
1490,-2,-5,-3,0,-1,0,1,1,0.899414,0.0625,0.14502,-8.6875,-0.0625,-5.6875,-0.101328,-1.37842,0.877889
1490,2,0,2,0,-2,-1,-2,1,0.899414,0.0625,0.14502,-8.6875,-0.0625,-5.6875,-0.101328,-1.37842,0.877889
1506,-7,-5,0,-1,0,-2,-2,-4,0.899414,0.0625,0.14502,-8.6875,-0.0625,-5.6875,-0.101328,-1.37842,0.877889
1506,-4,2,-2,-1,-1,-2,-3,-6,0.899414,0.0625,0.14502,-8.6875,-0.0625,-5.6875,-0.101328,-1.37842,0.877889
1507,-5,-4,-3,-1,0,0,-1,-6,0.953613,0.0844727,0.134277,-16.5,-1.75,-3.9375,-0.0885696,-1.38015,0.859179
1507,-4,3,1,0,-1,-1,4,6,0.953613,0.0844727,0.134277,-16.5,-1.75,-3.9375,-0.0885696,-1.38015,0.859179
1529,5,8,-2,-2,-3,-3,1,2,0.953613,0.0844727,0.134277,-16.5,-1.75,-3.9375,-0.0885696,-1.38015,0.859179
1529,1,5,1,2,0,0,4,7,0.953613,0.0844727,0.134277,-16.5,-1.75,-3.9375,-0.0885696,-1.38015,0.859179
1530,-14,-25,-5,-4,-2,-2,-10,-42,0.921875,0.0825195,0.135254,-28,-3.125,-2.75,-0.0811814,-1.38254,0.842202
1530,0,-14,-16,-3,-1,-1,-1,-2,0.921875,0.0825195,0.135254,-28,-3.125,-2.75,-0.0811814,-1.38254,0.842202
1542,1,0,19,0,0,-1,0,1,0.921875,0.0825195,0.135254,-28,-3.125,-2.75,-0.0811814,-1.38254,0.842202
1542,-3,-24,-14,-3,0,-1,1,0,0.921875,0.0825195,0.135254,-28,-3.125,-2.75,-0.0811814,-1.38254,0.842202
1558,2,6,-20,-4,-3,-2,1,8,0.828613,0.0712891,0.131836,-28.75,-6.0625,-0.5625,-0.0800261,-1.38552,0.831355
1558,0,2,7,-1,-1,-2,-3,-1,0.828613,0.0712891,0.131836,-28.75,-6.0625,-0.5625,-0.0800261,-1.38552,0.831355
1566,-4,-4,-10,1,0,0,-2,-5,0.828613,0.0712891,0.131836,-28.75,-6.0625,-0.5625,-0.0800261,-1.38552,0.831355
1566,-1,9,-1,1,0,1,-6,-12,0.828613,0.0712891,0.131836,-28.75,-6.0625,-0.5625,-0.0800261,-1.38552,0.831355
1567,3,19,33,1,-1,-2,4,23,0.757324,0.0688477,0.114746,-27.125,-8.1875,1.25,-0.082763,-1.38892,0.824698
1567,-3,-26,-26,-3,-1,-1,-3,-7,0.757324,0.0688477,0.114746,-27.125,-8.1875,1.25,-0.082763,-1.38892,0.824698
1589,-3,26,-3,0,-1,0,5,8,0.757324,0.0688477,0.114746,-27.125,-8.1875,1.25,-0.082763,-1.38892,0.824698
1589,3,-8,-11,-6,-2,-3,-10,-20,0.757324,0.0688477,0.114746,-27.125,-8.1875,1.25,-0.082763,-1.38892,0.824698
1590,-6,-17,-4,1,-1,0,-6,-17,0.701172,0.0419922,0.125488,-25.125,-10.875,2.1875,-0.0905058,-1.39262,0.823984
1590,-4,-17,10,-2,-2,-1,-1,4,0.701172,0.0419922,0.125488,-25.125,-10.875,2.1875,-0.0905058,-1.39262,0.823984
1603,2,-4,-23,-1,1,0,2,6,0.701172,0.0419922,0.125488,-25.125,-10.875,2.1875,-0.0905058,-1.39262,0.823984
1603,-3,1,5,-3,-2,-1,3,5,0.701172,0.0419922,0.125488,-25.125,-10.875,2.1875,-0.0905058,-1.39262,0.823984
1612,2,7,-2,0,-1,0,-9,-18,0.730957,-0.000488281,0.0942383,-19.25,-15,3.25,-0.105037,-1.3988,0.83217
1612,3,20,19,1,-1,-1,-1,-3,0.730957,-0.000488281,0.0942383,-19.25,-15,3.25,-0.105037,-1.3988,0.83217
1626,0,3,7,1,0,-1,-3,-5,0.730957,-0.000488281,0.0942383,-19.25,-15,3.25,-0.105037,-1.3988,0.83217
1626,2,9,11,1,-3,-1,1,0,0.730957,-0.000488281,0.0942383,-19.25,-15,3.25,-0.105037,-1.3988,0.83217
1628,4,-1,-7,-1,-1,-2,3,12,0.726074,0.000976562,0.078125,-12.625,-15.375,2.3125,-0.116458,-1.40478,0.839043
1628,2,11,-20,5,1,0,2,4,0.726074,0.000976562,0.078125,-12.625,-15.375,2.3125,-0.116458,-1.40478,0.839043
1648,-1,-15,14,-3,-3,-3,-2,-4,0.726074,0.000976562,0.078125,-12.625,-15.375,2.3125,-0.116458,-1.40478,0.839043
1648,-3,-6,-22,-7,-5,-4,-2,-3,0.726074,0.000976562,0.078125,-12.625,-15.375,2.3125,-0.116458,-1.40478,0.839043
1650,-1,2,35,-2,-3,-2,3,7,0.675293,0.0400391,0.0810547,-6.375,-18.125,0.75,-0.1171,-1.4115,0.837431
1650,-2,4,-12,-3,-1,-1,-1,-3,0.675293,0.0400391,0.0810547,-6.375,-18.125,0.75,-0.1171,-1.4115,0.837431
1662,5,-5,-32,7,3,2,3,4,0.675293,0.0400391,0.0810547,-6.375,-18.125,0.75,-0.1171,-1.4115,0.837431
1662,-4,-1,14,-5,-2,-2,-3,-7,0.675293,0.0400391,0.0810547,-6.375,-18.125,0.75,-0.1171,-1.4115,0.837431
1678,0,12,47,2,1,-1,2,5,0.770508,0.0185547,0.0683594,-10.6875,-23.3125,0.625,-0.124183,-1.42127,0.841307
1678,-4,-33,-73,-4,0,0,0,-2,0.770508,0.0185547,0.0683594,-10.6875,-23.3125,0.625,-0.124183,-1.42127,0.841307
1686,6,-12,36,-1,0,-1,-1,2,0.770508,0.0185547,0.0683594,-10.6875,-23.3125,0.625,-0.124183,-1.42127,0.841307
1686,0,-2,-3,1,-1,-2,1,2,0.770508,0.0185547,0.0683594,-10.6875,-23.3125,0.625,-0.124183,-1.42127,0.841307
1688,-4,-9,-23,-5,-3,-3,0,1,0.967773,-0.0205078,0.0703125,-3.1875,-28.6875,-1.5,-0.132714,-1.43261,0.848737
1688,1,21,34,1,0,-3,-1,1,0.967773,-0.0205078,0.0703125,-3.1875,-28.6875,-1.5,-0.132714,-1.43261,0.848737
1709,9,16,2,4,2,1,1,2,0.967773,-0.0205078,0.0703125,-3.1875,-28.6875,-1.5,-0.132714,-1.43261,0.848737
1709,-2,-10,-2,3,2,1,0,-6,0.967773,-0.0205078,0.0703125,-3.1875,-28.6875,-1.5,-0.132714,-1.43261,0.848737
1711,3,-11,-5,1,-1,-1,5,20,1.07471,0.0185547,0.0185547,-11.3125,-25.4375,-6.25,-0.125367,-1.44483,0.837466
1711,0,7,13,4,0,0,0,-1,1.07471,0.0185547,0.0185547,-11.3125,-25.4375,-6.25,-0.125367,-1.44483,0.837466
1722,-5,-19,-26,-9,-6,-4,-4,-5,1.07471,0.0185547,0.0185547,-11.3125,-25.4375,-6.25,-0.125367,-1.44483,0.837466
1722,-3,11,5,1,0,-2,-2,-2,1.07471,0.0185547,0.0185547,-11.3125,-25.4375,-6.25,-0.125367,-1.44483,0.837466
1731,-2,3,-14,-2,-1,0,1,-1,1.08252,0.0126953,0.046875,-13,-23.125,-8.625,-0.10951,-1.45508,0.816986
1731,-2,0,21,0,-2,-2,-2,-2,1.08252,0.0126953,0.046875,-13,-23.125,-8.625,-0.10951,-1.45508,0.816986
1746,-2,-1,28,1,-1,1,6,14,1.08252,0.0126953,0.046875,-13,-23.125,-8.625,-0.10951,-1.45508,0.816986
1746,4,24,4,2,1,1,-1,1,1.08252,0.0126953,0.046875,-13,-23.125,-8.625,-0.10951,-1.45508,0.816986
1748,-4,-21,-120,-5,2,0,0,-2,1.12109,0.0200195,0.0463867,-13.1875,-23.8125,-4.375,-0.102669,-1.4653,0.80541
1748,0,37,95,1,-4,-1,-3,-1,1.12109,0.0200195,0.0463867,-13.1875,-23.8125,-4.375,-0.102669,-1.4653,0.80541
1768,-3,48,-3,-6,-5,-2,-2,-4,1.12109,0.0200195,0.0463867,-13.1875,-23.8125,-4.375,-0.102669,-1.4653,0.80541
1768,0,16,27,-2,-1,-2,0,-2,1.12109,0.0200195,0.0463867,-13.1875,-23.8125,-4.375,-0.102669,-1.4653,0.80541
1770,2,-1,-11,1,2,-1,5,22,1.18311,0.0541992,0.0161133,-7.125,-22.1875,-3.0625,-0.0886092,-1.47572,0.789168
1770,-4,-18,-13,0,1,-2,-6,-3,1.18311,0.0541992,0.0161133,-7.125,-22.1875,-3.0625,-0.0886092,-1.47572,0.789168
1791,-3,-22,-21,1,1,-1,-3,-5,1.18311,0.0541992,0.0161133,-7.125,-22.1875,-3.0625,-0.0886092,-1.47572,0.789168
1791,-4,-19,-3,-2,-3,-2,-1,0,1.18311,0.0541992,0.0161133,-7.125,-22.1875,-3.0625,-0.0886092,-1.47572,0.789168
1792,8,-6,16,3,1,0,0,-3,1.22021,0.152832,-0.00976562,-20.25,-13.625,-5.5,-0.0383666,-1.48396,0.732047
1792,-5,-23,-47,-6,-3,-1,2,-1,1.22021,0.152832,-0.00976562,-20.25,-13.625,-5.5,-0.0383666,-1.48396,0.732047
1806,-4,-14,8,0,-2,-2,-2,-4,1.22021,0.152832,-0.00976562,-20.25,-13.625,-5.5,-0.0383666,-1.48396,0.732047
1806,-3,6,-23,-2,0,1,-2,-3,1.22021,0.152832,-0.00976562,-20.25,-13.625,-5.5,-0.0383666,-1.48396,0.732047
1807,2,11,14,2,-1,-1,-1,-2,1.21826,0.0532227,0.00634766,-19.9375,-9.4375,-7.0625,-0.000599746,-1.48877,0.686782
1807,0,4,15,-1,-1,-2,0,0,1.21826,0.0532227,0.00634766,-19.9375,-9.4375,-7.0625,-0.000599746,-1.48877,0.686782
1829,-2,-9,-2,2,-1,-1,-3,-8,1.21826,0.0532227,0.00634766,-19.9375,-9.4375,-7.0625,-0.000599746,-1.48877,0.686782
1829,-6,-14,-34,-9,-2,-4,-2,-1,1.21826,0.0532227,0.00634766,-19.9375,-9.4375,-7.0625,-0.000599746,-1.48877,0.686782
1830,-1,-1,-3,-5,-5,-3,-4,-6,1.22998,0.0664062,-0.019043,-15.625,-2.375,-6.6875,0.042603,-1.49253,0.638285
1830,-4,-15,-2,-3,-2,-1,-2,-1,1.22998,0.0664062,-0.019043,-15.625,-2.375,-6.6875,0.042603,-1.49253,0.638285
1842,-5,-16,-5,-1,0,-1,-1,-2,1.22998,0.0664062,-0.019043,-15.625,-2.375,-6.6875,0.042603,-1.49253,0.638285
1842,-5,-22,10,3,-1,-1,0,1,1.22998,0.0664062,-0.019043,-15.625,-2.375,-6.6875,0.042603,-1.49253,0.638285
1851,-2,1,21,1,-1,-1,-1,-1,1.22168,0.0996094,-0.0102539,-18.5,3.5625,-8.3125,0.104026,-1.49406,0.570664
1851,-2,1,-19,-1,0,-1,-2,-2,1.22168,0.0996094,-0.0102539,-18.5,3.5625,-8.3125,0.104026,-1.49406,0.570664
1866,-3,18,-4,-3,-1,-1,0,-1,1.22168,0.0996094,-0.0102539,-18.5,3.5625,-8.3125,0.104026,-1.49406,0.570664
1866,3,22,11,3,0,2,1,3,1.22168,0.0996094,-0.0102539,-18.5,3.5625,-8.3125,0.104026,-1.49406,0.570664
1868,-1,22,0,-1,-2,0,-1,-6,1.20947,0.116211,-0.0170898,-28.0625,7.75,-9.4375,0.167401,-1.49379,0.49792
1868,-1,18,11,3,1,0,0,1,1.20947,0.116211,-0.0170898,-28.0625,7.75,-9.4375,0.167401,-1.49379,0.49792
1888,2,4,-5,-4,-2,-1,-1,0,1.20947,0.116211,-0.0170898,-28.0625,7.75,-9.4375,0.167401,-1.49379,0.49792
1888,-2,-3,3,-1,-2,-1,-5,-5,1.20947,0.116211,-0.0170898,-28.0625,7.75,-9.4375,0.167401,-1.49379,0.49792
1890,2,-6,15,3,0,0,-1,4,1.18359,0.065918,0.0307617,-27.125,6.375,-6.6875,0.199381,-1.49107,0.455513
1890,-2,3,-22,-2,0,-1,-1,-2,1.18359,0.065918,0.0307617,-27.125,6.375,-6.6875,0.199381,-1.49107,0.455513
1902,-3,9,5,-2,0,0,-2,-1,1.18359,0.065918,0.0307617,-27.125,6.375,-6.6875,0.199381,-1.49107,0.455513
1902,5,27,-20,-3,0,-2,1,0,1.18359,0.065918,0.0307617,-27.125,6.375,-6.6875,0.199381,-1.49107,0.455513
1911,-3,5,-31,-2,-3,1,-3,-10,1.17432,0.0556641,0.0415039,-22.5,5.375,-7.1875,0.231105,-1.49002,0.416051
1911,11,-14,26,0,-2,-3,4,24,1.17432,0.0556641,0.0415039,-22.5,5.375,-7.1875,0.231105,-1.49002,0.416051
1927,-1,-36,5,1,0,-2,-5,-17,1.17432,0.0556641,0.0415039,-22.5,5.375,-7.1875,0.231105,-1.49002,0.416051
1927,7,-52,16,5,-1,-1,2,3,1.17432,0.0556641,0.0415039,-22.5,5.375,-7.1875,0.231105,-1.49002,0.416051
1928,-3,-33,8,-4,-1,-1,-2,-7,1.146,0.03125,0.059082,-12.3125,3.5625,-7.6875,0.259034,-1.48866,0.383816
1928,1,-17,-6,-3,0,1,2,5,1.146,0.03125,0.059082,-12.3125,3.5625,-7.6875,0.259034,-1.48866,0.383816
1948,-1,-2,-5,-3,-1,0,1,6,1.146,0.03125,0.059082,-12.3125,3.5625,-7.6875,0.259034,-1.48866,0.383816
1948,-4,-2,4,-3,0,-1,-2,-3,1.146,0.03125,0.059082,-12.3125,3.5625,-7.6875,0.259034,-1.48866,0.383816
1956,-1,7,7,-2,-4,-1,-2,5,1.16064,0.0209961,0.0458984,-1.5,3.9375,-7.75,0.287704,-1.48788,0.354604
1956,0,28,-5,1,-2,-1,-4,-6,1.16064,0.0209961,0.0458984,-1.5,3.9375,-7.75,0.287704,-1.48788,0.354604
1963,0,-58,9,5,0,0,1,4,1.16064,0.0209961,0.0458984,-1.5,3.9375,-7.75,0.287704,-1.48788,0.354604
1963,-3,-63,-11,-1,-1,1,-3,-5,1.16064,0.0209961,0.0458984,-1.5,3.9375,-7.75,0.287704,-1.48788,0.354604
1987,-8,-19,2,-1,0,-1,-1,-2,1.15039,0.0488281,0.0405273,-0.5,4.8125,-6.375,0.316928,-1.48664,0.325173
1987,-3,-23,-13,-4,-4,0,-6,-10,1.15039,0.0488281,0.0405273,-0.5,4.8125,-6.375,0.316928,-1.48664,0.325173
1988,3,26,-1,-1,0,0,-1,-4,1.15039,0.0488281,0.0405273,-0.5,4.8125,-6.375,0.316928,-1.48664,0.325173
1988,-1,34,4,0,-1,-1,0,5,1.15039,0.0488281,0.0405273,-0.5,4.8125,-6.375,0.316928,-1.48664,0.325173
1989,-6,26,2,-1,-2,-2,-3,-9,1.16455,0.0488281,-0.000976562,-9.625,6.5625,-4.8125,0.336774,-1.48603,0.302022
1989,-1,16,1,2,-3,-2,-1,2,1.16455,0.0488281,-0.000976562,-9.625,6.5625,-4.8125,0.336774,-1.48603,0.302022
2008,-1,-4,-10,-4,-3,-1,-3,3,1.16455,0.0488281,-0.000976562,-9.625,6.5625,-4.8125,0.336774,-1.48603,0.302022
2008,3,7,2,0,-2,0,1,16,1.16455,0.0488281,-0.000976562,-9.625,6.5625,-4.8125,0.336774,-1.48603,0.302022
2010,1,20,6,-1,1,-1,9,1,1.17529,0.0854492,-0.00292969,-18.6875,10.4375,-5.75,0.360272,-1.48456,0.272554
2010,-4,-9,-2,1,-1,-1,-16,-19,1.17529,0.0854492,-0.00292969,-18.6875,10.4375,-5.75,0.360272,-1.48456,0.272554
2023,-4,-10,-12,-1,-3,0,1,-3,1.17529,0.0854492,-0.00292969,-18.6875,10.4375,-5.75,0.360272,-1.48456,0.272554
2023,0,-8,3,0,0,-2,0,0,1.17529,0.0854492,-0.00292969,-18.6875,10.4375,-5.75,0.360272,-1.48456,0.272554
2031,3,7,7,2,1,-1,-1,5,1.15088,0.10498,-0.00976562,-27.8125,13.0625,-9,0.392792,-1.48028,0.229901
2031,-2,-10,0,1,0,-1,3,0,1.15088,0.10498,-0.00976562,-27.8125,13.0625,-9,0.392792,-1.48028,0.229901
2046,-1,-17,12,-4,-2,-2,-3,1,1.15088,0.10498,-0.00976562,-27.8125,13.0625,-9,0.392792,-1.48028,0.229901
2046,-2,15,-20,-2,-2,-1,-4,-1,1.15088,0.10498,-0.00976562,-27.8125,13.0625,-9,0.392792,-1.48028,0.229901
2047,-6,-4,-17,-7,-4,-1,-5,-4,1.12598,0.0913086,-0.0107422,-33.5625,15.5625,-5.25,0.399331,-1.47648,0.211745
2047,3,-28,-2,-1,-1,-2,11,9,1.12598,0.0913086,-0.0107422,-33.5625,15.5625,-5.25,0.399331,-1.47648,0.211745
2069,-4,11,1,2,0,-1,0,-5,1.12598,0.0913086,-0.0107422,-33.5625,15.5625,-5.25,0.399331,-1.47648,0.211745
2069,-4,7,9,1,-1,-1,-1,-9,1.12598,0.0913086,-0.0107422,-33.5625,15.5625,-5.25,0.399331,-1.47648,0.211745
2071,2,-8,2,-2,-1,-1,-8,-3,1.10645,0.0366211,0.00927734,-30.8125,17.625,-0.25,0.373914,-1.47335,0.226867
2071,-3,-12,-4,-1,0,3,-3,2,1.10645,0.0366211,0.00927734,-30.8125,17.625,-0.25,0.373914,-1.47335,0.226867
2082,4,9,3,2,0,-1,15,6,1.10645,0.0366211,0.00927734,-30.8125,17.625,-0.25,0.373914,-1.47335,0.226867
2082,1,-2,-5,1,-1,-1,-1,0,1.10645,0.0366211,0.00927734,-30.8125,17.625,-0.25,0.373914,-1.47335,0.226867
2091,1,-14,7,-2,-1,-1,-3,0,1.10498,0.019043,0.0117188,-23.25,19,3.9375,0.333191,-1.46987,0.259707
2091,-2,0,7,0,0,1,-7,-5,1.10498,0.019043,0.0117188,-23.25,19,3.9375,0.333191,-1.46987,0.259707
2105,-1,-11,-5,0,0,-1,0,3,1.10498,0.019043,0.0117188,-23.25,19,3.9375,0.333191,-1.46987,0.259707
2105,-1,7,-3,-3,-1,-1,-1,-12,1.10498,0.019043,0.0117188,-23.25,19,3.9375,0.333191,-1.46987,0.259707
2112,-3,5,2,0,-2,-3,0,3,1.07422,0.0209961,0.0341797,-12.625,19.9375,7.5,0.286681,-1.46499,0.301461
2112,-2,-6,1,1,0,-1,3,0,1.07422,0.0209961,0.0341797,-12.625,19.9375,7.5,0.286681,-1.46499,0.301461
2128,-1,-2,-9,-6,-4,-2,-8,-7,1.07422,0.0209961,0.0341797,-12.625,19.9375,7.5,0.286681,-1.46499,0.301461
2128,-7,6,7,-1,1,1,2,-3,1.07422,0.0209961,0.0341797,-12.625,19.9375,7.5,0.286681,-1.46499,0.301461
2130,6,-2,3,1,-1,2,0,-3,1.08789,0.0317383,0.0405273,-8.1875,20,8.4375,0.245441,-1.46075,0.34017
2130,-3,5,-1,-2,-1,-3,1,-4,1.08789,0.0317383,0.0405273,-8.1875,20,8.4375,0.245441,-1.46075,0.34017
2151,0,19,-3,-2,-2,-3,-5,3,1.08789,0.0317383,0.0405273,-8.1875,20,8.4375,0.245441,-1.46075,0.34017
2151,6,11,3,-1,-2,-1,0,7,1.08789,0.0317383,0.0405273,-8.1875,20,8.4375,0.245441,-1.46075,0.34017
2152,-3,-2,-3,-1,2,-1,-1,-7,1.10693,0.0239258,0.0976562,-5.4375,21.6875,6.0625,0.210534,-1.45497,0.373662
2152,2,2,-2,-2,-2,1,5,-1,1.10693,0.0239258,0.0976562,-5.4375,21.6875,6.0625,0.210534,-1.45497,0.373662
2166,-1,0,-5,-2,2,1,-6,8,1.10693,0.0239258,0.0976562,-5.4375,21.6875,6.0625,0.210534,-1.45497,0.373662
2166,-6,1,-2,-2,-2,-2,3,-5,1.10693,0.0239258,0.0976562,-5.4375,21.6875,6.0625,0.210534,-1.45497,0.373662
2172,14,11,0,1,0,3,-1,4,1.06982,-0.00292969,0.0908203,-5.0625,21.625,6.75,0.173905,-1.4496,0.409103
2172,16,2,0,-1,0,-3,0,-1,1.06982,-0.00292969,0.0908203,-5.0625,21.625,6.75,0.173905,-1.4496,0.409103
2189,-7,8,-4,-3,-3,0,-3,1,1.06982,-0.00292969,0.0908203,-5.0625,21.625,6.75,0.173905,-1.4496,0.409103
2189,-20,19,-3,0,-1,-1,-1,-7,1.06982,-0.00292969,0.0908203,-5.0625,21.625,6.75,0.173905,-1.4496,0.409103
2190,-21,13,3,2,0,-1,3,-1,1.07471,0.0800781,0.100098,-6.75,22.75,6.1875,0.156161,-1.4427,0.424806
2190,3,-3,-7,-4,-3,-4,-7,6,1.07471,0.0800781,0.100098,-6.75,22.75,6.1875,0.156161,-1.4427,0.424806
2211,-2,5,-2,-3,-2,-3,12,13,1.07471,0.0800781,0.100098,-6.75,22.75,6.1875,0.156161,-1.4427,0.424806
2211,15,-8,-2,-2,-4,-3,-11,-11,1.07471,0.0800781,0.100098,-6.75,22.75,6.1875,0.156161,-1.4427,0.424806
2212,0,12,-2,-1,-1,-2,2,3,1.08447,0.0698242,0.147461,-13.1875,24.875,7,0.133484,-1.43379,0.442929
2212,1,-3,-2,4,4,11,11,-4,1.08447,0.0698242,0.147461,-13.1875,24.875,7,0.133484,-1.43379,0.442929
2225,20,10,-1,-1,0,-3,-16,16,1.08447,0.0698242,0.147461,-13.1875,24.875,7,0.133484,-1.43379,0.442929
2225,-27,-3,-4,-5,0,1,32,-15,1.08447,0.0698242,0.147461,-13.1875,24.875,7,0.133484,-1.43379,0.442929
2232,0,19,0,-1,-1,-3,-10,8,1.04395,-0.0444336,0.122559,-19.0625,25.625,19.3125,0.0641966,-1.42671,0.506277
2232,-1,8,-3,-6,-4,-3,-8,-8,1.04395,-0.0444336,0.122559,-19.0625,25.625,19.3125,0.0641966,-1.42671,0.506277
2248,14,-1,2,-2,-3,1,1,-8,1.04395,-0.0444336,0.122559,-19.0625,25.625,19.3125,0.0641966,-1.42671,0.506277
2248,4,-4,-1,-5,-1,-2,-8,2,1.04395,-0.0444336,0.122559,-19.0625,25.625,19.3125,0.0641966,-1.42671,0.506277
2250,11,-18,-1,4,-2,1,4,0,1.0625,-0.0610352,0.123535,-4.5625,27.25,25,-0.00717337,-1.41803,0.576382
2250,-20,12,0,-1,-2,-2,6,3,1.0625,-0.0610352,0.123535,-4.5625,27.25,25,-0.00717337,-1.41803,0.576382
2270,-2,12,9,6,4,0,3,-6,1.0625,-0.0610352,0.123535,-4.5625,27.25,25,-0.00717337,-1.41803,0.576382
2270,16,9,-2,1,0,-2,-16,-6,1.0625,-0.0610352,0.123535,-4.5625,27.25,25,-0.00717337,-1.41803,0.576382
2272,-2,9,0,-2,-2,3,15,14,1.05811,-0.0336914,0.186035,0.6875,30.4375,22.6875,-0.0583519,-1.40658,0.628226
2272,-2,-1,-4,-10,-3,-4,-11,-3,1.05811,-0.0336914,0.186035,0.6875,30.4375,22.6875,-0.0583519,-1.40658,0.628226
2285,-10,5,4,-4,0,0,3,-4,1.05811,-0.0336914,0.186035,0.6875,30.4375,22.6875,-0.0583519,-1.40658,0.628226
2285,4,13,-2,11,3,1,-4,-4,1.05811,-0.0336914,0.186035,0.6875,30.4375,22.6875,-0.0583519,-1.40658,0.628226
2292,-1,29,-2,-2,-1,-1,-2,5,1.02686,-0.0317383,0.169922,-3.75,31.3125,22.375,-0.102029,-1.3953,0.671139
2292,-1,-6,-3,0,-4,-4,-4,1,1.02686,-0.0317383,0.169922,-3.75,31.3125,22.375,-0.102029,-1.3953,0.671139
2309,-4,-19,-1,-6,-3,-3,4,2,1.02686,-0.0317383,0.169922,-3.75,31.3125,22.375,-0.102029,-1.3953,0.671139
2309,0,-9,0,-2,-1,-1,6,34,1.02686,-0.0317383,0.169922,-3.75,31.3125,22.375,-0.102029,-1.3953,0.671139
2310,-9,-3,-4,-2,-1,-3,-18,-19,1.02148,-0.0351562,0.179199,-9.4375,31.8125,25.5,-0.146945,-1.38374,0.713612
2310,3,28,5,1,3,-3,4,-2,1.02148,-0.0351562,0.179199,-9.4375,31.8125,25.5,-0.146945,-1.38374,0.713612
2331,-13,-1,-7,-1,-3,1,-4,-25,1.02148,-0.0351562,0.179199,-9.4375,31.8125,25.5,-0.146945,-1.38374,0.713612
2331,3,-11,-2,-1,-1,-2,-5,15,1.02148,-0.0351562,0.179199,-9.4375,31.8125,25.5,-0.146945,-1.38374,0.713612
2332,-1,67,0,-1,0,-1,-29,-8,0.979004,-0.102539,0.1875,-18.75,35.6875,26.3125,-0.196898,-1.36971,0.757498
2332,1,36,-4,1,-1,5,30,-13,0.979004,-0.102539,0.1875,-18.75,35.6875,26.3125,-0.196898,-1.36971,0.757498
2346,22,28,0,6,2,0,-2,22,0.979004,-0.102539,0.1875,-18.75,35.6875,26.3125,-0.196898,-1.36971,0.757498
2346,-44,-7,-1,-1,-2,-4,-8,-4,0.979004,-0.102539,0.1875,-18.75,35.6875,26.3125,-0.196898,-1.36971,0.757498
2353,0,-33,-1,-3,-2,-7,-15,-45,0.943848,-0.100586,0.223633,-26.8125,37.4375,25.25,-0.238975,-1.35423,0.790764
2353,-2,-13,3,3,2,3,-9,16,0.943848,-0.100586,0.223633,-26.8125,37.4375,25.25,-0.238975,-1.35423,0.790764
2369,11,8,-3,0,-5,0,17,-8,0.943848,-0.100586,0.223633,-26.8125,37.4375,25.25,-0.238975,-1.35423,0.790764
2369,-3,9,4,-2,0,2,18,2,0.943848,-0.100586,0.223633,-26.8125,37.4375,25.25,-0.238975,-1.35423,0.790764
2370,11,3,1,1,3,7,29,20,0.943359,-0.180176,0.26709,-24.25,40.0625,28.3125,-0.284323,-1.33639,0.82808
2370,-2,13,4,3,0,-3,-8,2,0.943359,-0.180176,0.26709,-24.25,40.0625,28.3125,-0.284323,-1.33639,0.82808
2391,22,-6,1,2,3,3,13,-8,0.943359,-0.180176,0.26709,-24.25,40.0625,28.3125,-0.284323,-1.33639,0.82808
2391,-26,29,2,-2,-2,-1,-61,-40,0.943359,-0.180176,0.26709,-24.25,40.0625,28.3125,-0.284323,-1.33639,0.82808
2392,-3,53,-2,-3,-4,-5,25,36,0.912598,-0.233887,0.284668,-11.6875,43.25,30.5,-0.324447,-1.3162,0.864474
2392,-6,58,-3,0,-5,-9,-9,6,0.912598,-0.233887,0.284668,-11.6875,43.25,30.5,-0.324447,-1.3162,0.864474
2405,-6,87,-5,-3,-4,-5,-12,-14,0.912598,-0.233887,0.284668,-11.6875,43.25,30.5,-0.324447,-1.3162,0.864474
2405,17,61,5,1,4,14,15,-58,0.912598,-0.233887,0.284668,-11.6875,43.25,30.5,-0.324447,-1.3162,0.864474
2413,12,4,-3,-1,-2,-4,-15,41,0.890137,-0.21582,0.297852,9.75,44.8125,29.3125,-0.347227,-1.29555,0.890837
2413,8,-47,-1,0,2,0,-14,-53,0.890137,-0.21582,0.297852,9.75,44.8125,29.3125,-0.347227,-1.29555,0.890837
2428,-42,-108,-5,-3,-3,-8,-33,-43,0.890137,-0.21582,0.297852,9.75,44.8125,29.3125,-0.347227,-1.29555,0.890837
2428,-8,-128,-2,0,0,-6,-5,7,0.890137,-0.21582,0.297852,9.75,44.8125,29.3125,-0.347227,-1.29555,0.890837
2430,-5,-111,0,-1,2,3,11,-8,0.863281,-0.136719,0.301758,15,41.9375,28.4375,-0.358622,-1.277,0.908134
2430,10,-45,1,-2,0,-1,-2,11,0.863281,-0.136719,0.301758,15,41.9375,28.4375,-0.358622,-1.277,0.908134
2451,-11,-24,-6,-2,0,-1,-24,5,0.863281,-0.136719,0.301758,15,41.9375,28.4375,-0.358622,-1.277,0.908134
2451,17,-31,-7,-7,-4,-1,28,67,0.863281,-0.136719,0.301758,15,41.9375,28.4375,-0.358622,-1.277,0.908134
2452,-3,-26,-3,-2,-3,-4,-2,-22,0.884766,-0.107422,0.326172,23.9375,41.25,28.625,-0.362634,-1.25831,0.921038
2452,4,22,-1,0,-2,0,3,-13,0.884766,-0.107422,0.326172,23.9375,41.25,28.625,-0.362634,-1.25831,0.921038
2464,3,65,5,2,1,2,-7,35,0.884766,-0.107422,0.326172,23.9375,41.25,28.625,-0.362634,-1.25831,0.921038
2464,9,62,0,1,1,4,59,0,0.884766,-0.107422,0.326172,23.9375,41.25,28.625,-0.362634,-1.25831,0.921038
2473,1,-9,2,3,2,-2,-11,-2,0.84082,-0.204102,0.338379,12.75,40.9375,36.625,-0.38339,-1.23807,0.947125
2473,-3,-2,-5,-1,0,0,-1,2,0.84082,-0.204102,0.338379,12.75,40.9375,36.625,-0.38339,-1.23807,0.947125
2489,1,-1,-6,-4,-7,-3,-2,2,0.84082,-0.204102,0.338379,12.75,40.9375,36.625,-0.38339,-1.23807,0.947125
2489,-3,-4,-1,-2,-2,-5,-12,-4,0.84082,-0.204102,0.338379,12.75,40.9375,36.625,-0.38339,-1.23807,0.947125
2490,-3,1,-1,1,1,4,3,-8,0.855957,-0.227051,0.338867,7.5625,37.25,40.75,-0.408715,-1.21884,0.976347
2490,-3,-16,-5,-2,-4,-5,9,6,0.855957,-0.227051,0.338867,7.5625,37.25,40.75,-0.408715,-1.21884,0.976347
2511,8,6,0,0,1,3,-3,6,0.855957,-0.227051,0.338867,7.5625,37.25,40.75,-0.408715,-1.21884,0.976347
2511,5,2,-3,-2,-4,-3,-11,-10,0.855957,-0.227051,0.338867,7.5625,37.25,40.75,-0.408715,-1.21884,0.976347
2513,-4,17,3,0,-1,0,1,-20,0.835938,-0.314453,0.330078,11.875,33.375,54.25,-0.447325,-1.19802,1.02064
2513,-5,-2,3,0,2,-1,-1,17,0.835938,-0.314453,0.330078,11.875,33.375,54.25,-0.447325,-1.19802,1.02064
2525,-5,5,-11,-3,-2,-2,11,0,0.835938,-0.314453,0.330078,11.875,33.375,54.25,-0.447325,-1.19802,1.02064
2525,4,22,12,-1,-1,-3,-16,-2,0.835938,-0.314453,0.330078,11.875,33.375,54.25,-0.447325,-1.19802,1.02064
2541,3,-7,-10,1,-1,-1,-3,9,0.770996,-0.313477,0.346191,25.6875,30.5,59.5,-0.480421,-1.17631,1.06493
2541,-6,-59,0,-6,-3,-2,-3,-3,0.770996,-0.313477,0.346191,25.6875,30.5,59.5,-0.480421,-1.17631,1.06493
2549,-1,-123,-13,-5,0,-1,1,-10,0.770996,-0.313477,0.346191,25.6875,30.5,59.5,-0.480421,-1.17631,1.06493
2549,22,-128,-16,-11,-1,2,5,11,0.770996,-0.313477,0.346191,25.6875,30.5,59.5,-0.480421,-1.17631,1.06493
2550,-14,28,51,18,5,-4,-7,-25,0.70459,-0.337891,0.364258,40.5,24.0625,55.75,-0.50454,-1.15575,1.10519
2550,-5,3,52,17,5,4,2,3,0.70459,-0.337891,0.364258,40.5,24.0625,55.75,-0.50454,-1.15575,1.10519
2571,-14,77,-35,-19,-12,-10,0,-24,0.70459,-0.337891,0.364258,40.5,24.0625,55.75,-0.50454,-1.15575,1.10519
2571,54,117,26,12,0,-2,-22,13,0.70459,-0.337891,0.364258,40.5,24.0625,55.75,-0.50454,-1.15575,1.10519
2573,37,98,-3,-14,-2,5,22,26,0.79541,-0.259277,0.435547,39.5,19,51.8125,-0.519154,-1.13802,1.1363
2573,-51,92,-38,4,0,-3,-1,-20,0.79541,-0.259277,0.435547,39.5,19,51.8125,-0.519154,-1.13802,1.1363
2585,23,13,64,3,4,2,5,27,0.79541,-0.259277,0.435547,39.5,19,51.8125,-0.519154,-1.13802,1.1363
2585,-39,-21,-19,-14,-3,-5,-5,-21,0.79541,-0.259277,0.435547,39.5,19,51.8125,-0.519154,-1.13802,1.1363
2593,4,6,-26,-8,-6,-7,-10,-7,0.835449,-0.321289,0.415039,26.1875,19.3125,52.375,-0.539772,-1.12028,1.16839
2593,20,17,13,6,3,3,-4,3,0.835449,-0.321289,0.415039,26.1875,19.3125,52.375,-0.539772,-1.12028,1.16839
2610,-12,22,6,26,16,9,8,0,0.835449,-0.321289,0.415039,26.1875,19.3125,52.375,-0.539772,-1.12028,1.16839
2610,27,23,-17,6,3,1,2,2,0.835449,-0.321289,0.415039,26.1875,19.3125,52.375,-0.539772,-1.12028,1.16839
2612,-18,-17,10,-4,-3,-2,2,-3,0.773926,-0.442383,0.355957,19.875,16.5,61.1875,-0.573417,-1.10106,1.21148
2612,-17,-5,1,-12,-9,-3,-6,1,0.773926,-0.442383,0.355957,19.875,16.5,61.1875,-0.573417,-1.10106,1.21148
2631,8,9,-4,-2,-1,0,-2,-8,0.773926,-0.442383,0.355957,19.875,16.5,61.1875,-0.573417,-1.10106,1.21148
2631,-15,-44,10,-2,-3,-5,-7,6,0.773926,-0.442383,0.355957,19.875,16.5,61.1875,-0.573417,-1.10106,1.21148
2633,1,37,-12,-1,0,1,-3,-11,0.760742,-0.457031,0.42041,27.375,3.75,66.3125,-0.607009,-1.08278,1.25837
2633,7,-71,-29,-8,-6,-5,-7,-10,0.760742,-0.457031,0.42041,27.375,3.75,66.3125,-0.607009,-1.08278,1.25837
2645,-1,-6,29,4,-2,-1,0,2,0.760742,-0.457031,0.42041,27.375,3.75,66.3125,-0.607009,-1.08278,1.25837
2645,2,-24,-62,-9,-10,-6,-17,-28,0.760742,-0.457031,0.42041,27.375,3.75,66.3125,-0.607009,-1.08278,1.25837
2654,-2,-40,-29,-10,-1,1,2,43,0.753418,-0.47168,0.568359,73.1875,-4.4375,63.0625,-0.619393,-1.06459,1.30072
2654,42,53,82,27,7,0,16,51,0.753418,-0.47168,0.568359,73.1875,-4.4375,63.0625,-0.619393,-1.06459,1.30072
2668,71,-33,-14,-22,-12,-6,-4,-7,0.753418,-0.47168,0.568359,73.1875,-4.4375,63.0625,-0.619393,-1.06459,1.30072
2668,-125,-11,-10,-29,-3,1,5,-21,0.753418,-0.47168,0.568359,73.1875,-4.4375,63.0625,-0.619393,-1.06459,1.30072
2669,29,-22,-11,-6,-2,-1,0,20,0.782227,-0.348145,0.732422,113.562,-8.6875,53.5625,-0.608539,-1.0544,1.3342
2669,16,26,14,30,25,9,10,11,0.782227,-0.348145,0.732422,113.562,-8.6875,53.5625,-0.608539,-1.0544,1.3342
2691,-8,-8,20,35,9,0,-3,-13,0.782227,-0.348145,0.732422,113.562,-8.6875,53.5625,-0.608539,-1.0544,1.3342
2691,-66,25,4,12,-3,5,9,24,0.782227,-0.348145,0.732422,113.562,-8.6875,53.5625,-0.608539,-1.0544,1.3342
2693,66,-10,-11,-16,-8,3,36,64,0.788574,-0.295898,0.702148,94.1875,-21.4375,55.4375,-0.603051,-1.04322,1.368
2693,-11,-15,0,-11,-8,-1,-8,-81,0.788574,-0.295898,0.702148,94.1875,-21.4375,55.4375,-0.603051,-1.04322,1.368
2704,-83,23,-7,-23,-4,-5,-14,-36,0.788574,-0.295898,0.702148,94.1875,-21.4375,55.4375,-0.603051,-1.04322,1.368
2704,-66,-22,-4,-14,-28,-17,14,37,0.788574,-0.295898,0.702148,94.1875,-21.4375,55.4375,-0.603051,-1.04322,1.368
2713,64,53,34,-37,-17,-15,-39,-84,0.962402,-0.282227,0.903809,58.375,-41.1875,56.625,-0.610534,-1.0366,1.40439
2713,-34,25,-53,-38,2,18,75,92,0.962402,-0.282227,0.903809,58.375,-41.1875,56.625,-0.610534,-1.0366,1.40439
2728,-37,34,-36,26,-42,-41,-87,-88,0.962402,-0.282227,0.903809,58.375,-41.1875,56.625,-0.610534,-1.0366,1.40439
2728,38,49,-27,-42,-29,-24,-32,-11,0.962402,-0.282227,0.903809,58.375,-41.1875,56.625,-0.610534,-1.0366,1.40439
2730,-21,-128,51,20,15,-3,-40,15,1.56934,-0.711426,1.1084,78.25,-27.625,57.4375,-0.617094,-1.02495,1.44467
2730,-52,-84,-40,-8,6,-5,80,-6,1.56934,-0.711426,1.1084,78.25,-27.625,57.4375,-0.617094,-1.02495,1.44467
2751,110,91,12,-90,-20,53,7,20,1.56934,-0.711426,1.1084,78.25,-27.625,57.4375,-0.617094,-1.02495,1.44467
2751,-82,125,12,121,-90,-33,-34,-42,1.56934,-0.711426,1.1084,78.25,-27.625,57.4375,-0.617094,-1.02495,1.44467
2753,109,127,-12,-48,61,16,93,47,2.6167,-0.811035,1.12061,37.125,33.875,75.6875,-0.627641,-0.999995,1.47237
2753,-95,-84,4,108,41,69,-128,-36,2.6167,-0.811035,1.12061,37.125,33.875,75.6875,-0.627641,-0.999995,1.47237
2765,25,-128,33,-50,52,-6,59,-7,2.6167,-0.811035,1.12061,37.125,33.875,75.6875,-0.627641,-0.999995,1.47237
2765,127,-128,35,56,-34,-34,-101,16,2.6167,-0.811035,1.12061,37.125,33.875,75.6875,-0.627641,-0.999995,1.47237
2774,-99,-102,10,-66,-88,40,103,-50,1.68994,-0.820801,0.477539,-19.5,39.375,106.438,-0.670148,-0.968046,1.51388
2774,10,91,-23,-1,96,0,-89,-16,1.68994,-0.820801,0.477539,-19.5,39.375,106.438,-0.670148,-0.968046,1.51388
2788,-59,110,-70,94,48,-43,-35,29,1.68994,-0.820801,0.477539,-19.5,39.375,106.438,-0.670148,-0.968046,1.51388
2788,127,-60,61,-71,60,-37,77,76,1.68994,-0.820801,0.477539,-19.5,39.375,106.438,-0.670148,-0.968046,1.51388
2790,-128,-6,-86,-52,-47,-112,-118,-76,-0.247559,-0.0585938,-0.998047,78.8125,-47.6875,77.75,-0.717169,-0.974733,1.59322
2790,103,-30,-52,17,42,-111,41,51,-0.247559,-0.0585938,-0.998047,78.8125,-47.6875,77.75,-0.717169,-0.974733,1.59322
2821,6,20,45,127,115,127,59,39,-0.247559,-0.0585938,-0.998047,78.8125,-47.6875,77.75,-0.717169,-0.974733,1.59322
2821,-87,127,53,62,122,56,-61,-73,-0.247559,-0.0585938,-0.998047,78.8125,-47.6875,77.75,-0.717169,-0.974733,1.59322
2822,107,96,72,127,-69,53,72,69,1.25635,-0.228027,-0.36084,151,-95.375,11.25,-0.706525,-1.00233,1.64205
2822,-90,127,-5,-117,-128,-59,47,-98,1.25635,-0.228027,-0.36084,151,-95.375,11.25,-0.706525,-1.00233,1.64205
2826,77,120,-39,-128,-128,-128,-68,25,1.25635,-0.228027,-0.36084,151,-95.375,11.25,-0.706525,-1.00233,1.64205
2826,38,58,-49,-89,-70,-88,43,39,1.25635,-0.228027,-0.36084,151,-95.375,11.25,-0.706525,-1.00233,1.64205
2827,-79,8,-50,-61,68,-20,-56,-74,2.24463,0.905762,-0.42334,62.8125,15.5625,-34.9375,-0.66416,-1.00559,1.61772
2827,117,32,10,36,-82,30,-28,50,2.24463,0.905762,-0.42334,62.8125,15.5625,-34.9375,-0.66416,-1.00559,1.61772
2841,-51,-79,59,127,126,58,25,32,2.24463,0.905762,-0.42334,62.8125,15.5625,-34.9375,-0.66416,-1.00559,1.61772
2841,45,38,71,18,40,96,29,-23,2.24463,0.905762,-0.42334,62.8125,15.5625,-34.9375,-0.66416,-1.00559,1.61772
2848,-8,-41,14,-22,-31,-1,-73,32,0.686523,0.32373,0.227539,-143.312,53.0625,-78.0625,-0.657644,-1.01014,1.55244
2848,29,-54,23,-21,-71,-11,28,51,0.686523,0.32373,0.227539,-143.312,53.0625,-78.0625,-0.657644,-1.01014,1.55244
2863,-56,17,-58,-52,-77,-42,-24,-68,0.686523,0.32373,0.227539,-143.312,53.0625,-78.0625,-0.657644,-1.01014,1.55244
2863,106,-31,16,13,-2,9,64,45,0.686523,0.32373,0.227539,-143.312,53.0625,-78.0625,-0.657644,-1.01014,1.55244
2865,58,-38,-27,-12,-27,-7,30,-6,1.93066,-0.442383,0.644043,-111.375,64.5625,1.3125,-0.674699,-0.994543,1.52676
2865,-91,-62,10,-48,18,-12,-15,-32,1.93066,-0.442383,0.644043,-111.375,64.5625,1.3125,-0.674699,-0.994543,1.52676
2877,75,-85,-11,-107,-53,-2,42,57,1.93066,-0.442383,0.644043,-111.375,64.5625,1.3125,-0.674699,-0.994543,1.52676
2877,-14,-90,-48,-81,-70,0,-17,-45,1.93066,-0.442383,0.644043,-111.375,64.5625,1.3125,-0.674699,-0.994543,1.52676
2886,15,-63,33,70,101,1,75,38,1.60303,-0.380371,0.541992,6.9375,77.5625,10.25,-0.650608,-0.979645,1.50115
2886,-44,-30,0,7,6,23,-89,4,1.60303,-0.380371,0.541992,6.9375,77.5625,10.25,-0.650608,-0.979645,1.50115
2901,-21,-31,38,66,66,0,26,-22,1.60303,-0.380371,0.541992,6.9375,77.5625,10.25,-0.650608,-0.979645,1.50115
2901,15,-39,-41,-23,-37,-20,-9,20,1.60303,-0.380371,0.541992,6.9375,77.5625,10.25,-0.650608,-0.979645,1.50115
2907,-78,-32,-4,-16,29,1,18,13,1.26318,-0.16748,0.453125,9.1875,89.3125,-6.9375,-0.612345,-0.964228,1.46067
2907,3,52,-24,-1,28,38,-34,-36,1.26318,-0.16748,0.453125,9.1875,89.3125,-6.9375,-0.612345,-0.964228,1.46067
2923,-23,90,38,5,16,3,-8,-1,1.26318,-0.16748,0.453125,9.1875,89.3125,-6.9375,-0.612345,-0.964228,1.46067
2923,-112,122,-2,70,4,1,-42,-67,1.26318,-0.16748,0.453125,9.1875,89.3125,-6.9375,-0.612345,-0.964228,1.46067
2925,-29,24,-24,-21,-38,-1,9,4,1.0127,-0.268555,0.400391,-54.1875,99.8125,-6.8125,-0.600446,-0.942053,1.42295
2925,-51,42,16,-51,-52,-23,83,-19,1.0127,-0.268555,0.400391,-54.1875,99.8125,-6.8125,-0.600446,-0.942053,1.42295
2937,49,-17,-11,-58,-64,-23,-69,-7,1.0127,-0.268555,0.400391,-54.1875,99.8125,-6.8125,-0.600446,-0.942053,1.42295
2937,44,-55,-30,11,84,-15,-21,11,1.0127,-0.268555,0.400391,-54.1875,99.8125,-6.8125,-0.600446,-0.942053,1.42295
2946,61,20,21,126,82,59,-19,-3,0.726562,-0.494629,0.411621,-64.5,106.75,8.375,-0.59994,-0.909265,1.39339
2946,29,-5,15,15,-15,-35,15,-16,0.726562,-0.494629,0.411621,-64.5,106.75,8.375,-0.59994,-0.909265,1.39339
2967,24,-39,-42,-108,-84,-14,0,25,0.726562,-0.494629,0.411621,-64.5,106.75,8.375,-0.59994,-0.909265,1.39339
2967,-13,-26,-15,-58,-61,-40,-38,25,0.726562,-0.494629,0.411621,-64.5,106.75,8.375,-0.59994,-0.909265,1.39339
2976,-67,-36,-10,-25,4,84,45,-20,0.369629,-0.505859,0.397949,-35.5,113.5,17.0625,-0.592791,-0.871747,1.36737
2976,64,-35,29,101,121,17,-22,18,0.369629,-0.505859,0.397949,-35.5,113.5,17.0625,-0.592791,-0.871747,1.36737
2991,16,-128,17,47,23,34,87,28,0.369629,-0.505859,0.397949,-35.5,113.5,17.0625,-0.592791,-0.871747,1.36737
2991,-43,-49,-7,-47,-30,-30,-35,-15,0.369629,-0.505859,0.397949,-35.5,113.5,17.0625,-0.592791,-0.871747,1.36737
2993,-9,26,3,10,-36,-87,-93,10,0.17627,-0.372559,0.425293,-26.125,124.062,4,-0.576595,-0.833046,1.33325
2993,-29,9,-29,-63,-22,0,-8,-8,0.17627,-0.372559,0.425293,-26.125,124.062,4,-0.576595,-0.833046,1.33325
3013,-50,15,21,51,61,-12,-8,-18,0.17627,-0.372559,0.425293,-26.125,124.062,4,-0.576595,-0.833046,1.33325
3013,2,1,-9,-7,-37,17,42,7,0.17627,-0.372559,0.425293,-26.125,124.062,4,-0.576595,-0.833046,1.33325
3015,17,45,11,-62,7,-15,-52,-16,0.179688,-0.418945,0.48291,-18.75,133,-7.4375,-0.555227,-0.793322,1.29442
3015,-4,10,-23,53,40,25,5,8,0.179688,-0.418945,0.48291,-18.75,133,-7.4375,-0.555227,-0.793322,1.29442
3028,39,63,20,59,-11,-5,1,11,0.179688,-0.418945,0.48291,-18.75,133,-7.4375,-0.555227,-0.793322,1.29442
3028,-5,21,-9,-38,5,-10,30,5,0.179688,-0.418945,0.48291,-18.75,133,-7.4375,-0.555227,-0.793322,1.29442
3030,31,-29,-19,-11,-17,-14,-5,-23,0.267578,-0.34668,0.462891,-2.0625,128.625,-0.875,-0.533563,-0.753815,1.26203
3030,-32,-86,-23,-31,-18,17,-20,-9,0.267578,-0.34668,0.462891,-2.0625,128.625,-0.875,-0.533563,-0.753815,1.26203
3051,-13,-72,15,37,-5,14,34,4,0.267578,-0.34668,0.462891,-2.0625,128.625,-0.875,-0.533563,-0.753815,1.26203
3051,20,-56,11,30,21,-29,-59,-4,0.267578,-0.34668,0.462891,-2.0625,128.625,-0.875,-0.533563,-0.753815,1.26203
3053,12,-101,-21,-99,-91,47,51,-10,0.342773,-0.328613,0.396973,-9.3125,116.312,6.5625,-0.5208,-0.717099,1.23753
3053,66,-47,17,52,83,-17,-42,28,0.342773,-0.328613,0.396973,-9.3125,116.312,6.5625,-0.5208,-0.717099,1.23753
3065,-80,6,-26,-14,-27,27,40,-13,0.342773,-0.328613,0.396973,-9.3125,116.312,6.5625,-0.5208,-0.717099,1.23753
3065,-19,84,47,45,37,26,-26,-16,0.342773,-0.328613,0.396973,-9.3125,116.312,6.5625,-0.5208,-0.717099,1.23753
3073,-21,89,6,-14,0,-48,-46,-2,0.279785,-0.375488,0.435059,-13.9375,108.25,6.1875,-0.512404,-0.682366,1.21625
3073,27,78,-1,-6,-56,-10,7,4,0.279785,-0.375488,0.435059,-13.9375,108.25,6.1875,-0.512404,-0.682366,1.21625
3096,-6,57,3,-20,20,5,-9,-15,0.279785,-0.375488,0.435059,-13.9375,108.25,6.1875,-0.512404,-0.682366,1.21625
3096,19,55,-28,18,-29,12,35,33,0.279785,-0.375488,0.435059,-13.9375,108.25,6.1875,-0.512404,-0.682366,1.21625
3097,-41,9,-35,26,62,-8,11,-7,0.251465,-0.439941,0.457031,0.3125,109.375,2.5625,-0.499626,-0.64751,1.19442
3097,1,9,-12,-33,-44,-20,0,1,0.251465,-0.439941,0.457031,0.3125,109.375,2.5625,-0.499626,-0.64751,1.19442
3111,61,15,-16,-69,35,6,-15,20,0.251465,-0.439941,0.457031,0.3125,109.375,2.5625,-0.499626,-0.64751,1.19442
3111,-15,-5,20,92,61,67,58,6,0.251465,-0.439941,0.457031,0.3125,109.375,2.5625,-0.499626,-0.64751,1.19442
3113,-38,7,28,56,-14,7,-51,-34,0.205566,-0.400879,0.429688,7.875,102.75,5.8125,-0.486948,-0.614018,1.17637
3113,8,-31,11,-68,-33,-80,-4,-2,0.205566,-0.400879,0.429688,7.875,102.75,5.8125,-0.486948,-0.614018,1.17637
3133,8,-94,-1,80,76,61,-44,-4,0.205566,-0.400879,0.429688,7.875,102.75,5.8125,-0.486948,-0.614018,1.17637
3133,-5,-70,17,-60,-82,-25,18,-3,0.205566,-0.400879,0.429688,7.875,102.75,5.8125,-0.486948,-0.614018,1.17637
3140,9,-33,-18,-49,5,-62,-23,15,0.224121,-0.337402,0.46582,-15,86.125,-0.8125,-0.484753,-0.58435,1.16037
3140,53,38,0,67,-66,80,-33,-10,0.224121,-0.337402,0.46582,-15,86.125,-0.8125,-0.484753,-0.58435,1.16037
3148,-21,73,-17,-128,-103,-80,-20,9,0.224121,-0.337402,0.46582,-15,86.125,-0.8125,-0.484753,-0.58435,1.16037
3148,-67,69,38,12,68,40,-28,-45,0.224121,-0.337402,0.46582,-15,86.125,-0.8125,-0.484753,-0.58435,1.16037
3155,55,60,-27,127,113,33,9,16,0.369629,-0.370117,0.54834,-19,85.0625,2.4375,-0.485032,-0.556796,1.14597
3155,18,30,-23,-69,-37,-36,13,3,0.369629,-0.370117,0.54834,-19,85.0625,2.4375,-0.485032,-0.556796,1.14597
3171,-32,-8,25,82,4,-11,5,-6,0.369629,-0.370117,0.54834,-19,85.0625,2.4375,-0.485032,-0.556796,1.14597
3171,59,14,-23,-28,5,44,87,26,0.369629,-0.370117,0.54834,-19,85.0625,2.4375,-0.485032,-0.556796,1.14597
3173,-37,-99,12,-73,-87,-53,-44,4,0.257812,-0.276855,0.563965,-10.4375,77.5625,7.125,-0.48197,-0.529379,1.13353
3173,-31,-61,-20,12,41,-15,86,-3,0.257812,-0.276855,0.563965,-10.4375,77.5625,7.125,-0.48197,-0.529379,1.13353
3193,32,-14,-39,-12,5,16,-117,-44,0.257812,-0.276855,0.563965,-10.4375,77.5625,7.125,-0.48197,-0.529379,1.13353
3193,-19,12,18,-57,-27,-31,-31,-18,0.257812,-0.276855,0.563965,-10.4375,77.5625,7.125,-0.48197,-0.529379,1.13353
3195,2,53,47,101,80,-4,-42,10,0.266602,-0.243652,0.594238,0.5625,70.0625,3.8125,-0.47441,-0.505153,1.12122
3195,49,22,16,-19,71,107,97,33,0.266602,-0.243652,0.594238,0.5625,70.0625,3.8125,-0.47441,-0.505153,1.12122
3200,-21,20,10,37,-28,-44,-24,1,0.266602,-0.243652,0.594238,0.5625,70.0625,3.8125,-0.47441,-0.505153,1.12122
3200,25,-6,-39,-70,-95,86,86,19,0.266602,-0.243652,0.594238,0.5625,70.0625,3.8125,-0.47441,-0.505153,1.12122
3208,82,23,7,40,57,8,-34,11,0.412109,-0.245605,0.615234,-17.75,62.9375,3.875,-0.474145,-0.486423,1.11037
3208,-24,19,23,-19,23,10,-17,25,0.412109,-0.245605,0.615234,-17.75,62.9375,3.875,-0.474145,-0.486423,1.11037
3231,-16,11,11,36,-10,-57,-34,-52,0.412109,-0.245605,0.615234,-17.75,62.9375,3.875,-0.474145,-0.486423,1.11037
3231,31,-7,57,14,37,-43,12,6,0.412109,-0.245605,0.615234,-17.75,62.9375,3.875,-0.474145,-0.486423,1.11037
3233,-5,-18,-86,-128,-128,25,38,-4,0.38623,-0.338379,0.648438,-25.375,59.75,-1.8125,-0.477807,-0.468554,1.09899
3233,48,1,-8,44,-77,-52,-77,2,0.38623,-0.338379,0.648438,-25.375,59.75,-1.8125,-0.477807,-0.468554,1.09899
3254,-31,-10,26,23,71,2,47,15,0.38623,-0.338379,0.648438,-25.375,59.75,-1.8125,-0.477807,-0.468554,1.09899
3254,3,-17,15,127,117,27,-19,3,0.38623,-0.338379,0.648438,-25.375,59.75,-1.8125,-0.477807,-0.468554,1.09899
3255,-22,-23,41,-8,4,24,65,-16,0.228027,-0.333008,0.677734,-5.125,57.6875,-5.125,-0.473852,-0.448451,1.08685
3255,-5,-10,-45,-80,-34,-15,-25,0,0.228027,-0.333008,0.677734,-5.125,57.6875,-5.125,-0.473852,-0.448451,1.08685
3267,-11,-12,-12,-102,-121,-16,17,3,0.228027,-0.333008,0.677734,-5.125,57.6875,-5.125,-0.473852,-0.448451,1.08685
3267,-3,-20,-29,-82,-72,-40,21,0,0.228027,-0.333008,0.677734,-5.125,57.6875,-5.125,-0.473852,-0.448451,1.08685
3275,-44,-3,-11,-16,37,-35,-73,-6,0.124023,-0.334961,0.750977,-9.375,49.125,-5.1875,-0.471488,-0.428363,1.07595
3275,-10,10,60,94,84,17,-97,-19,0.124023,-0.334961,0.750977,-9.375,49.125,-5.1875,-0.471488,-0.428363,1.07595
3291,29,-31,-26,-21,32,99,78,23,0.124023,-0.334961,0.750977,-9.375,49.125,-5.1875,-0.471488,-0.428363,1.07595
3291,36,26,28,92,72,-41,-53,30,0.124023,-0.334961,0.750977,-9.375,49.125,-5.1875,-0.471488,-0.428363,1.07595
3293,-29,-10,-8,-71,-128,-10,3,-26,0.198242,-0.369141,0.798828,-19.1875,46.5625,-4.25,-0.47338,-0.410466,1.06603
3293,-27,-23,-43,-128,-72,-54,-26,-25,0.198242,-0.369141,0.798828,-19.1875,46.5625,-4.25,-0.47338,-0.410466,1.06603
3314,46,21,63,124,113,8,2,7,0.198242,-0.369141,0.798828,-19.1875,46.5625,-4.25,-0.47338,-0.410466,1.06603
3314,-10,-14,-47,42,81,19,-3,-3,0.198242,-0.369141,0.798828,-19.1875,46.5625,-4.25,-0.47338,-0.410466,1.06603
3315,41,15,65,46,8,19,30,6,0.207031,-0.334961,0.830566,-15.1875,40,3.25,-0.474182,-0.393732,1.05927
3315,-27,-26,-83,-83,-80,-19,26,-19,0.207031,-0.334961,0.830566,-15.1875,40,3.25,-0.474182,-0.393732,1.05927
3328,-54,-32,-81,-128,-63,-56,-10,0,0.207031,-0.334961,0.830566,-15.1875,40,3.25,-0.474182,-0.393732,1.05927
3328,-8,-14,-6,66,23,5,-38,-12,0.207031,-0.334961,0.830566,-15.1875,40,3.25,-0.474182,-0.393732,1.05927
3336,73,14,29,-54,-25,-11,-5,26,0.166992,-0.278809,0.848145,-0.0625,34.4375,8.375,-0.469458,-0.377571,1.05489
3336,-61,-1,14,87,63,17,17,-10,0.166992,-0.278809,0.848145,-0.0625,34.4375,8.375,-0.469458,-0.377571,1.05489
3351,-14,4,13,59,34,-23,-24,15,0.166992,-0.278809,0.848145,-0.0625,34.4375,8.375,-0.469458,-0.377571,1.05489
3351,-20,-17,-41,-128,-115,-52,-50,-19,0.166992,-0.278809,0.848145,-0.0625,34.4375,8.375,-0.469458,-0.377571,1.05489
3353,-38,-4,-20,-2,116,88,25,-7,0.209473,-0.251953,0.862305,-2,31.625,7.25,-0.464722,-0.363642,1.05041
3353,39,7,59,84,8,27,1,-7,0.209473,-0.251953,0.862305,-2,31.625,7.25,-0.464722,-0.363642,1.05041
3374,-22,1,-21,-122,-106,-88,22,-1,0.209473,-0.251953,0.862305,-2,31.625,7.25,-0.464722,-0.363642,1.05041
3374,-18,-11,-2,-6,113,95,91,-14,0.209473,-0.251953,0.862305,-2,31.625,7.25,-0.464722,-0.363642,1.05041
3375,17,10,9,-4,-21,-13,-14,10,0.291992,-0.320312,0.852051,-11.4375,31.9375,5.125,-0.465032,-0.351981,1.04589
3375,27,3,15,44,32,-13,-14,3,0.291992,-0.320312,0.852051,-11.4375,31.9375,5.125,-0.465032,-0.351981,1.04589
3387,8,27,46,100,21,-25,-15,13,0.291992,-0.320312,0.852051,-11.4375,31.9375,5.125,-0.465032,-0.351981,1.04589
3387,10,-2,54,-48,-93,-22,-15,-20,0.291992,-0.320312,0.852051,-11.4375,31.9375,5.125,-0.465032,-0.351981,1.04589
3396,-26,-16,-63,-65,-9,-21,-18,-15,0.272949,-0.459473,0.864746,-3.75,34.3125,-1.4375,-0.464741,-0.33973,1.0399
3396,1,-7,14,-24,15,-5,8,17,0.272949,-0.459473,0.864746,-3.75,34.3125,-1.4375,-0.464741,-0.33973,1.0399
3411,53,-6,-84,-9,-105,-19,-22,3,0.272949,-0.459473,0.864746,-3.75,34.3125,-1.4375,-0.464741,-0.33973,1.0399
3411,-37,-10,-47,-82,-74,-32,-40,-9,0.272949,-0.459473,0.864746,-3.75,34.3125,-1.4375,-0.464741,-0.33973,1.0399
3413,-56,13,19,127,110,50,16,19,0.238281,-0.387695,0.770508,19.6875,31.3125,2.9375,-0.456778,-0.328196,1.03583
3413,28,9,62,-49,-41,-37,24,0,0.238281,-0.387695,0.770508,19.6875,31.3125,2.9375,-0.456778,-0.328196,1.03583
3434,-9,-31,-85,-101,-50,-30,-7,-15,0.238281,-0.387695,0.770508,19.6875,31.3125,2.9375,-0.456778,-0.328196,1.03583
3434,2,9,22,53,84,80,6,11,0.238281,-0.387695,0.770508,19.6875,31.3125,2.9375,-0.456778,-0.328196,1.03583
3435,26,7,-14,54,23,-74,-17,19,0.258789,-0.338379,0.776367,9.125,29.4375,6.625,-0.451799,-0.317558,1.03303
3435,71,9,21,81,1,-51,6,10,0.258789,-0.338379,0.776367,9.125,29.4375,6.625,-0.451799,-0.317558,1.03303
3447,-35,6,43,32,82,127,47,-8,0.258789,-0.338379,0.776367,9.125,29.4375,6.625,-0.451799,-0.317558,1.03303
3447,12,-6,-14,27,-55,-66,-38,-6,0.258789,-0.338379,0.776367,9.125,29.4375,6.625,-0.451799,-0.317558,1.03303
3456,25,2,0,-38,-33,-48,-10,-7,0.274902,-0.45752,0.808594,-9.9375,30.5,4.0625,-0.455602,-0.306884,1.0299
3456,-7,2,-19,-102,-74,48,2,1,0.274902,-0.45752,0.808594,-9.9375,30.5,4.0625,-0.455602,-0.306884,1.0299
3470,32,5,44,-75,0,-10,22,-6,0.304199,-0.489258,0.807617,-3.5,30,1.75,-0.457659,-0.297533,1.02626
3470,-98,-21,5,127,81,-14,-9,-13,0.304199,-0.489258,0.807617,-3.5,30,1.75,-0.457659,-0.297533,1.02626
3471,68,-5,-57,39,9,23,14,18,0.304199,-0.489258,0.807617,-3.5,30,1.75,-0.457659,-0.297533,1.02626
3471,-80,4,61,-2,-14,-32,-12,-38,0.304199,-0.489258,0.807617,-3.5,30,1.75,-0.457659,-0.297533,1.02626
3492,-20,-17,-34,-66,-71,-10,-14,-12,0.255859,-0.38916,0.790039,5.5,28.375,4.875,-0.454975,-0.287734,1.02336
3492,14,6,-21,-70,-20,21,63,14,0.255859,-0.38916,0.790039,5.5,28.375,4.875,-0.454975,-0.287734,1.02336
3493,-14,-8,-18,72,41,9,-14,-4,0.255859,-0.38916,0.790039,5.5,28.375,4.875,-0.454975,-0.287734,1.02336
3493,11,-16,-65,-25,-23,11,16,19,0.255859,-0.38916,0.790039,5.5,28.375,4.875,-0.454975,-0.287734,1.02336
3517,-19,17,56,18,11,12,-2,15,0.251953,-0.365723,0.810547,-1.75,25.8125,7.6875,-0.454335,-0.278451,1.02149
3517,37,-4,-35,-29,-95,-47,-21,-9,0.251953,-0.365723,0.810547,-1.75,25.8125,7.6875,-0.454335,-0.278451,1.02149
3517,-27,-6,-4,-66,-14,-32,-47,-20,0.251953,-0.365723,0.810547,-1.75,25.8125,7.6875,-0.454335,-0.278451,1.02149
3517,8,-7,-19,63,87,12,-16,14,0.251953,-0.365723,0.810547,-1.75,25.8125,7.6875,-0.454335,-0.278451,1.02149
3530,-15,-7,13,45,37,45,4,-9,0.33252,-0.430176,0.84375,-6.9375,23.0625,8.1875,-0.456841,-0.271633,1.02065
3530,26,5,-2,-53,-88,-49,-11,-10,0.33252,-0.430176,0.84375,-6.9375,23.0625,8.1875,-0.456841,-0.271633,1.02065
3531,-38,-9,5,20,49,7,9,3,0.33252,-0.430176,0.84375,-6.9375,23.0625,8.1875,-0.456841,-0.271633,1.02065
3531,-17,-6,-11,-97,-55,75,-38,-18,0.33252,-0.430176,0.84375,-6.9375,23.0625,8.1875,-0.456841,-0.271633,1.02065
3552,11,7,35,125,110,-52,2,18,0.347656,-0.402344,0.848633,-6.125,20.3125,5.3125,-0.458185,-0.266574,1.01903
3552,23,35,49,11,15,14,10,10,0.347656,-0.402344,0.848633,-6.125,20.3125,5.3125,-0.458185,-0.266574,1.01903
3553,8,-9,84,-47,-65,-9,-17,-21,0.347656,-0.402344,0.848633,-6.125,20.3125,5.3125,-0.458185,-0.266574,1.01903
3553,7,3,-83,67,53,-3,6,21,0.347656,-0.402344,0.848633,-6.125,20.3125,5.3125,-0.458185,-0.266574,1.01903
3577,-34,-15,-32,-54,-63,-20,-94,-6,0.251953,-0.377441,0.82666,-0.75,18.625,0.0625,-0.457084,-0.260905,1.0159
3577,4,-15,-27,6,-22,-17,-5,-1,0.251953,-0.377441,0.82666,-0.75,18.625,0.0625,-0.457084,-0.260905,1.0159
3579,23,26,53,66,6,11,51,-2,0.251953,-0.377441,0.82666,-0.75,18.625,0.0625,-0.457084,-0.260905,1.0159
3579,-11,-11,9,-39,-39,-21,-46,-13,0.251953,-0.377441,0.82666,-0.75,18.625,0.0625,-0.457084,-0.260905,1.0159
3590,17,-9,-67,-57,-41,-65,-57,-7,0.250977,-0.371094,0.822754,-0.375,15,4.0625,-0.456135,-0.255897,1.01459
3590,6,16,14,72,104,40,-114,-4,0.250977,-0.371094,0.822754,-0.375,15,4.0625,-0.456135,-0.255897,1.01459
3591,-24,-12,28,25,-35,26,18,-23,0.250977,-0.371094,0.822754,-0.375,15,4.0625,-0.456135,-0.255897,1.01459
3591,31,14,96,-6,69,51,39,25,0.250977,-0.371094,0.822754,-0.375,15,4.0625,-0.456135,-0.255897,1.01459
3614,3,8,-26,-66,-2,-42,-68,-9,0.257324,-0.431641,0.817383,-9,12.625,3.3125,-0.459633,-0.251918,1.01385
3614,-24,-26,-46,-128,-110,39,76,-7,0.257324,-0.431641,0.817383,-9,12.625,3.3125,-0.459633,-0.251918,1.01385
3615,20,9,3,56,-13,42,104,34,0.257324,-0.431641,0.817383,-9,12.625,3.3125,-0.459633,-0.251918,1.01385
3615,-5,7,28,76,60,-7,-58,-1,0.257324,-0.431641,0.817383,-9,12.625,3.3125,-0.459633,-0.251918,1.01385
3636,-2,7,65,-34,55,20,-21,-6,0.299316,-0.504883,0.841797,-10.375,11.3125,2.5,-0.464836,-0.249084,1.01332
3636,-8,-12,-59,-63,20,-36,-97,5,0.299316,-0.504883,0.841797,-10.375,11.3125,2.5,-0.464836,-0.249084,1.01332
3636,11,6,-16,10,-62,-45,-33,-3,0.299316,-0.504883,0.841797,-10.375,11.3125,2.5,-0.464836,-0.249084,1.01332
3636,-20,-7,-25,-57,-28,-54,-38,-28,0.299316,-0.504883,0.841797,-10.375,11.3125,2.5,-0.464836,-0.249084,1.01332
3650,25,-2,-8,35,58,19,61,20,0.260254,-0.429688,0.831055,-3.875,12.875,3.25,-0.466175,-0.245164,1.01233
3650,11,-4,-1,56,44,4,48,-1,0.260254,-0.429688,0.831055,-3.875,12.875,3.25,-0.466175,-0.245164,1.01233
3651,-8,-9,-46,-58,-63,-27,-10,-19,0.260254,-0.429688,0.831055,-3.875,12.875,3.25,-0.466175,-0.245164,1.01233
3651,-41,0,-16,24,45,25,68,-20,0.260254,-0.429688,0.831055,-3.875,12.875,3.25,-0.466175,-0.245164,1.01233
3673,44,17,29,82,19,38,50,17,0.212402,-0.387695,0.838379,-8.375,12.6875,4.375,-0.468158,-0.240306,1.01152
3673,-7,-2,102,-33,4,-15,-34,13,0.212402,-0.387695,0.838379,-8.375,12.6875,4.375,-0.468158,-0.240306,1.01152
3674,8,-12,-64,50,84,-23,-45,6,0.212402,-0.387695,0.838379,-8.375,12.6875,4.375,-0.468158,-0.240306,1.01152
3674,16,-1,-6,2,-80,-43,73,11,0.212402,-0.387695,0.838379,-8.375,12.6875,4.375,-0.468158,-0.240306,1.01152
3688,-19,-4,-4,-39,21,17,-19,-11,0.274414,-0.436035,0.858398,-9.6875,15.3125,1.3125,-0.470979,-0.236205,1.00941
3688,47,8,1,83,39,-29,-33,29,0.274414,-0.436035,0.858398,-9.6875,15.3125,1.3125,-0.470979,-0.236205,1.00941
3696,-77,-2,49,-84,23,46,9,-37,0.274414,-0.436035,0.858398,-9.6875,15.3125,1.3125,-0.470979,-0.236205,1.00941
3696,-2,20,38,21,35,43,5,-5,0.274414,-0.436035,0.858398,-9.6875,15.3125,1.3125,-0.470979,-0.236205,1.00941
3710,-13,-16,-44,82,-28,35,29,-3,0.257324,-0.45166,0.895996,-9.125,15.125,-0.625,-0.473412,-0.23219,1.00668
3710,-20,-13,-21,-42,-85,-59,46,-27,0.257324,-0.45166,0.895996,-9.125,15.125,-0.625,-0.473412,-0.23219,1.00668
3711,-3,-4,-29,-128,3,-41,-46,-7,0.257324,-0.45166,0.895996,-9.125,15.125,-0.625,-0.473412,-0.23219,1.00668
3711,17,15,-61,96,37,36,-14,0,0.257324,-0.45166,0.895996,-9.125,15.125,-0.625,-0.473412,-0.23219,1.00668
3741,-18,-17,-1,-107,-94,-26,59,8,0.208496,-0.400879,0.876465,-1.8125,15.25,0.75,-0.472354,-0.226874,1.00425
3741,31,7,66,85,115,12,-7,21,0.208496,-0.400879,0.876465,-1.8125,15.25,0.75,-0.472354,-0.226874,1.00425
3742,19,7,8,-57,-84,-4,-40,-8,0.208496,-0.400879,0.876465,-1.8125,15.25,0.75,-0.472354,-0.226874,1.00425
3742,-1,-5,-25,17,3,-4,19,6,0.208496,-0.400879,0.876465,-1.8125,15.25,0.75,-0.472354,-0.226874,1.00425
3747,4,6,-12,2,-39,-76,2,-15,0.169434,-0.419434,0.874512,-1.3125,12.375,4.125,-0.472044,-0.221208,1.00334
3747,-14,-9,-28,5,71,72,44,-6,0.169434,-0.419434,0.874512,-1.3125,12.375,4.125,-0.472044,-0.221208,1.00334
3756,-35,-1,52,49,113,61,26,-4,0.169434,-0.419434,0.874512,-1.3125,12.375,4.125,-0.472044,-0.221208,1.00334
3756,86,7,4,-128,-128,-128,-103,37,0.169434,-0.419434,0.874512,-1.3125,12.375,4.125,-0.472044,-0.221208,1.00334
3771,-84,-16,21,56,72,80,-101,-46,0.208008,-0.452637,0.891602,-3.625,10.75,5.75,-0.473247,-0.216771,1.00346
3771,6,7,0,0,-29,34,39,3,0.208008,-0.452637,0.891602,-3.625,10.75,5.75,-0.473247,-0.216771,1.00346
3771,22,1,-11,0,-39,-6,-43,7,0.208008,-0.452637,0.891602,-3.625,10.75,5.75,-0.473247,-0.216771,1.00346
3771,12,-5,-13,22,16,46,6,2,0.208008,-0.452637,0.891602,-3.625,10.75,5.75,-0.473247,-0.216771,1.00346
3792,7,12,43,50,104,8,-35,-4,0.196777,-0.519531,0.873047,-3.1875,12.625,4.75,-0.475749,-0.211517,1.00319
3792,-1,1,84,-69,-93,-59,-53,-10,0.196777,-0.519531,0.873047,-3.1875,12.625,4.75,-0.475749,-0.211517,1.00319
3793,-35,-28,-103,-115,-81,-68,5,-18,0.196777,-0.519531,0.873047,-3.1875,12.625,4.75,-0.475749,-0.211517,1.00319
3793,-11,-1,20,76,95,27,-20,-1,0.196777,-0.519531,0.873047,-3.1875,12.625,4.75,-0.475749,-0.211517,1.00319
3816,11,17,56,-14,-29,-4,-8,-4,0.147461,-0.442383,0.827637,7,13.9375,4.5,-0.473599,-0.205224,1.00255
3816,-16,-2,-83,-62,1,6,18,-3,0.147461,-0.442383,0.827637,7,13.9375,4.5,-0.473599,-0.205224,1.00255
3817,13,13,63,93,5,-4,33,17,0.147461,-0.442383,0.827637,7,13.9375,4.5,-0.473599,-0.205224,1.00255
3817,6,-20,-32,0,35,5,9,16,0.147461,-0.442383,0.827637,7,13.9375,4.5,-0.473599,-0.205224,1.00255
3830,-23,-6,-4,-27,-31,1,-4,-30,0.166504,-0.37793,0.85498,6.75,11.375,4.5625,-0.469896,-0.200453,1.00186
3830,5,5,-39,-77,-104,-35,2,-2,0.166504,-0.37793,0.85498,6.75,11.375,4.5625,-0.469896,-0.200453,1.00186
3830,41,-4,5,-13,55,-53,-14,7,0.166504,-0.37793,0.85498,6.75,11.375,4.5625,-0.469896,-0.200453,1.00186
3830,-64,7,48,79,99,83,86,-2,0.166504,-0.37793,0.85498,6.75,11.375,4.5625,-0.469896,-0.200453,1.00186
3853,25,4,-25,-52,-87,-48,1,13,0.226562,-0.453613,0.880859,1.1875,10.9375,6.875,-0.469714,-0.196686,1.00229
3853,-32,-20,-1,-19,32,-9,-66,-28,0.226562,-0.453613,0.880859,1.1875,10.9375,6.875,-0.469714,-0.196686,1.00229
3853,12,25,27,93,61,2,-52,36,0.226562,-0.453613,0.880859,1.1875,10.9375,6.875,-0.469714,-0.196686,1.00229
3853,36,-15,-14,-122,-85,-23,60,-6,0.226562,-0.453613,0.880859,1.1875,10.9375,6.875,-0.469714,-0.196686,1.00229
3867,-22,12,36,30,45,-35,-76,3,0.144043,-0.470703,0.861328,-1.625,10.875,6.125,-0.470927,-0.191139,1.00265
3867,-9,7,6,103,96,94,92,15,0.144043,-0.470703,0.861328,-1.625,10.875,6.125,-0.470927,-0.191139,1.00265
3875,17,7,16,20,-5,26,25,11,0.144043,-0.470703,0.861328,-1.625,10.875,6.125,-0.470927,-0.191139,1.00265
3875,13,13,40,-85,-54,-28,-41,-24,0.144043,-0.470703,0.861328,-1.625,10.875,6.125,-0.470927,-0.191139,1.00265
3890,55,-6,-23,-78,-67,6,32,21,0.189453,-0.390625,0.816406,3.4375,7.6875,3.125,-0.469155,-0.188658,1.00225
3890,-43,-14,-59,15,-8,-50,-19,-26,0.189453,-0.390625,0.816406,3.4375,7.6875,3.125,-0.469155,-0.188658,1.00225
3891,5,-2,29,-20,-94,-6,30,9,0.189453,-0.390625,0.816406,3.4375,7.6875,3.125,-0.469155,-0.188658,1.00225
3891,-19,-1,16,-88,16,-27,-16,4,0.189453,-0.390625,0.816406,3.4375,7.6875,3.125,-0.469155,-0.188658,1.00225
3913,5,-1,-9,76,30,-50,-66,-14,0.195801,-0.401367,0.835938,3,7.6875,5.375,-0.467757,-0.185984,1.00274
3913,25,12,26,23,64,94,79,24,0.195801,-0.401367,0.835938,3,7.6875,5.375,-0.467757,-0.185984,1.00274
3914,12,0,5,-3,3,44,52,-2,0.195801,-0.401367,0.835938,3,7.6875,5.375,-0.467757,-0.185984,1.00274
3914,-63,-17,15,44,-43,-52,-63,-30,0.195801,-0.401367,0.835938,3,7.6875,5.375,-0.467757,-0.185984,1.00274
3937,36,6,-8,-80,34,22,55,-5,0.154297,-0.441895,0.846191,-3.25,7.625,1.0625,-0.468949,-0.182906,1.00184
3937,6,-4,-17,47,-11,-57,-88,-8,0.154297,-0.441895,0.846191,-3.25,7.625,1.0625,-0.468949,-0.182906,1.00184
3937,-68,-20,-20,32,-12,-11,-43,-26,0.154297,-0.441895,0.846191,-3.25,7.625,1.0625,-0.468949,-0.182906,1.00184
3937,33,11,27,-21,-90,-32,-23,10,0.154297,-0.441895,0.846191,-3.25,7.625,1.0625,-0.468949,-0.182906,1.00184
3950,7,-5,-57,18,59,16,37,16,0.146973,-0.437012,0.818359,3.25,8.3125,-0.75,-0.468047,-0.179864,1.00034
3950,21,32,89,-13,-61,1,-17,7,0.146973,-0.437012,0.818359,3.25,8.3125,-0.75,-0.468047,-0.179864,1.00034
3951,-3,18,-60,-85,-17,-17,-27,-4,0.146973,-0.437012,0.818359,3.25,8.3125,-0.75,-0.468047,-0.179864,1.00034
3951,-4,10,-26,31,93,6,-21,-7,0.146973,-0.437012,0.818359,3.25,8.3125,-0.75,-0.468047,-0.179864,1.00034
3973,-16,-54,33,127,-50,30,15,3,0.126953,-0.406738,0.806152,8,5.5,0.0625,-0.465127,-0.177244,0.999549
3973,8,-55,-12,-4,71,4,45,2,0.126953,-0.406738,0.806152,8,5.5,0.0625,-0.465127,-0.177244,0.999549
3974,8,10,17,-37,-45,-10,-25,-4,0.126953,-0.406738,0.806152,8,5.5,0.0625,-0.465127,-0.177244,0.999549
3974,-24,-19,10,26,49,6,-40,-6,0.126953,-0.406738,0.806152,8,5.5,0.0625,-0.465127,-0.177244,0.999549
3987,17,10,8,47,-8,5,1,17,0.219238,-0.460938,0.84668,-0.5625,-0.1875,-3.375,-0.465918,-0.179003,0.998643
3987,-17,-10,-21,-88,-102,-35,-20,-13,0.219238,-0.460938,0.84668,-0.5625,-0.1875,-3.375,-0.465918,-0.179003,0.998643
3996,-3,-11,-39,-42,30,-13,-16,-4,0.219238,-0.460938,0.84668,-0.5625,-0.1875,-3.375,-0.465918,-0.179003,0.998643
3996,-12,27,4,48,19,27,58,6,0.219238,-0.460938,0.84668,-0.5625,-0.1875,-3.375,-0.465918,-0.179003,0.998643
4010,0,0,-57,-94,-71,29,-55,-1,0.172363,-0.4375,0.828125,-0.625,-3.625,0.375,-0.466679,-0.180068,0.999402
4010,15,7,5,127,126,7,-62,15,0.172363,-0.4375,0.828125,-0.625,-3.625,0.375,-0.466679,-0.180068,0.999402
4011,-1,29,37,-59,-39,-30,87,10,0.172363,-0.4375,0.828125,-0.625,-3.625,0.375,-0.466679,-0.180068,0.999402
4011,-8,-20,-62,-128,-128,-85,-15,-22,0.172363,-0.4375,0.828125,-0.625,-3.625,0.375,-0.466679,-0.180068,0.999402
4050,-6,-6,-30,-55,127,56,-49,-15,0.14502,-0.421387,0.813477,2.6875,-2.875,0.1875,-0.466139,-0.180361,1.00007
4050,-6,21,77,69,87,53,58,16,0.14502,-0.421387,0.813477,2.6875,-2.875,0.1875,-0.466139,-0.180361,1.00007
4050,3,-4,-66,98,101,70,2,4,0.14502,-0.421387,0.813477,2.6875,-2.875,0.1875,-0.466139,-0.180361,1.00007
4050,22,-4,17,3,-44,-40,12,1,0.14502,-0.421387,0.813477,2.6875,-2.875,0.1875,-0.466139,-0.180361,1.00007
4052,-11,-11,-42,-88,-88,-96,-36,-5,0.220703,-0.422852,0.831055,2.25,-2.25,-5.625,-0.465188,-0.18302,0.998628
4052,30,2,-24,-81,37,5,-6,-6,0.220703,-0.422852,0.831055,2.25,-2.25,-5.625,-0.465188,-0.18302,0.998628
4056,-7,-3,73,124,69,22,-24,15,0.220703,-0.422852,0.831055,2.25,-2.25,-5.625,-0.465188,-0.18302,0.998628
4056,25,1,31,5,-5,10,11,1,0.220703,-0.422852,0.831055,2.25,-2.25,-5.625,-0.465188,-0.18302,0.998628
4070,-34,8,-48,-36,2,19,31,-6,0.237305,-0.401367,0.82373,1.0625,-3.75,-0.5,-0.464621,-0.185891,0.999053
4070,-1,-5,-7,-12,-88,-16,-57,3,0.237305,-0.401367,0.82373,1.0625,-3.75,-0.5,-0.464621,-0.185891,0.999053
4070,3,-15,22,1,-16,-39,2,-7,0.237305,-0.401367,0.82373,1.0625,-3.75,-0.5,-0.464621,-0.185891,0.999053
4070,8,-9,-12,-39,-32,-12,-12,-2,0.237305,-0.401367,0.82373,1.0625,-3.75,-0.5,-0.464621,-0.185891,0.999053
4092,14,18,13,-101,-112,-45,-18,14,0.160156,-0.430664,0.822754,-4.0625,-4.8125,-0.8125,-0.466412,-0.187136,0.999495
4092,-15,-2,-4,66,90,62,27,16,0.160156,-0.430664,0.822754,-4.0625,-4.8125,-0.8125,-0.466412,-0.187136,0.999495
4093,27,-5,21,47,33,35,-36,-7,0.160156,-0.430664,0.822754,-4.0625,-4.8125,-0.8125,-0.466412,-0.187136,0.999495
4093,-9,-3,-71,-88,-6,3,-16,11,0.160156,-0.430664,0.822754,-4.0625,-4.8125,-0.8125,-0.466412,-0.187136,0.999495
4116,-36,-10,56,104,63,86,79,-22,0.205566,-0.456055,0.826172,-7.125,-2,-7.125,-0.469505,-0.18949,0.997905
4116,18,15,33,61,-27,-33,-75,6,0.205566,-0.456055,0.826172,-7.125,-2,-7.125,-0.469505,-0.18949,0.997905
4116,-26,12,64,-53,-75,-34,9,-11,0.205566,-0.456055,0.826172,-7.125,-2,-7.125,-0.469505,-0.18949,0.997905
4116,-18,-21,-63,-32,32,29,28,-2,0.205566,-0.456055,0.826172,-7.125,-2,-7.125,-0.469505,-0.18949,0.997905
4130,11,-3,-3,60,-55,-28,69,5,0.202148,-0.436035,0.849121,-2.25,-1.125,-8.5,-0.469796,-0.191555,0.995292
4130,-13,-1,0,-128,-41,-68,-29,-19,0.202148,-0.436035,0.849121,-2.25,-1.125,-8.5,-0.469796,-0.191555,0.995292
4131,6,-1,-10,78,59,35,10,11,0.202148,-0.436035,0.849121,-2.25,-1.125,-8.5,-0.469796,-0.191555,0.995292
4131,18,2,32,98,66,-5,-18,-3,0.202148,-0.436035,0.849121,-2.25,-1.125,-8.5,-0.469796,-0.191555,0.995292
4153,2,18,70,65,30,10,41,25,0.145508,-0.429199,0.855957,-2.6875,-3.625,-2.375,-0.470593,-0.192013,0.995168
4153,12,-17,-52,-70,-76,-7,-8,-9,0.145508,-0.429199,0.855957,-2.6875,-3.625,-2.375,-0.470593,-0.192013,0.995168
4154,16,4,15,-124,-22,-60,-104,-13,0.145508,-0.429199,0.855957,-2.6875,-3.625,-2.375,-0.470593,-0.192013,0.995168
4154,-18,-14,1,-48,-82,-25,-20,2,0.145508,-0.429199,0.855957,-2.6875,-3.625,-2.375,-0.470593,-0.192013,0.995168
4176,6,13,19,9,110,32,88,14,0.187012,-0.441895,0.854492,-5.75,-4,-1.25,-0.472729,-0.193473,0.995364
4176,-7,4,-24,83,81,47,24,-9,0.187012,-0.441895,0.854492,-5.75,-4,-1.25,-0.472729,-0.193473,0.995364
4177,-4,11,-10,-28,-33,22,-20,5,0.187012,-0.441895,0.854492,-5.75,-4,-1.25,-0.472729,-0.193473,0.995364
4177,7,-2,14,-21,10,-3,-4,-4,0.187012,-0.441895,0.854492,-5.75,-4,-1.25,-0.472729,-0.193473,0.995364
4190,2,-3,7,64,-1,12,13,-6,0.225586,-0.453125,0.882324,-6.3125,-3.0625,-2.1875,-0.474898,-0.195414,0.995135
4190,14,10,-1,-128,-128,-118,-23,-2,0.225586,-0.453125,0.882324,-6.3125,-3.0625,-2.1875,-0.474898,-0.195414,0.995135
4191,-34,-30,-58,42,58,-39,22,-23,0.225586,-0.453125,0.882324,-6.3125,-3.0625,-2.1875,-0.474898,-0.195414,0.995135
4191,29,19,17,52,27,103,69,25,0.225586,-0.453125,0.882324,-6.3125,-3.0625,-2.1875,-0.474898,-0.195414,0.995135
4213,3,-13,-51,-123,-35,-56,-127,4,0.204102,-0.440918,0.87793,-0.75,-0.3125,-3.1875,-0.47474,-0.196264,0.994217
4213,-8,4,43,111,127,40,16,-13,0.204102,-0.440918,0.87793,-0.75,-0.3125,-3.1875,-0.47474,-0.196264,0.994217
4213,-6,3,-28,-61,-125,-22,-16,6,0.204102,-0.440918,0.87793,-0.75,-0.3125,-3.1875,-0.47474,-0.196264,0.994217
4213,-25,-25,-33,-14,5,-28,-15,-22,0.204102,-0.440918,0.87793,-0.75,-0.3125,-3.1875,-0.47474,-0.196264,0.994217
4236,19,12,-2,66,63,18,18,-2,0.15625,-0.427734,0.843262,-1.125,-1.1875,-2.75,-0.474841,-0.19622,0.99353
4236,6,5,-40,-56,-60,-15,-15,4,0.15625,-0.427734,0.843262,-1.125,-1.1875,-2.75,-0.474841,-0.19622,0.99353
4237,12,-18,-59,-30,8,8,11,2,0.15625,-0.427734,0.843262,-1.125,-1.1875,-2.75,-0.474841,-0.19622,0.99353
4237,-24,9,57,2,18,-1,10,-15,0.15625,-0.427734,0.843262,-1.125,-1.1875,-2.75,-0.474841,-0.19622,0.99353
4250,-40,-24,-26,-28,-83,-90,-82,-20,0.199707,-0.464844,0.864746,-1.5625,-1.125,-0.1875,-0.475736,-0.196722,0.993734
4250,-54,-8,-15,29,26,69,5,-14,0.199707,-0.464844,0.864746,-1.5625,-1.125,-0.1875,-0.475736,-0.196722,0.993734
4251,30,6,36,81,64,-14,64,17,0.199707,-0.464844,0.864746,-1.5625,-1.125,-0.1875,-0.475736,-0.196722,0.993734
4251,-5,8,-7,-34,-28,69,8,-3,0.199707,-0.464844,0.864746,-1.5625,-1.125,-0.1875,-0.475736,-0.196722,0.993734
4273,32,8,24,-68,-63,-68,-19,-9,0.167969,-0.47168,0.858887,-5.5625,-2.25,0.5,-0.478385,-0.19666,0.994313
4273,2,-2,-38,-5,45,4,28,22,0.167969,-0.47168,0.858887,-5.5625,-2.25,0.5,-0.478385,-0.19666,0.994313
4273,23,0,3,-19,-7,80,-10,-1,0.167969,-0.47168,0.858887,-5.5625,-2.25,0.5,-0.478385,-0.19666,0.994313
4273,-6,14,92,68,-40,16,7,-9,0.167969,-0.47168,0.858887,-5.5625,-2.25,0.5,-0.478385,-0.19666,0.994313
4296,0,-5,3,-33,29,-9,43,20,0.168945,-0.460449,0.838379,-5.375,1.0625,-3.1875,-0.480518,-0.196329,0.993287
4296,-7,-12,-38,-61,-115,-61,-57,-1,0.168945,-0.460449,0.838379,-5.375,1.0625,-3.1875,-0.480518,-0.196329,0.993287
4296,-7,-12,31,20,80,-8,32,-6,0.168945,-0.460449,0.838379,-5.375,1.0625,-3.1875,-0.480518,-0.196329,0.993287
4296,36,17,-34,125,102,11,-40,35,0.168945,-0.460449,0.838379,-5.375,1.0625,-3.1875,-0.480518,-0.196329,0.993287
4311,8,22,66,17,5,52,11,-3,0.161621,-0.429688,0.831543,0.5,0.5,-2.4375,-0.480126,-0.195992,0.992395
4311,-13,-12,-61,-102,-68,-42,17,-6,0.161621,-0.429688,0.831543,0.5,0.5,-2.4375,-0.480126,-0.195992,0.992395
4312,26,-7,-12,45,83,22,-8,16,0.161621,-0.429688,0.831543,0.5,0.5,-2.4375,-0.480126,-0.195992,0.992395
4312,-30,-2,-18,-54,-43,-29,-5,-8,0.161621,-0.429688,0.831543,0.5,0.5,-2.4375,-0.480126,-0.195992,0.992395
4333,13,1,-9,-62,4,11,4,4,0.185547,-0.446289,0.853516,-1.875,-0.4375,-0.125,-0.480797,-0.195928,0.992386
4333,-14,-5,12,82,4,1,16,-9,0.185547,-0.446289,0.853516,-1.875,-0.4375,-0.125,-0.480797,-0.195928,0.992386
4334,-56,-4,4,-66,-128,-42,-100,-23,0.185547,-0.446289,0.853516,-1.875,-0.4375,-0.125,-0.480797,-0.195928,0.992386
4334,10,3,1,-3,-5,-24,-61,5,0.185547,-0.446289,0.853516,-1.875,-0.4375,-0.125,-0.480797,-0.195928,0.992386
4357,6,-4,-24,-21,29,63,104,18,0.1875,-0.462402,0.863281,-5,1.125,1.3125,-0.48276,-0.195277,0.992636
4357,8,10,60,103,51,99,23,6,0.1875,-0.462402,0.863281,-5,1.125,1.3125,-0.48276,-0.195277,0.992636
4357,17,18,-2,-26,-16,34,55,0,0.1875,-0.462402,0.863281,-5,1.125,1.3125,-0.48276,-0.195277,0.992636
4357,-42,-31,14,-92,9,-64,-34,-21,0.1875,-0.462402,0.863281,-5,1.125,1.3125,-0.48276,-0.195277,0.992636
4371,18,25,0,125,-26,-26,9,16,0.188477,-0.436523,0.869141,-0.625,4.5625,-4.6875,-0.482087,-0.194474,0.990408
4371,7,-1,49,-45,-73,-46,3,-16,0.188477,-0.436523,0.869141,-0.625,4.5625,-4.6875,-0.482087,-0.194474,0.990408
4371,-13,-16,-71,-73,4,-28,-2,3,0.188477,-0.436523,0.869141,-0.625,4.5625,-4.6875,-0.482087,-0.194474,0.990408
4371,5,-3,-17,73,87,57,4,-12,0.188477,-0.436523,0.869141,-0.625,4.5625,-4.6875,-0.482087,-0.194474,0.990408
4393,27,8,4,-15,-28,-4,-11,19,0.176758,-0.439453,0.856445,3.375,1.25,-1.8125,-0.480677,-0.194074,0.989547
4393,-27,3,10,-59,45,-12,-4,-16,0.176758,-0.439453,0.856445,3.375,1.25,-1.8125,-0.480677,-0.194074,0.989547
4393,12,-14,-30,3,-26,5,-3,1,0.176758,-0.439453,0.856445,3.375,1.25,-1.8125,-0.480677,-0.194074,0.989547
4393,8,9,28,-34,-32,-53,-42,-17,0.176758,-0.439453,0.856445,3.375,1.25,-1.8125,-0.480677,-0.194074,0.989547
4417,-50,-9,-12,43,3,10,-18,-19,0.198242,-0.466309,0.869141,0.875,-0.6875,2.875,-0.48083,-0.193897,0.99065
4417,-30,-17,-37,36,63,4,-69,-11,0.198242,-0.466309,0.869141,0.875,-0.6875,2.875,-0.48083,-0.193897,0.99065
4417,5,5,45,-53,-14,1,76,1,0.198242,-0.466309,0.869141,0.875,-0.6875,2.875,-0.48083,-0.193897,0.99065
4417,5,-8,-22,10,-30,28,12,0,0.198242,-0.466309,0.869141,0.875,-0.6875,2.875,-0.48083,-0.193897,0.99065
4431,-23,2,-3,-62,-50,-43,-52,-26,0.181152,-0.430176,0.868652,0.3125,0.875,2.875,-0.480356,-0.19299,0.991416
4431,20,11,14,50,19,31,96,7,0.181152,-0.430176,0.868652,0.3125,0.875,2.875,-0.480356,-0.19299,0.991416
4432,8,28,47,100,84,6,-4,22,0.181152,-0.430176,0.868652,0.3125,0.875,2.875,-0.480356,-0.19299,0.991416
4432,-28,-27,-45,13,13,1,44,20,0.181152,-0.430176,0.868652,0.3125,0.875,2.875,-0.480356,-0.19299,0.991416
4453,43,4,18,-67,-30,-15,-53,-9,0.191895,-0.435059,0.858887,1.25,2.625,-1.875,-0.479409,-0.19254,0.990211
4453,-42,4,2,-127,-89,-44,-35,8,0.191895,-0.435059,0.858887,1.25,2.625,-1.875,-0.479409,-0.19254,0.990211
4454,-29,-19,14,18,-11,-4,-6,-22,0.191895,-0.435059,0.858887,1.25,2.625,-1.875,-0.479409,-0.19254,0.990211
4454,11,16,-7,-10,52,23,10,11,0.191895,-0.435059,0.858887,1.25,2.625,-1.875,-0.479409,-0.19254,0.990211
4484,-14,-1,0,-20,-29,-12,-23,3,0.160645,-0.438477,0.833008,5.4375,0.9375,-0.875,-0.477537,-0.191857,0.989881
4484,18,-3,42,89,121,21,12,-14,0.160645,-0.438477,0.833008,5.4375,0.9375,-0.875,-0.477537,-0.191857,0.989881
4484,7,7,-9,-52,-127,-49,18,3,0.160645,-0.438477,0.833008,5.4375,0.9375,-0.875,-0.477537,-0.191857,0.989881
4484,-35,-16,-9,-64,-40,-30,-48,-17,0.160645,-0.438477,0.833008,5.4375,0.9375,-0.875,-0.477537,-0.191857,0.989881
4491,38,0,-2,-79,19,64,20,-7,0.187988,-0.45459,0.836426,2.4375,0.0625,0.5625,-0.477285,-0.191774,0.990224
4491,29,-4,-29,36,12,-16,-1,7,0.187988,-0.45459,0.836426,2.4375,0.0625,0.5625,-0.477285,-0.191774,0.990224
4491,-43,-13,-15,30,-12,-45,-106,-9,0.187988,-0.45459,0.836426,2.4375,0.0625,0.5625,-0.477285,-0.191774,0.990224
4491,-15,4,19,87,51,21,50,-3,0.187988,-0.45459,0.836426,2.4375,0.0625,0.5625,-0.477285,-0.191774,0.990224
4513,-13,-10,-2,76,25,13,13,1,0.183594,-0.462402,0.849121,-0.6875,1.625,-0.5,-0.477894,-0.191262,0.989793
4513,11,3,-26,-83,-112,-34,49,-5,0.183594,-0.462402,0.849121,-0.6875,1.625,-0.5,-0.477894,-0.191262,0.989793
4514,16,11,61,73,28,-7,11,5,0.183594,-0.462402,0.849121,-0.6875,1.625,-0.5,-0.477894,-0.191262,0.989793
4514,30,2,-104,38,49,-23,22,21,0.183594,-0.462402,0.849121,-0.6875,1.625,-0.5,-0.477894,-0.191262,0.989793
4536,-4,19,64,53,92,36,-9,-5,0.175781,-0.45752,0.844238,1.3125,1.8125,-3.125,-0.477578,-0.19091,0.988619
4536,-31,-23,-36,-88,-43,-20,-23,-2,0.175781,-0.45752,0.844238,1.3125,1.8125,-3.125,-0.477578,-0.19091,0.988619
4537,-4,-16,-18,-128,-125,-55,-23,-24,0.175781,-0.45752,0.844238,1.3125,1.8125,-3.125,-0.477578,-0.19091,0.988619
4537,8,3,-36,-17,-22,16,42,4,0.175781,-0.45752,0.844238,1.3125,1.8125,-3.125,-0.477578,-0.19091,0.988619
4551,-20,5,60,87,82,42,30,5,0.165527,-0.404297,0.831543,4.375,0.6875,0.4375,-0.475575,-0.190377,0.988588
4551,55,-7,24,43,-31,-71,-30,-1,0.165527,-0.404297,0.831543,4.375,0.6875,0.4375,-0.475575,-0.190377,0.988588
4551,-79,-4,20,-48,-32,26,-60,-17,0.165527,-0.404297,0.831543,4.375,0.6875,0.4375,-0.475575,-0.190377,0.988588
4551,3,-2,-5,-105,-114,-104,-65,-1,0.165527,-0.404297,0.831543,4.375,0.6875,0.4375,-0.475575,-0.190377,0.988588
4573,-21,-13,-26,88,80,80,84,-6,0.183594,-0.42627,0.859863,1.0625,1.5,2.3125,-0.474894,-0.189484,0.989024
4573,26,9,-12,-119,-48,-64,76,25,0.183594,-0.42627,0.859863,1.0625,1.5,2.3125,-0.474894,-0.189484,0.989024
4573,-24,-4,15,50,56,83,-60,-54,0.183594,-0.42627,0.859863,1.0625,1.5,2.3125,-0.474894,-0.189484,0.989024
4573,24,21,114,112,84,16,19,11,0.183594,-0.42627,0.859863,1.0625,1.5,2.3125,-0.474894,-0.189484,0.989024
4596,-12,-12,-47,-28,-61,-8,-22,-1,0.192383,-0.47998,0.860352,-1.5,0.6875,-0.625,-0.476118,-0.189457,0.988866
4596,7,5,30,-18,7,-2,-41,-6,0.192383,-0.47998,0.860352,-1.5,0.6875,-0.625,-0.476118,-0.189457,0.988866
4597,8,-20,-58,107,57,-1,52,16,0.192383,-0.47998,0.860352,-1.5,0.6875,-0.625,-0.476118,-0.189457,0.988866
4597,-3,9,-26,-48,-68,-10,-53,-3,0.192383,-0.47998,0.860352,-1.5,0.6875,-0.625,-0.476118,-0.189457,0.988866
4611,-20,-22,-26,-74,-60,-52,-15,-29,0.200684,-0.428711,0.830566,5.9375,0.5625,-2.25,-0.473924,-0.190181,0.988018
4611,-18,-11,-14,-22,3,32,-35,-5,0.200684,-0.428711,0.830566,5.9375,0.5625,-2.25,-0.473924,-0.190181,0.988018
4611,41,-6,-92,-13,-46,-7,22,27,0.200684,-0.428711,0.830566,5.9375,0.5625,-2.25,-0.473924,-0.190181,0.988018
4611,-42,-4,3,17,68,18,-10,-15,0.200684,-0.428711,0.830566,5.9375,0.5625,-2.25,-0.473924,-0.190181,0.988018
4633,14,8,8,-33,-52,-21,13,18,0.158691,-0.386719,0.825195,3.1875,0.375,1.25,-0.472176,-0.189475,0.988289
4633,-19,2,38,49,69,-8,-25,-17,0.158691,-0.386719,0.825195,3.1875,0.375,1.25,-0.472176,-0.189475,0.988289
4634,-1,7,16,24,38,31,11,2,0.158691,-0.386719,0.825195,3.1875,0.375,1.25,-0.472176,-0.189475,0.988289
4634,35,12,17,7,-11,-67,3,18,0.158691,-0.386719,0.825195,3.1875,0.375,1.25,-0.472176,-0.189475,0.988289
4656,-9,-20,-42,-96,-125,-8,-67,-17,0.183594,-0.466797,0.845215,-4.0625,0.8125,0.1875,-0.474234,-0.189082,0.988332
4656,-2,4,-4,-46,62,-61,26,3,0.183594,-0.466797,0.845215,-4.0625,0.8125,0.1875,-0.474234,-0.189082,0.988332
4657,26,13,29,105,127,87,7,16,0.183594,-0.466797,0.845215,-4.0625,0.8125,0.1875,-0.474234,-0.189082,0.988332
4657,8,-1,25,36,15,76,48,-10,0.183594,-0.466797,0.845215,-4.0625,0.8125,0.1875,-0.474234,-0.189082,0.988332
4670,6,7,34,-4,-7,-72,-51,-4,0.196777,-0.516602,0.862793,-4.4375,1.0625,-2.625,-0.477168,-0.189293,0.987637
4670,-22,10,2,-57,-85,6,-6,9,0.196777,-0.516602,0.862793,-4.4375,1.0625,-2.625,-0.477168,-0.189293,0.987637
4671,37,-8,-24,-18,-19,-38,22,3,0.196777,-0.516602,0.862793,-4.4375,1.0625,-2.625,-0.477168,-0.189293,0.987637
4671,6,-10,-56,5,-10,-20,-27,4,0.196777,-0.516602,0.862793,-4.4375,1.0625,-2.625,-0.477168,-0.189293,0.987637
4701,-24,9,23,-67,55,-24,1,-3,0.16748,-0.425781,0.853027,4.625,3.125,-3.1875,-0.474922,-0.188436,0.98603
4701,18,3,39,127,127,92,21,12,0.16748,-0.425781,0.853027,4.625,3.125,-3.1875,-0.474922,-0.188436,0.98603
4702,9,12,9,10,-16,-11,-4,7,0.16748,-0.425781,0.853027,4.625,3.125,-3.1875,-0.474922,-0.188436,0.98603
4702,14,2,0,-115,-127,-25,46,-14,0.16748,-0.425781,0.853027,4.625,3.125,-3.1875,-0.474922,-0.188436,0.98603
4717,-7,-16,-39,63,63,-15,-20,-13,0.147949,-0.405762,0.842773,2.125,-2.8125,1.8125,-0.473788,-0.188292,0.98703
4717,32,12,42,70,69,21,-8,9,0.147949,-0.405762,0.842773,2.125,-2.8125,1.8125,-0.473788,-0.188292,0.98703
4717,-14,-8,17,-84,-41,-19,32,15,0.147949,-0.405762,0.842773,2.125,-2.8125,1.8125,-0.473788,-0.188292,0.98703
4717,-4,-5,31,57,14,36,-53,-10,0.147949,-0.405762,0.842773,2.125,-2.8125,1.8125,-0.473788,-0.188292,0.98703
4730,6,1,-27,-27,-68,1,70,13,0.228516,-0.461426,0.835938,-2.25,-0.4375,0.875,-0.475341,-0.189411,0.9874
4730,-63,-2,-3,-83,-52,-19,-1,-13,0.228516,-0.461426,0.835938,-2.25,-0.4375,0.875,-0.475341,-0.189411,0.9874
4738,21,7,-20,-39,-1,-105,-20,2,0.228516,-0.461426,0.835938,-2.25,-0.4375,0.875,-0.475341,-0.189411,0.9874
4738,-23,-17,0,18,-3,8,-85,-14,0.228516,-0.461426,0.835938,-2.25,-0.4375,0.875,-0.475341,-0.189411,0.9874
4762,6,16,93,88,79,99,96,19,0.172363,-0.461426,0.851074,-2.1875,3.0625,-0.25,-0.476427,-0.188206,0.987016
4762,11,0,-74,-25,-42,2,58,-6,0.172363,-0.461426,0.851074,-2.1875,3.0625,-0.25,-0.476427,-0.188206,0.987016
4763,21,7,-9,-55,-63,-12,-20,15,0.172363,-0.461426,0.851074,-2.1875,3.0625,-0.25,-0.476427,-0.188206,0.987016
4763,-19,-1,38,13,87,-33,-10,-8,0.172363,-0.461426,0.851074,-2.1875,3.0625,-0.25,-0.476427,-0.188206,0.987016
4776,-3,-2,27,56,-30,-24,-26,-18,0.179199,-0.432617,0.885254,1.875,4.375,-1.875,-0.475097,-0.186868,0.985637
4776,21,24,57,-12,5,9,-42,7,0.179199,-0.432617,0.885254,1.875,4.375,-1.875,-0.475097,-0.186868,0.985637
4777,-17,-14,-1,24,12,23,-5,-24,0.179199,-0.432617,0.885254,1.875,4.375,-1.875,-0.475097,-0.186868,0.985637
4777,-17,-20,3,-93,-38,-6,9,-11,0.179199,-0.432617,0.885254,1.875,4.375,-1.875,-0.475097,-0.186868,0.985637
4790,22,12,7,57,6,-43,-5,19,0.165039,-0.430176,0.865234,3.625,1.625,2.6875,-0.473653,-0.185616,0.98607
4790,16,4,-4,17,-4,-4,-12,1,0.165039,-0.430176,0.865234,3.625,1.625,2.6875,-0.473653,-0.185616,0.98607
4798,-2,-4,-35,-85,-71,38,22,-1,0.165039,-0.430176,0.865234,3.625,1.625,2.6875,-0.473653,-0.185616,0.98607
4798,13,10,31,86,127,22,21,11,0.165039,-0.430176,0.865234,3.625,1.625,2.6875,-0.473653,-0.185616,0.98607
4813,3,15,-20,-7,-67,-31,0,-3,0.188477,-0.456543,0.861816,2.0625,2.25,2.4375,-0.473271,-0.184721,0.986588
4813,-9,-19,-72,-5,-51,-28,-52,-5,0.188477,-0.456543,0.861816,2.0625,2.25,2.4375,-0.473271,-0.184721,0.986588
4814,-37,-12,10,-23,66,-45,-52,-20,0.188477,-0.456543,0.861816,2.0625,2.25,2.4375,-0.473271,-0.184721,0.986588
4814,45,11,-24,-3,-1,73,107,19,0.188477,-0.456543,0.861816,2.0625,2.25,2.4375,-0.473271,-0.184721,0.986588
4837,-26,-20,-41,-61,9,-41,-22,-25,0.166504,-0.442871,0.85791,0.4375,2.6875,0.9375,-0.473182,-0.183336,0.986449
4837,-4,6,55,83,14,-5,-46,6,0.166504,-0.442871,0.85791,0.4375,2.6875,0.9375,-0.473182,-0.183336,0.986449
4837,-7,-5,2,29,-20,17,33,0,0.166504,-0.442871,0.85791,0.4375,2.6875,0.9375,-0.473182,-0.183336,0.986449
4837,-19,9,22,-39,-51,-7,12,-10,0.166504,-0.442871,0.85791,0.4375,2.6875,0.9375,-0.473182,-0.183336,0.986449
4859,21,-19,-76,-25,-5,-19,5,7,0.178223,-0.461914,0.857422,5.4375,5,1.125,-0.471699,-0.181581,0.986047
4859,12,1,4,-64,-22,-6,-33,-3,0.178223,-0.461914,0.857422,5.4375,5,1.125,-0.471699,-0.181581,0.986047
4860,-2,-12,-19,-6,-23,0,23,-5,0.178223,-0.461914,0.857422,5.4375,5,1.125,-0.471699,-0.181581,0.986047
4860,-35,-22,-38,-15,11,-35,-13,-6,0.178223,-0.461914,0.857422,5.4375,5,1.125,-0.471699,-0.181581,0.986047
4873,37,0,-68,85,111,88,-8,29,0.168457,-0.42627,0.856445,9.3125,5.875,1.5625,-0.468181,-0.179453,0.985679
4873,-18,-21,24,-26,-101,-7,23,-7,0.168457,-0.42627,0.856445,9.3125,5.875,1.5625,-0.468181,-0.179453,0.985679
4874,-3,14,-41,-37,10,-65,-10,3,0.168457,-0.42627,0.856445,9.3125,5.875,1.5625,-0.468181,-0.179453,0.985679
4874,29,-5,-25,-3,-79,19,-15,-6,0.168457,-0.42627,0.856445,9.3125,5.875,1.5625,-0.468181,-0.179453,0.985679
4896,-51,-11,9,-34,20,59,65,-9,0.193848,-0.459961,0.862793,6.625,5.5625,4.6875,-0.466613,-0.177393,0.98631
4896,-20,9,29,97,126,42,-27,-13,0.193848,-0.459961,0.862793,6.625,5.5625,4.6875,-0.466613,-0.177393,0.98631
4896,23,-14,-16,-11,-31,-35,-25,6,0.193848,-0.459961,0.862793,6.625,5.5625,4.6875,-0.466613,-0.177393,0.98631
4896,10,11,36,-51,-77,11,3,1,0.193848,-0.459961,0.862793,6.625,5.5625,4.6875,-0.466613,-0.177393,0.98631
4910,3,-2,-12,12,54,-15,-9,-3,0.211426,-0.463379,0.844238,6.625,5.5,9.4375,-0.465488,-0.1752,0.988701
4910,17,18,21,-22,-56,19,2,13,0.211426,-0.463379,0.844238,6.625,5.5,9.4375,-0.465488,-0.1752,0.988701
4917,-10,-10,62,-73,-11,-39,6,-8,0.211426,-0.463379,0.844238,6.625,5.5,9.4375,-0.465488,-0.1752,0.988701
4917,18,14,0,109,103,19,-17,-1,0.211426,-0.463379,0.844238,6.625,5.5,9.4375,-0.465488,-0.1752,0.988701
4932,2,0,82,-8,-44,-1,-12,12,0.133789,-0.390137,0.861816,4.875,6.5,6.3125,-0.463,-0.171463,0.989395
4932,-59,-6,-64,-91,-41,-41,9,-3,0.133789,-0.390137,0.861816,4.875,6.5,6.3125,-0.463,-0.171463,0.989395
4940,13,13,44,111,79,26,11,-8,0.133789,-0.390137,0.861816,4.875,6.5,6.3125,-0.463,-0.171463,0.989395
4940,10,-7,-52,-81,-101,-56,-14,4,0.133789,-0.390137,0.861816,4.875,6.5,6.3125,-0.463,-0.171463,0.989395
4956,18,17,42,96,127,35,-5,3,0.118164,-0.395996,0.862793,0.375,4.875,-0.25,-0.461935,-0.168875,0.988449
4956,23,-4,69,94,-37,38,20,3,0.118164,-0.395996,0.862793,0.375,4.875,-0.25,-0.461935,-0.168875,0.988449
4957,-37,-15,-51,-113,-81,-70,-35,-25,0.118164,-0.395996,0.862793,0.375,4.875,-0.25,-0.461935,-0.168875,0.988449
4957,-7,-6,8,87,111,62,27,11,0.118164,-0.395996,0.862793,0.375,4.875,-0.25,-0.461935,-0.168875,0.988449
4969,-16,5,15,61,9,38,-10,-13,0.155273,-0.441406,0.871094,-2.125,0.0625,-1.3125,-0.462788,-0.168785,0.98803
4969,30,0,-40,-103,-64,-89,10,12,0.155273,-0.441406,0.871094,-2.125,0.0625,-1.3125,-0.462788,-0.168785,0.98803
4977,3,-7,-17,30,12,12,-18,-11,0.155273,-0.441406,0.871094,-2.125,0.0625,-1.3125,-0.462788,-0.168785,0.98803
4977,-50,-16,-11,42,71,37,-32,-18,0.155273,-0.441406,0.871094,-2.125,0.0625,-1.3125,-0.462788,-0.168785,0.98803
4993,10,7,3,-41,-54,-59,-13,3,0.119141,-0.453125,0.867188,0,-0.25,-1.3125,-0.463105,-0.167942,0.987712
4993,10,-10,-33,-40,-7,-10,21,-2,0.119141,-0.453125,0.867188,0,-0.25,-1.3125,-0.463105,-0.167942,0.987712
4994,-14,9,-5,62,56,47,-16,7,0.119141,-0.453125,0.867188,0,-0.25,-1.3125,-0.463105,-0.167942,0.987712
4994,-18,-6,23,5,-59,-71,-2,-7,0.119141,-0.453125,0.867188,0,-0.25,-1.3125,-0.463105,-0.167942,0.987712
5016,-3,-14,-13,-94,-61,2,-17,-6,0.147949,-0.457031,0.848145,2.0625,0.625,0.8125,-0.463231,-0.167247,0.988127
5016,8,15,33,-31,-20,-3,-24,1,0.147949,-0.457031,0.848145,2.0625,0.625,0.8125,-0.463231,-0.167247,0.988127
5016,25,2,-17,-25,-55,-20,-3,13,0.147949,-0.457031,0.848145,2.0625,0.625,0.8125,-0.463231,-0.167247,0.988127
5016,-10,4,69,17,67,7,3,8,0.147949,-0.457031,0.848145,2.0625,0.625,0.8125,-0.463231,-0.167247,0.988127
5039,-43,-17,-49,45,22,2,10,-10,0.119141,-0.426758,0.808594,5.375,-0.5625,3.8125,-0.462111,-0.165976,0.98952
5039,17,-9,-56,-26,41,8,9,-4,0.119141,-0.426758,0.808594,5.375,-0.5625,3.8125,-0.462111,-0.165976,0.98952
5039,-22,8,4,-15,24,34,35,7,0.119141,-0.426758,0.808594,5.375,-0.5625,3.8125,-0.462111,-0.165976,0.98952
5039,-13,21,40,40,-28,-42,-23,2,0.119141,-0.426758,0.808594,5.375,-0.5625,3.8125,-0.462111,-0.165976,0.98952
5054,-25,-25,-23,-76,-104,-19,-21,0,0.202637,-0.431152,0.835449,0.875,-0.25,2.6875,-0.46223,-0.166614,0.990435
5054,-24,-16,-21,22,41,37,23,-16,0.202637,-0.431152,0.835449,0.875,-0.25,2.6875,-0.46223,-0.166614,0.990435
5055,7,10,31,105,120,-10,-6,9,0.202637,-0.431152,0.835449,0.875,-0.25,2.6875,-0.46223,-0.166614,0.990435
5055,18,5,-19,-52,-17,81,39,5,0.202637,-0.431152,0.835449,0.875,-0.25,2.6875,-0.46223,-0.166614,0.990435
5077,23,-1,-3,-104,-112,-99,-9,2,0.219727,-0.436523,0.852539,-2.8125,0.1875,1.875,-0.463511,-0.167693,0.990992
5077,-34,-1,-23,52,119,16,5,-1,0.219727,-0.436523,0.852539,-2.8125,0.1875,1.875,-0.463511,-0.167693,0.990992
5077,10,12,93,107,56,62,36,17,0.219727,-0.436523,0.852539,-2.8125,0.1875,1.875,-0.463511,-0.167693,0.990992
5077,27,-4,-47,-78,-102,-56,2,2,0.219727,-0.436523,0.852539,-2.8125,0.1875,1.875,-0.463511,-0.167693,0.990992
5098,-23,-18,-61,-71,-58,-51,-39,-26,0.178223,-0.445801,0.866699,-2.125,1.1875,-0.1875,-0.464453,-0.167689,0.990771
5098,16,5,-18,122,92,47,23,21,0.178223,-0.445801,0.866699,-2.125,1.1875,-0.1875,-0.464453,-0.167689,0.990771
5099,4,7,44,-46,-102,-5,6,4,0.178223,-0.445801,0.866699,-2.125,1.1875,-0.1875,-0.464453,-0.167689,0.990771
5099,18,-9,-29,49,127,-13,13,9,0.178223,-0.445801,0.866699,-2.125,1.1875,-0.1875,-0.464453,-0.167689,0.990771
5113,-10,18,6,22,75,65,11,-4,0.152344,-0.412109,0.837891,3.0625,0.9375,0.75,-0.463317,-0.167106,0.990942
5113,15,-3,-2,-29,-83,-36,-22,-6,0.152344,-0.412109,0.837891,3.0625,0.9375,0.75,-0.463317,-0.167106,0.990942
5113,-24,-6,-26,-36,-13,-7,1,-14,0.152344,-0.412109,0.837891,3.0625,0.9375,0.75,-0.463317,-0.167106,0.990942
5113,32,8,42,-44,-97,1,-4,12,0.152344,-0.412109,0.837891,3.0625,0.9375,0.75,-0.463317,-0.167106,0.990942
5136,-10,-3,-6,-47,-20,-26,-12,-16,0.178711,-0.439941,0.846191,-1.375,0.375,-0.25,-0.464039,-0.167458,0.990752
5136,-6,-13,-5,42,44,8,-1,3,0.178711,-0.439941,0.846191,-1.375,0.375,-0.25,-0.464039,-0.167458,0.990752
5137,31,-1,-37,-10,-83,-74,-52,6,0.178711,-0.439941,0.846191,-1.375,0.375,-0.25,-0.464039,-0.167458,0.990752
5137,-35,8,30,-73,-72,34,16,-24,0.178711,-0.439941,0.846191,-1.375,0.375,-0.25,-0.464039,-0.167458,0.990752
5158,-9,-5,27,-16,127,36,-30,-7,0.153809,-0.455566,0.869629,-2.625,1.1875,3.75,-0.465541,-0.166179,0.991849
5158,38,10,36,72,-1,-13,23,14,0.153809,-0.455566,0.869629,-2.625,1.1875,3.75,-0.465541,-0.166179,0.991849
5159,4,8,5,-58,3,-28,57,3,0.153809,-0.455566,0.869629,-2.625,1.1875,3.75,-0.465541,-0.166179,0.991849
5159,15,4,85,112,63,26,-14,0,0.153809,-0.455566,0.869629,-2.625,1.1875,3.75,-0.465541,-0.166179,0.991849
5173,-6,8,5,87,10,-9,1,5,0.150391,-0.483398,0.864258,-1.875,0.125,2.5625,-0.467349,-0.165472,0.992888
5173,-28,-19,-106,-97,-114,-51,-24,5,0.150391,-0.483398,0.864258,-1.875,0.125,2.5625,-0.467349,-0.165472,0.992888
5174,10,1,56,-77,42,2,-26,-23,0.150391,-0.483398,0.864258,-1.875,0.125,2.5625,-0.467349,-0.165472,0.992888
5174,-13,-2,-18,58,79,5,6,13,0.150391,-0.483398,0.864258,-1.875,0.125,2.5625,-0.467349,-0.165472,0.992888
5195,35,17,49,23,-3,36,36,12,0.135742,-0.394043,0.84082,8.1875,0.375,0.125,-0.463847,-0.164859,0.99267
5195,-1,-9,-3,-91,-69,0,-20,-11,0.135742,-0.394043,0.84082,8.1875,0.375,0.125,-0.463847,-0.164859,0.99267
5196,-15,-4,-28,8,-78,-18,-4,-11,0.135742,-0.394043,0.84082,8.1875,0.375,0.125,-0.463847,-0.164859,0.99267
5196,-21,-10,-39,-76,-16,-33,-23,-5,0.135742,-0.394043,0.84082,8.1875,0.375,0.125,-0.463847,-0.164859,0.99267
5219,55,7,33,62,57,4,14,15,0.183594,-0.397949,0.853516,4.25,-0.4375,2.125,-0.461913,-0.165196,0.993368
5219,-39,-11,12,35,-26,-73,-27,-1,0.183594,-0.397949,0.853516,4.25,-0.4375,2.125,-0.461913,-0.165196,0.993368
5220,-11,1,8,42,94,109,33,-7,0.183594,-0.397949,0.853516,4.25,-0.4375,2.125,-0.461913,-0.165196,0.993368
5220,-28,2,40,51,-5,13,-16,-15,0.183594,-0.397949,0.853516,4.25,-0.4375,2.125,-0.461913,-0.165196,0.993368
5233,-5,-18,-9,-81,-104,-4,19,-5,0.178711,-0.470215,0.874023,-5.5,-1.25,3.75,-0.464698,-0.165323,0.994835
5233,7,18,13,-75,-80,-78,-14,9,0.178711,-0.470215,0.874023,-5.5,-1.25,3.75,-0.464698,-0.165323,0.994835
5234,19,-14,-32,43,80,-22,-7,13,0.178711,-0.470215,0.874023,-5.5,-1.25,3.75,-0.464698,-0.165323,0.994835
5234,-1,1,-6,72,86,67,69,14,0.178711,-0.470215,0.874023,-5.5,-1.25,3.75,-0.464698,-0.165323,0.994835
5256,-5,-1,16,-9,-58,-59,-9,3,0.150879,-0.437012,0.859375,1.0625,0.625,1.1875,-0.464595,-0.164738,0.995226
5256,-23,-13,-7,-63,24,22,-28,-29,0.150879,-0.437012,0.859375,1.0625,0.625,1.1875,-0.464595,-0.164738,0.995226
5256,8,7,17,21,5,0,9,22,0.150879,-0.437012,0.859375,1.0625,0.625,1.1875,-0.464595,-0.164738,0.995226
5256,9,-16,-61,-24,-81,-52,-23,-3,0.150879,-0.437012,0.859375,1.0625,0.625,1.1875,-0.464595,-0.164738,0.995226
5279,-14,-11,-46,-25,14,-33,-23,-4,0.130859,-0.381348,0.821777,5.8125,1,-0.4375,-0.461786,-0.163965,0.994683
5279,22,18,71,127,127,99,39,6,0.130859,-0.381348,0.821777,5.8125,1,-0.4375,-0.461786,-0.163965,0.994683
5280,6,-10,-23,29,-9,30,18,5,0.130859,-0.381348,0.821777,5.8125,1,-0.4375,-0.461786,-0.163965,0.994683
5280,2,14,15,-112,-91,-98,-44,-3,0.130859,-0.381348,0.821777,5.8125,1,-0.4375,-0.461786,-0.163965,0.994683
5293,8,-7,-40,-47,-11,-52,11,1,0.170898,-0.449219,0.855469,-2.0625,-2.5625,1.875,-0.463192,-0.164756,0.995925
5293,4,-1,-6,-29,-53,74,48,5,0.170898,-0.449219,0.855469,-2.0625,-2.5625,1.875,-0.463192,-0.164756,0.995925
5294,24,8,-5,11,62,-23,5,6,0.170898,-0.449219,0.855469,-2.0625,-2.5625,1.875,-0.463192,-0.164756,0.995925
5294,-26,2,-7,-46,-54,-71,-7,-5,0.170898,-0.449219,0.855469,-2.0625,-2.5625,1.875,-0.463192,-0.164756,0.995925
5316,-12,5,20,-13,-8,65,19,-4,0.177246,-0.439941,0.870605,1.1875,-1.4375,3.9375,-0.463056,-0.164985,0.997379
5316,19,-1,-9,114,127,26,-38,2,0.177246,-0.439941,0.870605,1.1875,-1.4375,3.9375,-0.463056,-0.164985,0.997379
5316,-25,18,92,51,26,15,27,-4,0.177246,-0.439941,0.870605,1.1875,-1.4375,3.9375,-0.463056,-0.164985,0.997379
5316,11,-13,-10,-36,-56,-34,6,-3,0.177246,-0.439941,0.870605,1.1875,-1.4375,3.9375,-0.463056,-0.164985,0.997379
5339,9,-7,-48,-91,-82,-33,-21,-4,0.133301,-0.421387,0.868652,-0.8125,0.75,-1.5625,-0.462956,-0.164284,0.996733
5339,-2,-7,1,29,78,8,8,1,0.133301,-0.421387,0.868652,-0.8125,0.75,-1.5625,-0.462956,-0.164284,0.996733
5339,-2,4,-18,-19,-15,29,-29,-11,0.133301,-0.421387,0.868652,-0.8125,0.75,-1.5625,-0.462956,-0.164284,0.996733
5339,9,-4,45,67,33,-18,-25,-6,0.133301,-0.421387,0.868652,-0.8125,0.75,-1.5625,-0.462956,-0.164284,0.996733
5353,-6,6,17,20,-19,1,-14,-2,0.151367,-0.398438,0.847656,4.1875,2.125,-0.625,-0.460899,-0.163618,0.996125
5353,9,-9,51,-12,-16,-1,18,-5,0.151367,-0.398438,0.847656,4.1875,2.125,-0.625,-0.460899,-0.163618,0.996125
5353,-9,-7,-25,-88,-85,-102,-18,11,0.151367,-0.398438,0.847656,4.1875,2.125,-0.625,-0.460899,-0.163618,0.996125
5353,2,-3,-45,-84,-6,68,35,-3,0.151367,-0.398438,0.847656,4.1875,2.125,-0.625,-0.460899,-0.163618,0.996125
5376,-6,18,59,127,97,34,3,10,0.174316,-0.433105,0.878906,1.375,0.9375,4.75,-0.460637,-0.162917,0.99743
5376,-14,-1,-14,0,-31,2,-12,-17,0.174316,-0.433105,0.878906,1.375,0.9375,4.75,-0.460637,-0.162917,0.99743
5376,-8,-7,32,2,-6,-38,-23,-10,0.174316,-0.433105,0.878906,1.375,0.9375,4.75,-0.460637,-0.162917,0.99743
5376,-4,4,-24,-10,-7,64,-44,-6,0.174316,-0.433105,0.878906,1.375,0.9375,4.75,-0.460637,-0.162917,0.99743
5399,35,7,21,-44,-29,-29,12,5,0.125977,-0.431152,0.878418,0.125,1.625,2.875,-0.460476,-0.161135,0.998032
5399,12,17,-7,-37,24,-10,50,3,0.125977,-0.431152,0.878418,0.125,1.625,2.875,-0.460476,-0.161135,0.998032
5399,0,-21,-87,22,-7,-1,-58,4,0.125977,-0.431152,0.878418,0.125,1.625,2.875,-0.460476,-0.161135,0.998032
5399,-46,-21,-5,-88,-78,-41,-19,-17,0.125977,-0.431152,0.878418,0.125,1.625,2.875,-0.460476,-0.161135,0.998032
5413,2,20,45,12,69,5,5,4,0.160645,-0.399902,0.84668,7.8125,5.6875,-0.1875,-0.457284,-0.159566,0.997103
5413,4,6,10,73,38,-15,-14,1,0.160645,-0.399902,0.84668,7.8125,5.6875,-0.1875,-0.457284,-0.159566,0.997103
5414,9,10,26,-19,-33,21,35,4,0.160645,-0.399902,0.84668,7.8125,5.6875,-0.1875,-0.457284,-0.159566,0.997103
5414,20,-4,-62,-3,62,1,26,10,0.160645,-0.399902,0.84668,7.8125,5.6875,-0.1875,-0.457284,-0.159566,0.997103
5435,-23,-11,8,-1,-1,19,-16,-14,0.17627,-0.413574,0.855469,3.8125,2.125,2.9375,-0.455833,-0.159052,0.997645
5435,-8,2,12,-5,-10,-42,25,2,0.17627,-0.413574,0.855469,3.8125,2.125,2.9375,-0.455833,-0.159052,0.997645
5436,-21,-16,-44,-107,-99,-33,-73,-23,0.17627,-0.413574,0.855469,3.8125,2.125,2.9375,-0.455833,-0.159052,0.997645
5436,7,-5,10,-59,10,-52,-41,-9,0.17627,-0.413574,0.855469,3.8125,2.125,2.9375,-0.455833,-0.159052,0.997645
5458,11,27,71,99,87,50,37,19,0.183105,-0.464355,0.86377,0.375,3.125,3.875,-0.45676,-0.158092,0.998562
5458,-31,-25,-72,-31,-57,7,-5,-19,0.183105,-0.464355,0.86377,0.375,3.125,3.875,-0.45676,-0.158092,0.998562
5466,9,-5,-35,25,-15,-47,-10,6,0.183105,-0.464355,0.86377,0.375,3.125,3.875,-0.45676,-0.158092,0.998562
5466,5,23,95,18,69,44,15,7,0.183105,-0.464355,0.86377,0.375,3.125,3.875,-0.45676,-0.158092,0.998562
5473,5,-30,-111,-114,-22,-4,8,-5,0.116211,-0.454102,0.862793,-0.6875,3.375,3,-0.457624,-0.155649,0.999061
5473,-16,11,-11,36,70,40,-9,3,0.116211,-0.454102,0.862793,-0.6875,3.375,3,-0.457624,-0.155649,0.999061
5473,2,11,36,65,-19,-12,17,0,0.116211,-0.454102,0.862793,-0.6875,3.375,3,-0.457624,-0.155649,0.999061
5473,4,-9,-37,66,-2,7,16,-4,0.116211,-0.454102,0.862793,-0.6875,3.375,3,-0.457624,-0.155649,0.999061
5496,0,-9,14,-18,-13,-19,-12,-5,0.149902,-0.411133,0.833496,1.8125,0.75,0.9375,-0.457136,-0.155437,0.999337
5496,9,-7,-54,-128,-104,-28,14,12,0.149902,-0.411133,0.833496,1.8125,0.75,0.9375,-0.457136,-0.155437,0.999337
5496,10,17,44,47,50,11,-7,-11,0.149902,-0.411133,0.833496,1.8125,0.75,0.9375,-0.457136,-0.155437,0.999337
5496,-22,4,-7,77,77,-20,11,14,0.149902,-0.411133,0.833496,1.8125,0.75,0.9375,-0.457136,-0.155437,0.999337
5519,20,-24,-7,-26,-68,44,-29,-27,0.170898,-0.414551,0.849121,1.5625,-0.9375,3.75,-0.456629,-0.155611,1.00055
5519,11,-7,31,8,9,40,-7,10,0.170898,-0.414551,0.849121,1.5625,-0.9375,3.75,-0.456629,-0.155611,1.00055
5520,-27,-7,-17,-84,-13,18,30,-5,0.170898,-0.414551,0.849121,1.5625,-0.9375,3.75,-0.456629,-0.155611,1.00055
5520,44,21,14,36,-52,-51,-14,15,0.170898,-0.414551,0.849121,1.5625,-0.9375,3.75,-0.456629,-0.155611,1.00055
5533,-43,13,25,81,106,-35,-71,14,0.157715,-0.45752,0.875977,-0.25,-0.4375,3.0625,-0.457447,-0.155403,1.00166
5533,4,-1,28,-45,-16,24,49,-18,0.157715,-0.45752,0.875977,-0.25,-0.4375,3.0625,-0.457447,-0.155403,1.00166
5534,-27,0,-7,43,-5,-5,-5,-6,0.157715,-0.45752,0.875977,-0.25,-0.4375,3.0625,-0.457447,-0.155403,1.00166
5534,1,-14,-26,11,35,41,35,-1,0.157715,-0.45752,0.875977,-0.25,-0.4375,3.0625,-0.457447,-0.155403,1.00166
5563,8,-12,-53,-83,-128,-82,-38,7,0.151855,-0.439453,0.854492,2.375,1.6875,0.9375,-0.457091,-0.154705,1.00183
5563,20,5,7,-24,83,32,-7,0,0.151855,-0.439453,0.854492,2.375,1.6875,0.9375,-0.457091,-0.154705,1.00183
5564,8,12,85,59,9,13,3,12,0.151855,-0.439453,0.854492,2.375,1.6875,0.9375,-0.457091,-0.154705,1.00183
5564,-6,-11,-32,41,5,-25,2,-13,0.151855,-0.439453,0.854492,2.375,1.6875,0.9375,-0.457091,-0.154705,1.00183
5579,3,3,-3,-34,4,7,11,-6,0.128418,-0.420898,0.838867,1.75,1.5625,0.5625,-0.456691,-0.15376,1.00177
5579,-5,0,33,88,46,-13,-20,8,0.128418,-0.420898,0.838867,1.75,1.5625,0.5625,-0.456691,-0.15376,1.00177
5580,10,-5,-34,-23,1,10,18,5,0.128418,-0.420898,0.838867,1.75,1.5625,0.5625,-0.456691,-0.15376,1.00177
5580,5,-5,11,-106,-91,-41,-19,-7,0.128418,-0.420898,0.838867,1.75,1.5625,0.5625,-0.456691,-0.15376,1.00177
5594,-13,10,24,90,82,71,12,7,0.179688,-0.455566,0.863281,-2.3125,0.375,0.8125,-0.458162,-0.154205,1.0022
5594,-22,-5,0,-54,-37,-41,-27,-12,0.179688,-0.455566,0.863281,-2.3125,0.375,0.8125,-0.458162,-0.154205,1.0022
5594,8,-5,-20,-58,-17,-51,1,3,0.179688,-0.455566,0.863281,-2.3125,0.375,0.8125,-0.458162,-0.154205,1.0022
5594,-13,-17,-31,-119,-104,11,-10,-2,0.179688,-0.455566,0.863281,-2.3125,0.375,0.8125,-0.458162,-0.154205,1.0022
5615,9,9,23,88,99,78,52,-3,0.160156,-0.445801,0.874023,-2.125,0.875,4.5,-0.45934,-0.153316,1.00346
5615,23,18,27,90,7,-44,-26,4,0.160156,-0.445801,0.874023,-2.125,0.875,4.5,-0.45934,-0.153316,1.00346
5616,-9,-11,32,-7,-31,66,-1,-9,0.160156,-0.445801,0.874023,-2.125,0.875,4.5,-0.45934,-0.153316,1.00346
5616,-6,-2,-46,-111,-102,-100,15,-11,0.160156,-0.445801,0.874023,-2.125,0.875,4.5,-0.45934,-0.153316,1.00346
5638,-16,-19,-11,76,51,-62,-27,-8,0.108398,-0.425781,0.865234,-1.1875,4.1875,1.3125,-0.459631,-0.150908,1.00315
5638,-3,1,58,54,47,64,23,12,0.108398,-0.425781,0.865234,-1.1875,4.1875,1.3125,-0.459631,-0.150908,1.00315
5639,-10,-3,-68,-103,16,9,5,-8,0.108398,-0.425781,0.865234,-1.1875,4.1875,1.3125,-0.459631,-0.150908,1.00315
5639,-24,-15,-30,123,100,37,8,3,0.108398,-0.425781,0.865234,-1.1875,4.1875,1.3125,-0.459631,-0.150908,1.00315
5662,16,2,20,-11,-90,-21,3,-7,0.13916,-0.384766,0.832031,0.8125,3.8125,-2.4375,-0.458552,-0.150015,1.00169
5662,-23,-15,-45,-80,-124,-58,-26,-32,0.13916,-0.384766,0.832031,0.8125,3.8125,-2.4375,-0.458552,-0.150015,1.00169
5662,12,6,29,-16,106,12,-9,4,0.13916,-0.384766,0.832031,0.8125,3.8125,-2.4375,-0.458552,-0.150015,1.00169
5662,0,-1,15,15,104,-14,-24,16,0.13916,-0.384766,0.832031,0.8125,3.8125,-2.4375,-0.458552,-0.150015,1.00169
5675,-19,19,29,11,-50,44,7,-1,0.157715,-0.421387,0.864746,-0.75,0.1875,-0.25,-0.458508,-0.150177,1.00172
5675,-23,-23,-27,-44,-85,-15,2,0,0.157715,-0.421387,0.864746,-0.75,0.1875,-0.25,-0.458508,-0.150177,1.00172
5683,-1,-2,-20,-24,-120,-9,-5,-10,0.157715,-0.421387,0.864746,-0.75,0.1875,-0.25,-0.458508,-0.150177,1.00172
5683,8,8,25,-19,44,35,20,-4,0.157715,-0.421387,0.864746,-0.75,0.1875,-0.25,-0.458508,-0.150177,1.00172
5698,32,2,-17,57,86,-57,-16,-4,0.142578,-0.442871,0.880371,-1.9375,0.3125,2.25,-0.459435,-0.149545,1.00245
5698,19,22,43,-25,-124,20,-13,32,0.142578,-0.442871,0.880371,-1.9375,0.3125,2.25,-0.459435,-0.149545,1.00245
5699,-23,-15,-30,-12,42,72,85,-5,0.142578,-0.442871,0.880371,-1.9375,0.3125,2.25,-0.459435,-0.149545,1.00245
5699,9,28,104,35,70,20,-31,3,0.142578,-0.442871,0.880371,-1.9375,0.3125,2.25,-0.459435,-0.149545,1.00245
5712,5,-15,-108,42,10,-38,9,-3,0.123535,-0.435059,0.878906,-0.75,1.25,0.5,-0.45972,-0.148553,1.00239
5712,27,8,15,-58,-20,-28,-7,2,0.123535,-0.435059,0.878906,-0.75,1.25,0.5,-0.45972,-0.148553,1.00239
5721,-11,-1,55,127,89,6,-23,-7,0.123535,-0.435059,0.878906,-0.75,1.25,0.5,-0.45972,-0.148553,1.00239
