0,-4,-17,2,1,-2,-2,0,2,0.84668,-0.294922,0.292969,72.0625,-20.4375,47.1875,-0.428136,-1.12908,-0.642886
0,2,-11,5,-3,-3,-4,-2,1,0.84668,-0.294922,0.292969,72.0625,-20.4375,47.1875,-0.428136,-1.12908,-0.642886
1,3,-2,0,-1,-3,-3,-1,0,0.84668,-0.294922,0.292969,72.0625,-20.4375,47.1875,-0.428136,-1.12908,-0.642886
1,3,-5,4,-2,-4,-3,-2,-1,0.84668,-0.294922,0.292969,72.0625,-20.4375,47.1875,-0.428136,-1.12908,-0.642886
2,1,1,-1,-1,-2,-2,-3,-1,0.84668,-0.294922,0.292969,72.0625,-20.4375,47.1875,-0.428136,-1.12908,-0.642886
2,0,-2,-2,-4,-1,-3,-1,-2,0.84668,-0.294922,0.292969,72.0625,-20.4375,47.1875,-0.428136,-1.12908,-0.642886
11,-13,-24,-3,-4,-1,0,-4,-6,0.872559,-0.298828,0.264648,83.375,-28.25,53,-0.452018,-1.13111,-0.585911
11,1,-18,-4,0,0,0,-1,1,0.872559,-0.298828,0.264648,83.375,-28.25,53,-0.452018,-1.13111,-0.585911
12,14,-16,0,0,1,2,2,-5,0.872559,-0.298828,0.264648,83.375,-28.25,53,-0.452018,-1.13111,-0.585911
12,18,-25,3,5,1,0,1,1,0.872559,-0.298828,0.264648,83.375,-28.25,53,-0.452018,-1.13111,-0.585911
20,11,-30,-7,-7,1,0,1,0,0.941895,-0.232422,0.276367,92.25,-26.625,52.9375,-0.468601,-1.1334,-0.533059
20,2,-30,-4,2,0,0,-1,-3,0.941895,-0.232422,0.276367,92.25,-26.625,52.9375,-0.468601,-1.1334,-0.533059
24,-3,-20,4,3,-2,-2,0,0,0.941895,-0.232422,0.276367,92.25,-26.625,52.9375,-0.468601,-1.1334,-0.533059
24,-8,-10,-2,-1,-2,-2,0,0,0.941895,-0.232422,0.276367,92.25,-26.625,52.9375,-0.468601,-1.1334,-0.533059
39,-3,-5,-1,1,0,-2,1,1,0.919922,-0.115723,0.305664,79.9375,-20.6875,46.1875,-0.476395,-1.1346,-0.49315
39,-5,-5,-2,-2,-2,0,0,-1,0.919922,-0.115723,0.305664,79.9375,-20.6875,46.1875,-0.476395,-1.1346,-0.49315
49,-2,3,-2,-1,-2,-2,-1,-1,0.919922,-0.115723,0.305664,79.9375,-20.6875,46.1875,-0.476395,-1.1346,-0.49315
49,-5,5,1,2,-4,-4,-3,0,0.919922,-0.115723,0.305664,79.9375,-20.6875,46.1875,-0.476395,-1.1346,-0.49315
70,-2,1,-3,0,-1,5,0,0,0.887695,-0.0649414,0.325195,48.0625,-18.3125,42.125,-0.488076,-1.13549,-0.460491
70,4,0,-4,-1,-1,-4,-3,0,0.887695,-0.0649414,0.325195,48.0625,-18.3125,42.125,-0.488076,-1.13549,-0.460491
71,0,-24,-2,3,1,-1,0,-1,0.887695,-0.0649414,0.325195,48.0625,-18.3125,42.125,-0.488076,-1.13549,-0.460491
71,-9,-42,-3,-3,1,0,-2,0,0.887695,-0.0649414,0.325195,48.0625,-18.3125,42.125,-0.488076,-1.13549,-0.460491
85,0,-19,2,0,-2,-3,0,-1,0.88623,-0.105957,0.358887,16.375,-17.1875,39,-0.509572,-1.13524,-0.429648
85,-3,-10,1,0,-1,-1,1,-2,0.88623,-0.105957,0.358887,16.375,-17.1875,39,-0.509572,-1.13524,-0.429648
85,0,13,0,2,-4,0,-2,-1,0.88623,-0.105957,0.358887,16.375,-17.1875,39,-0.509572,-1.13524,-0.429648
85,0,12,-2,-2,0,0,0,0,0.88623,-0.105957,0.358887,16.375,-17.1875,39,-0.509572,-1.13524,-0.429648
133,-5,4,3,2,0,-1,-1,-1,0.90918,-0.177246,0.357422,-2.1875,-15.875,31.5625,-0.56112,-1.1345,-0.372207
133,-4,1,2,3,-1,-1,-1,-1,0.90918,-0.177246,0.357422,-2.1875,-15.875,31.5625,-0.56112,-1.1345,-0.372207
134,-3,1,-1,-5,-1,0,-2,0,0.90918,-0.177246,0.357422,-2.1875,-15.875,31.5625,-0.56112,-1.1345,-0.372207
134,-3,-1,-4,-4,-1,0,-1,0,0.90918,-0.177246,0.357422,-2.1875,-15.875,31.5625,-0.56112,-1.1345,-0.372207
135,-3,-2,-4,0,-2,0,-1,0,0.90918,-0.177246,0.357422,-2.1875,-15.875,31.5625,-0.56112,-1.1345,-0.372207
135,-1,-1,-5,3,-2,0,1,-1,0.90918,-0.177246,0.357422,-2.1875,-15.875,31.5625,-0.56112,-1.1345,-0.372207
146,-1,-3,-4,2,-1,-1,1,-1,0.90918,-0.177246,0.357422,-2.1875,-15.875,31.5625,-0.56112,-1.1345,-0.372207
146,-1,-6,-3,-2,-1,-2,1,0,0.90918,-0.177246,0.357422,-2.1875,-15.875,31.5625,-0.56112,-1.1345,-0.372207
148,0,-9,-4,-2,-1,-2,-2,-1,0.924316,-0.156738,0.380371,-2.5625,-12.5625,26.625,-0.579441,-1.13364,-0.352058
148,2,-3,-4,0,0,-1,-3,1,0.924316,-0.156738,0.380371,-2.5625,-12.5625,26.625,-0.579441,-1.13364,-0.352058
152,2,-1,-2,-2,0,1,-1,0,0.924316,-0.156738,0.380371,-2.5625,-12.5625,26.625,-0.579441,-1.13364,-0.352058
152,0,-1,-2,-3,-1,2,-2,-1,0.924316,-0.156738,0.380371,-2.5625,-12.5625,26.625,-0.579441,-1.13364,-0.352058
160,20,-5,-5,-1,-1,-1,1,-1,0.909668,-0.126465,0.385254,-6.125,-7.375,21.1875,-0.591317,-1.13266,-0.34007
160,11,-2,1,1,-1,0,0,-1,0.909668,-0.126465,0.385254,-6.125,-7.375,21.1875,-0.591317,-1.13266,-0.34007
175,0,0,-1,-3,-1,-3,0,-3,0.909668,-0.126465,0.385254,-6.125,-7.375,21.1875,-0.591317,-1.13266,-0.34007
175,-13,3,-1,0,0,-2,-1,-2,0.909668,-0.126465,0.385254,-6.125,-7.375,21.1875,-0.591317,-1.13266,-0.34007
182,-18,3,-1,3,-2,-1,0,-1,0.879883,-0.0981445,0.415039,-10.0625,-1.375,13.4375,-0.594822,-1.13064,-0.338309
182,-19,0,-2,-2,1,-1,0,-1,0.879883,-0.0981445,0.415039,-10.0625,-1.375,13.4375,-0.594822,-1.13064,-0.338309
197,-13,2,-1,-2,-2,-1,-1,0,0.879883,-0.0981445,0.415039,-10.0625,-1.375,13.4375,-0.594822,-1.13064,-0.338309
197,-23,1,0,-1,-1,0,-2,1,0.879883,-0.0981445,0.415039,-10.0625,-1.375,13.4375,-0.594822,-1.13064,-0.338309
206,-18,1,2,-8,-1,-2,-1,-1,0.869141,-0.0742188,0.391602,-16.375,0.8125,4.25,-0.593642,-1.13055,-0.343949
206,0,1,-3,-7,-2,1,-2,-3,0.869141,-0.0742188,0.391602,-16.375,0.8125,4.25,-0.593642,-1.13055,-0.343949
220,2,-3,-3,0,-2,-2,-1,0,0.869141,-0.0742188,0.391602,-16.375,0.8125,4.25,-0.593642,-1.13055,-0.343949
220,13,-2,-1,0,0,1,-2,-1,0.869141,-0.0742188,0.391602,-16.375,0.8125,4.25,-0.593642,-1.13055,-0.343949
227,10,-1,-1,7,-1,0,-2,-1,0.878418,-0.0541992,0.368164,-24.9375,-2.5625,-1.625,-0.593116,-1.13329,-0.352298
227,3,1,0,2,-1,-3,-2,-2,0.878418,-0.0541992,0.368164,-24.9375,-2.5625,-1.625,-0.593116,-1.13329,-0.352298
243,6,-3,1,2,-1,2,-1,0,0.878418,-0.0541992,0.368164,-24.9375,-2.5625,-1.625,-0.593116,-1.13329,-0.352298
243,31,-3,-1,1,-2,-1,-1,-2,0.878418,-0.0541992,0.368164,-24.9375,-2.5625,-1.625,-0.593116,-1.13329,-0.352298
245,14,0,-2,1,1,0,-1,-1,0.922852,-0.10498,0.421387,-20.5,-1.6875,-9,-0.586757,-1.13584,-0.365457
245,5,-1,0,-3,-2,-1,-1,0,0.922852,-0.10498,0.421387,-20.5,-1.6875,-9,-0.586757,-1.13584,-0.365457
265,-2,1,0,-3,0,0,-3,0,0.922852,-0.10498,0.421387,-20.5,-1.6875,-9,-0.586757,-1.13584,-0.365457
265,-9,-1,-1,-4,-1,-3,-1,0,0.922852,-0.10498,0.421387,-20.5,-1.6875,-9,-0.586757,-1.13584,-0.365457
267,-7,1,0,-3,0,0,-1,-1,0.88916,-0.0546875,0.41748,-9.1875,4.6875,-19.375,-0.565358,-1.13897,-0.390701
267,-4,1,2,-2,-2,-2,0,-1,0.88916,-0.0546875,0.41748,-9.1875,4.6875,-19.375,-0.565358,-1.13897,-0.390701
280,-3,3,2,0,-2,0,-1,-1,0.88916,-0.0546875,0.41748,-9.1875,4.6875,-19.375,-0.565358,-1.13897,-0.390701
280,-1,2,1,0,-3,0,-1,0,0.88916,-0.0546875,0.41748,-9.1875,4.6875,-19.375,-0.565358,-1.13897,-0.390701
287,0,0,-1,0,-2,-1,-1,-1,0.834961,0.0429688,0.338379,-29,-1.875,-27.875,-0.545849,-1.14725,-0.420949
287,-2,0,-3,2,-2,0,0,-1,0.834961,0.0429688,0.338379,-29,-1.875,-27.875,-0.545849,-1.14725,-0.420949
303,-1,2,-1,-4,0,0,-1,-1,0.834961,0.0429688,0.338379,-29,-1.875,-27.875,-0.545849,-1.14725,-0.420949
303,-1,-1,-4,-3,0,-3,0,-1,0.834961,0.0429688,0.338379,-29,-1.875,-27.875,-0.545849,-1.14725,-0.420949
305,0,0,-2,-2,-1,-1,-2,0,0.880859,-0.0161133,0.253906,-67.4375,-11.125,-32.25,-0.545205,-1.15994,-0.446165
305,1,-1,0,3,-1,-1,-1,2,0.880859,-0.0161133,0.253906,-67.4375,-11.125,-32.25,-0.545205,-1.15994,-0.446165
326,1,-2,-1,-3,-1,-3,-1,-2,0.880859,-0.0161133,0.253906,-67.4375,-11.125,-32.25,-0.545205,-1.15994,-0.446165
326,1,2,-2,-4,-3,-1,-2,-1,0.880859,-0.0161133,0.253906,-67.4375,-11.125,-32.25,-0.545205,-1.15994,-0.446165
328,-2,-2,-1,-2,-1,1,0,-1,0.952148,-0.210449,0.22168,-89.75,-14.625,-35.0625,-0.561988,-1.1728,-0.462383
328,1,-4,-1,-4,-1,-2,-1,0,0.952148,-0.210449,0.22168,-89.75,-14.625,-35.0625,-0.561988,-1.1728,-0.462383
340,0,-7,-3,-5,0,-1,-1,-1,0.952148,-0.210449,0.22168,-89.75,-14.625,-35.0625,-0.561988,-1.1728,-0.462383
340,-1,-7,-2,1,1,-1,0,-2,0.952148,-0.210449,0.22168,-89.75,-14.625,-35.0625,-0.561988,-1.1728,-0.462383
346,-2,-4,1,1,-1,0,-1,-1,0.956055,-0.329102,0.254883,-79.5,-13.25,-38.6875,-0.577178,-1.184,-0.477438
346,3,-3,1,-1,-2,0,0,1,0.956055,-0.329102,0.254883,-79.5,-13.25,-38.6875,-0.577178,-1.184,-0.477438
363,2,-3,1,2,-2,-2,-2,-2,0.956055,-0.329102,0.254883,-79.5,-13.25,-38.6875,-0.577178,-1.184,-0.477438
363,-3,-4,0,-2,0,0,-1,-1,0.956055,-0.329102,0.254883,-79.5,-13.25,-38.6875,-0.577178,-1.184,-0.477438
365,0,-1,-1,2,0,-1,-1,-2,0.894043,-0.319336,0.277344,-41.375,-13.5,-43.125,-0.574452,-1.19497,-0.49729
365,0,-1,-2,2,3,0,1,-3,0.894043,-0.319336,0.277344,-41.375,-13.5,-43.125,-0.574452,-1.19497,-0.49729
385,1,1,-1,0,0,-1,-1,-1,0.894043,-0.319336,0.277344,-41.375,-13.5,-43.125,-0.574452,-1.19497,-0.49729
385,-1,2,1,2,-1,-2,0,-1,0.894043,-0.319336,0.277344,-41.375,-13.5,-43.125,-0.574452,-1.19497,-0.49729
394,2,1,-2,0,0,-1,-1,-1,0.904785,-0.283203,0.283203,0.25,-21.3125,-42.875,-0.557898,-1.20812,-0.515792
394,-1,1,-1,-1,-1,-2,-4,-1,0.904785,-0.283203,0.283203,0.25,-21.3125,-42.875,-0.557898,-1.20812,-0.515792
400,0,1,-2,-3,-1,-1,-2,0,0.904785,-0.283203,0.283203,0.25,-21.3125,-42.875,-0.557898,-1.20812,-0.515792
400,-1,1,-1,-1,1,-1,0,-1,0.904785,-0.283203,0.283203,0.25,-21.3125,-42.875,-0.557898,-1.20812,-0.515792
408,-2,1,1,-1,1,-3,-1,-2,0.931641,-0.198242,0.280273,26.125,-25.0625,-41.6875,-0.529748,-1.22298,-0.536232
408,-2,0,0,-1,0,0,-2,-1,0.931641,-0.198242,0.280273,26.125,-25.0625,-41.6875,-0.529748,-1.22298,-0.536232
424,-1,1,-2,1,-1,-1,-2,-2,0.931641,-0.198242,0.280273,26.125,-25.0625,-41.6875,-0.529748,-1.22298,-0.536232
424,-3,1,-2,1,-1,0,-2,-1,0.931641,-0.198242,0.280273,26.125,-25.0625,-41.6875,-0.529748,-1.22298,-0.536232
425,-2,-5,-1,-2,-2,-1,-1,0,0.940918,-0.115723,0.275879,29.25,-25.75,-39.9375,-0.495345,-1.2382,-0.561573
425,-2,-8,-1,-1,-1,0,0,0,0.940918,-0.115723,0.275879,29.25,-25.75,-39.9375,-0.495345,-1.2382,-0.561573
446,-1,-6,-1,-1,0,-1,-1,0,0.940918,-0.115723,0.275879,29.25,-25.75,-39.9375,-0.495345,-1.2382,-0.561573
446,-2,-6,-3,-3,0,1,2,-1,0.940918,-0.115723,0.275879,29.25,-25.75,-39.9375,-0.495345,-1.2382,-0.561573
447,-1,-4,-2,0,-2,-1,1,0,0.968262,-0.0463867,0.285156,13.6875,-24.875,-35.125,-0.463451,-1.25251,-0.58937
447,-2,-11,-1,0,-2,-2,-2,-3,0.968262,-0.0463867,0.285156,13.6875,-24.875,-35.125,-0.463451,-1.25251,-0.58937
460,0,-14,-1,0,-2,0,0,0,0.968262,-0.0463867,0.285156,13.6875,-24.875,-35.125,-0.463451,-1.25251,-0.58937
460,0,-3,1,0,-1,-1,-2,-2,0.968262,-0.0463867,0.285156,13.6875,-24.875,-35.125,-0.463451,-1.25251,-0.58937
467,0,6,0,-1,-1,0,-1,-2,0.983887,-0.0375977,0.29541,-12.6875,-21.5625,-34.375,-0.437443,-1.26538,-0.620898
467,-3,13,0,-3,0,-3,0,0,0.983887,-0.0375977,0.29541,-12.6875,-21.5625,-34.375,-0.437443,-1.26538,-0.620898
483,-2,12,-1,0,1,-2,0,-1,0.983887,-0.0375977,0.29541,-12.6875,-21.5625,-34.375,-0.437443,-1.26538,-0.620898
483,0,9,-1,0,1,-1,-3,0,0.983887,-0.0375977,0.29541,-12.6875,-21.5625,-34.375,-0.437443,-1.26538,-0.620898
485,-3,8,0,-2,-1,-1,-1,-2,0.987793,-0.09375,0.305176,-35.0625,-17.0625,-36.5,-0.417001,-1.27551,-0.654586
485,1,8,-2,-1,-3,1,-1,-1,0.987793,-0.09375,0.305176,-35.0625,-17.0625,-36.5,-0.417001,-1.27551,-0.654586
506,1,6,-2,-4,-2,-1,-1,-1,0.987793,-0.09375,0.305176,-35.0625,-17.0625,-36.5,-0.417001,-1.27551,-0.654586
506,1,2,0,0,-3,-2,0,-2,0.987793,-0.09375,0.305176,-35.0625,-17.0625,-36.5,-0.417001,-1.27551,-0.654586
507,-1,0,-1,1,-2,-1,-1,-2,0.98584,-0.130859,0.29541,-42.625,-12.1875,-37.8125,-0.397718,-1.28384,-0.69031
507,-2,-1,-1,-3,-2,-2,0,-1,0.98584,-0.130859,0.29541,-42.625,-12.1875,-37.8125,-0.397718,-1.28384,-0.69031
519,-2,2,1,-1,-1,-1,-1,0,0.98584,-0.130859,0.29541,-42.625,-12.1875,-37.8125,-0.397718,-1.28384,-0.69031
519,0,-2,-2,-2,-2,-1,-1,1,0.98584,-0.130859,0.29541,-42.625,-12.1875,-37.8125,-0.397718,-1.28384,-0.69031
528,-1,-2,-2,-3,-2,-3,-1,0,0.983887,-0.132812,0.311035,-43.5,-8.4375,-38.0625,-0.375069,-1.29054,-0.730124
528,-2,-3,-1,-2,-2,-1,0,0,0.983887,-0.132812,0.311035,-43.5,-8.4375,-38.0625,-0.375069,-1.29054,-0.730124
551,-1,-2,0,-3,0,-1,-1,-2,0.983887,-0.132812,0.311035,-43.5,-8.4375,-38.0625,-0.375069,-1.29054,-0.730124
551,-1,-4,0,-3,1,-1,0,-2,0.983887,-0.132812,0.311035,-43.5,-8.4375,-38.0625,-0.375069,-1.29054,-0.730124
553,0,-4,-1,1,0,0,2,0,0.97998,-0.163086,0.313965,-43.875,-8.625,-37.5625,-0.354721,-1.296,-0.767202
553,-2,1,-1,0,0,-1,-1,-3,0.97998,-0.163086,0.313965,-43.875,-8.625,-37.5625,-0.354721,-1.296,-0.767202
566,-2,5,-1,-1,-3,-3,0,-2,0.97998,-0.163086,0.313965,-43.875,-8.625,-37.5625,-0.354721,-1.296,-0.767202
566,0,4,-1,0,-1,-2,-4,-1,0.97998,-0.163086,0.313965,-43.875,-8.625,-37.5625,-0.354721,-1.296,-0.767202
568,-1,0,-2,0,-1,-1,-1,-2,0.968262,-0.141602,0.282715,-41.9375,-9.3125,-36.1875,-0.334635,-1.30243,-0.803751
568,2,-1,-1,-1,0,-1,-1,-1,0.968262,-0.141602,0.282715,-41.9375,-9.3125,-36.1875,-0.334635,-1.30243,-0.803751
579,-1,-4,-1,0,-1,0,0,0,0.968262,-0.141602,0.282715,-41.9375,-9.3125,-36.1875,-0.334635,-1.30243,-0.803751
579,-3,-4,0,1,-2,-2,-1,-3,0.968262,-0.141602,0.282715,-41.9375,-9.3125,-36.1875,-0.334635,-1.30243,-0.803751
588,-1,-1,0,-2,0,-1,-1,0,0.916016,-0.0712891,0.271973,-47.0625,-6.9375,-35.8125,-0.308799,-1.30775,-0.847356
588,0,-3,-1,0,-2,-2,-1,0,0.916016,-0.0712891,0.271973,-47.0625,-6.9375,-35.8125,-0.308799,-1.30775,-0.847356
604,-1,-1,-2,0,-1,-1,-1,1,0.916016,-0.0712891,0.271973,-47.0625,-6.9375,-35.8125,-0.308799,-1.30775,-0.847356
604,-1,-2,-2,-3,-1,1,-1,0,0.916016,-0.0712891,0.271973,-47.0625,-6.9375,-35.8125,-0.308799,-1.30775,-0.847356
605,-2,-1,-1,-2,-1,-1,-3,-2,0.873047,-0.0410156,0.281738,-59.3125,-5.1875,-36.9375,-0.281299,-1.31185,-0.896677
605,-2,-1,-1,-2,0,-1,-1,0,0.873047,-0.0410156,0.281738,-59.3125,-5.1875,-36.9375,-0.281299,-1.31185,-0.896677
626,-1,1,-1,-2,-2,-1,-1,-1,0.873047,-0.0410156,0.281738,-59.3125,-5.1875,-36.9375,-0.281299,-1.31185,-0.896677
626,-4,-1,-1,2,0,0,-1,-2,0.873047,-0.0410156,0.281738,-59.3125,-5.1875,-36.9375,-0.281299,-1.31185,-0.896677
627,0,0,-2,1,-2,0,-2,-1,0.836914,-0.0341797,0.275391,-65.125,-5.125,-32.75,-0.260182,-1.3153,-0.941852
627,-1,2,-3,-1,2,1,-1,0,0.836914,-0.0341797,0.275391,-65.125,-5.125,-32.75,-0.260182,-1.3153,-0.941852
640,0,-3,0,-1,-2,-1,-2,0,0.836914,-0.0341797,0.275391,-65.125,-5.125,-32.75,-0.260182,-1.3153,-0.941852
640,-1,1,-1,-2,0,-1,0,0,0.836914,-0.0341797,0.275391,-65.125,-5.125,-32.75,-0.260182,-1.3153,-0.941852
649,1,0,-1,1,-2,-2,-2,-1,0.824219,-0.0458984,0.267578,-54.1875,-5.25,-28.1875,-0.242206,-1.3184,-0.980161
649,0,-1,1,-3,0,-3,-2,-1,0.824219,-0.0458984,0.267578,-54.1875,-5.25,-28.1875,-0.242206,-1.3184,-0.980161
664,-1,-1,-2,-2,-2,-2,-1,-1,0.824219,-0.0458984,0.267578,-54.1875,-5.25,-28.1875,-0.242206,-1.3184,-0.980161
664,0,-3,-2,-1,-3,0,-2,-1,0.824219,-0.0458984,0.267578,-54.1875,-5.25,-28.1875,-0.242206,-1.3184,-0.980161
665,-2,-3,1,-2,1,1,1,-2,0.841309,-0.0195312,0.244629,-44.5,-1.4375,-26.75,-0.219316,-1.32026,-1.01941
665,0,-3,-1,-2,-1,-1,0,0,0.841309,-0.0195312,0.244629,-44.5,-1.4375,-26.75,-0.219316,-1.32026,-1.01941
686,0,-2,-3,-1,2,0,-1,-2,0.841309,-0.0195312,0.244629,-44.5,-1.4375,-26.75,-0.219316,-1.32026,-1.01941
686,-1,-2,-3,0,1,-3,-1,-2,0.841309,-0.0195312,0.244629,-44.5,-1.4375,-26.75,-0.219316,-1.32026,-1.01941
688,0,7,1,0,0,-2,1,-1,0.866211,0.00146484,0.283203,-41.8125,-0.5,-25.125,-0.194935,-1.32099,-1.05925
688,-1,2,0,-2,-1,1,-1,-3,0.866211,0.00146484,0.283203,-41.8125,-0.5,-25.125,-0.194935,-1.32099,-1.05925
699,-3,-1,1,-1,-1,-1,0,-2,0.866211,0.00146484,0.283203,-41.8125,-0.5,-25.125,-0.194935,-1.32099,-1.05925
699,-2,0,2,0,0,0,0,0,0.866211,0.00146484,0.283203,-41.8125,-0.5,-25.125,-0.194935,-1.32099,-1.05925
709,0,-1,-1,-1,-2,-2,1,-1,0.939453,-0.015625,0.288574,-37.0625,-4.0625,-22,-0.17557,-1.32263,-1.09243
709,0,3,0,3,0,-1,-2,-1,0.939453,-0.015625,0.288574,-37.0625,-4.0625,-22,-0.17557,-1.32263,-1.09243
724,3,3,0,-1,0,-1,-1,1,0.939453,-0.015625,0.288574,-37.0625,-4.0625,-22,-0.17557,-1.32263,-1.09243
724,0,-1,-2,-2,-1,0,-2,0,0.939453,-0.015625,0.288574,-37.0625,-4.0625,-22,-0.17557,-1.32263,-1.09243
725,-1,-4,-2,0,0,-3,0,-1,1.0249,-0.0126953,0.288086,-32.3125,-4.5,-20.9375,-0.156108,-1.32446,-1.12363
725,0,-3,-2,-2,-2,-2,0,-1,1.0249,-0.0126953,0.288086,-32.3125,-4.5,-20.9375,-0.156108,-1.32446,-1.12363
745,-2,-3,-1,0,-2,0,0,0,1.0249,-0.0126953,0.288086,-32.3125,-4.5,-20.9375,-0.156108,-1.32446,-1.12363
745,0,-1,1,0,-3,-2,-1,0,1.0249,-0.0126953,0.288086,-32.3125,-4.5,-20.9375,-0.156108,-1.32446,-1.12363
747,-4,-6,-1,1,-1,-1,-2,-2,1.06201,0.0112305,0.30957,-34.625,-4.875,-18.625,-0.138117,-1.32622,-1.15444
747,0,-3,0,1,-2,-1,-1,1,1.06201,0.0112305,0.30957,-34.625,-4.875,-18.625,-0.138117,-1.32622,-1.15444
760,-1,-8,-2,-1,-3,-1,-1,-2,1.06201,0.0112305,0.30957,-34.625,-4.875,-18.625,-0.138117,-1.32622,-1.15444
760,1,10,-2,-1,-1,-1,0,0,1.06201,0.0112305,0.30957,-34.625,-4.875,-18.625,-0.138117,-1.32622,-1.15444
768,-3,22,1,-2,-2,-1,-2,1,1.08008,0.0385742,0.311523,-37.6875,-6.8125,-15.5625,-0.122974,-1.32889,-1.18361
768,-3,14,-1,1,1,-1,0,-2,1.08008,0.0385742,0.311523,-37.6875,-6.8125,-15.5625,-0.122974,-1.32889,-1.18361
783,-2,3,1,0,0,0,0,-1,1.08008,0.0385742,0.311523,-37.6875,-6.8125,-15.5625,-0.122974,-1.32889,-1.18361
783,0,-9,0,0,0,-2,-2,-3,1.08008,0.0385742,0.311523,-37.6875,-6.8125,-15.5625,-0.122974,-1.32889,-1.18361
785,2,-12,0,0,-2,0,-1,-1,1.05957,0.0366211,0.312012,-36.1875,-7.75,-10.9375,-0.114249,-1.33074,-1.2049
785,1,-14,-2,-1,-1,-1,-2,0,1.05957,0.0366211,0.312012,-36.1875,-7.75,-10.9375,-0.114249,-1.33074,-1.2049
806,-2,-13,-1,0,-1,-1,-4,-1,1.05957,0.0366211,0.312012,-36.1875,-7.75,-10.9375,-0.114249,-1.33074,-1.2049
806,1,-7,0,-1,-1,-1,-1,0,1.05957,0.0366211,0.312012,-36.1875,-7.75,-10.9375,-0.114249,-1.33074,-1.2049
807,-2,-11,-1,-1,-2,-1,-2,0,1,0.0400391,0.314941,-28.625,-7.25,-6.4375,-0.108072,-1.3316,-1.2207
807,-5,-8,-1,-4,-3,1,-1,-1,1,0.0400391,0.314941,-28.625,-7.25,-6.4375,-0.108072,-1.3316,-1.2207
828,-3,-1,-1,-1,-1,0,1,-2,1,0.0400391,0.314941,-28.625,-7.25,-6.4375,-0.108072,-1.3316,-1.2207
828,-3,0,0,1,0,-1,0,0,1,0.0400391,0.314941,-28.625,-7.25,-6.4375,-0.108072,-1.3316,-1.2207
830,0,1,-2,-1,0,-1,0,0,0.937988,0.0571289,0.297852,-18.125,-5.8125,-4,-0.100711,-1.3324,-1.2345
830,1,1,0,0,-2,0,0,-2,0.937988,0.0571289,0.297852,-18.125,-5.8125,-4,-0.100711,-1.3324,-1.2345
843,2,7,-2,0,-1,-2,-1,-1,0.937988,0.0571289,0.297852,-18.125,-5.8125,-4,-0.100711,-1.3324,-1.2345
843,-1,4,-3,-1,0,0,0,-1,0.937988,0.0571289,0.297852,-18.125,-5.8125,-4,-0.100711,-1.3324,-1.2345
845,1,1,-1,-1,-3,1,-1,-2,0.873535,0.0664062,0.283203,-9.625,-3.1875,-0.5625,-0.0940569,-1.33175,-1.2439
845,0,-3,0,-2,1,-2,0,-2,0.873535,0.0664062,0.283203,-9.625,-3.1875,-0.5625,-0.0940569,-1.33175,-1.2439
866,-2,-2,0,-1,-2,-1,0,0,0.873535,0.0664062,0.283203,-9.625,-3.1875,-0.5625,-0.0940569,-1.33175,-1.2439
866,-1,-10,0,0,-4,-2,-2,-1,0.873535,0.0664062,0.283203,-9.625,-3.1875,-0.5625,-0.0940569,-1.33175,-1.2439
867,1,-14,0,-2,-2,-2,-4,0,0.829102,0.059082,0.282715,-1.125,-0.5,3.25,-0.0904993,-1.33039,-1.2478
867,0,-8,0,3,-1,-2,-1,-2,0.829102,0.059082,0.282715,-1.125,-0.5,3.25,-0.0904993,-1.33039,-1.2478
879,0,-4,-2,-1,1,-1,0,-2,0.829102,0.059082,0.282715,-1.125,-0.5,3.25,-0.0904993,-1.33039,-1.2478
879,-1,-1,-1,0,0,-1,0,-1,0.829102,0.059082,0.282715,-1.125,-0.5,3.25,-0.0904993,-1.33039,-1.2478
896,-2,0,-4,-2,0,1,0,0,0.818359,0.0488281,0.287598,5.6875,0.625,6.0625,-0.0893893,-1.32787,-1.24625
896,1,5,-4,0,-1,-1,0,-1,0.818359,0.0488281,0.287598,5.6875,0.625,6.0625,-0.0893893,-1.32787,-1.24625
903,0,8,-5,-1,-1,-1,-1,0,0.818359,0.0488281,0.287598,5.6875,0.625,6.0625,-0.0893893,-1.32787,-1.24625
903,0,2,-3,-2,-3,-2,-2,-1,0.818359,0.0488281,0.287598,5.6875,0.625,6.0625,-0.0893893,-1.32787,-1.24625
905,0,1,-2,1,-1,0,-2,-1,0.82959,0.0546875,0.290039,8.875,1.5625,6.8125,-0.0873792,-1.32529,-1.24468
905,-1,-1,-1,1,-1,-2,-4,-2,0.82959,0.0546875,0.290039,8.875,1.5625,6.8125,-0.0873792,-1.32529,-1.24468
926,1,-3,0,-1,-1,-1,-1,-2,0.82959,0.0546875,0.290039,8.875,1.5625,6.8125,-0.0873792,-1.32529,-1.24468
926,0,-1,1,-2,-1,0,-2,-2,0.82959,0.0546875,0.290039,8.875,1.5625,6.8125,-0.0873792,-1.32529,-1.24468
928,-1,-2,-2,0,-1,-1,-1,0,0.862305,0.0512695,0.302246,9.8125,2.125,7.1875,-0.086079,-1.32284,-1.24235
928,-3,-2,0,-4,-1,-1,-1,1,0.862305,0.0512695,0.302246,9.8125,2.125,7.1875,-0.086079,-1.32284,-1.24235
940,0,-3,0,-2,1,-1,-2,-1,0.862305,0.0512695,0.302246,9.8125,2.125,7.1875,-0.086079,-1.32284,-1.24235
940,-1,0,0,0,-2,1,0,-2,0.862305,0.0512695,0.302246,9.8125,2.125,7.1875,-0.086079,-1.32284,-1.24235
949,-2,-1,0,0,1,-2,-1,-2,0.900879,0.0263672,0.311523,11.375,1.1875,7.75,-0.0871233,-1.31981,-1.23632
949,0,0,-2,2,1,-1,1,0,0.900879,0.0263672,0.311523,11.375,1.1875,7.75,-0.0871233,-1.31981,-1.23632
964,0,0,0,-1,-1,-3,0,-2,0.900879,0.0263672,0.311523,11.375,1.1875,7.75,-0.0871233,-1.31981,-1.23632
964,-2,0,-2,-2,1,-2,0,-1,0.900879,0.0263672,0.311523,11.375,1.1875,7.75,-0.0871233,-1.31981,-1.23632
965,-1,2,-1,-3,-1,0,-1,-1,0.927246,0.0112305,0.330078,15.5,-0.875,8.1875,-0.0889266,-1.3178,-1.22866
965,-1,3,0,-3,-2,0,-1,0,0.927246,0.0112305,0.330078,15.5,-0.875,8.1875,-0.0889266,-1.3178,-1.22866
986,0,-2,-2,-1,-1,1,-1,-2,0.927246,0.0112305,0.330078,15.5,-0.875,8.1875,-0.0889266,-1.3178,-1.22866
986,0,1,0,-2,-1,-2,1,-1,0.927246,0.0112305,0.330078,15.5,-0.875,8.1875,-0.0889266,-1.3178,-1.22866
987,-1,3,3,-5,-1,-2,-1,-1,0.930176,0.0170898,0.339844,19.4375,-2.0625,7.6875,-0.0881648,-1.31624,-1.22232
987,-4,-3,-1,1,-1,0,-2,-1,0.930176,0.0170898,0.339844,19.4375,-2.0625,7.6875,-0.0881648,-1.31624,-1.22232
999,-2,2,-1,0,-1,1,0,-1,0.930176,0.0170898,0.339844,19.4375,-2.0625,7.6875,-0.0881648,-1.31624,-1.22232
999,-2,2,-3,-2,-1,-1,0,-1,0.930176,0.0170898,0.339844,19.4375,-2.0625,7.6875,-0.0881648,-1.31624,-1.22232
1009,0,0,-1,-1,0,-2,-1,-1,0.91748,0.0195312,0.359375,22.1875,-3.6875,7.25,-0.0858189,-1.31455,-1.2165
1009,1,0,-1,-3,-2,-1,0,0,0.91748,0.0195312,0.359375,22.1875,-3.6875,7.25,-0.0858189,-1.31455,-1.2165
1024,0,-2,-1,-2,-3,-3,-1,0,0.91748,0.0195312,0.359375,22.1875,-3.6875,7.25,-0.0858189,-1.31455,-1.2165
1024,1,0,-1,0,0,0,-2,0,0.91748,0.0195312,0.359375,22.1875,-3.6875,7.25,-0.0858189,-1.31455,-1.2165
1025,-1,1,-2,0,-1,-3,-1,-2,0.905762,-0.000488281,0.369629,25.5625,-6.5,6.75,-0.0833564,-1.31349,-1.20957
1025,4,4,-1,0,1,-1,1,1,0.905762,-0.000488281,0.369629,25.5625,-6.5,6.75,-0.0833564,-1.31349,-1.20957
1053,-1,1,0,0,-1,-2,-3,-4,0.905762,-0.000488281,0.369629,25.5625,-6.5,6.75,-0.0833564,-1.31349,-1.20957
1053,-2,-2,0,-1,-2,-1,-2,-2,0.905762,-0.000488281,0.369629,25.5625,-6.5,6.75,-0.0833564,-1.31349,-1.20957
1054,1,-1,-2,-1,-1,0,0,1,0.905762,-0.00634766,0.362305,27.6875,-8.5625,5.4375,-0.0796927,-1.31323,-1.20298
1054,-2,-1,1,-2,-1,-1,0,-2,0.905762,-0.00634766,0.362305,27.6875,-8.5625,5.4375,-0.0796927,-1.31323,-1.20298
1059,0,-1,-1,0,0,-1,0,0,0.905762,-0.00634766,0.362305,27.6875,-8.5625,5.4375,-0.0796927,-1.31323,-1.20298
1059,-2,-5,-5,-3,1,-1,-1,-2,0.905762,-0.00634766,0.362305,27.6875,-8.5625,5.4375,-0.0796927,-1.31323,-1.20298
1068,-1,-1,-2,1,-1,-1,-2,-1,0.885254,-0.0117188,0.361328,29,-10.9375,4.1875,-0.0750355,-1.31419,-1.19758
1068,-1,0,-1,1,-2,-2,-2,-1,0.885254,-0.0117188,0.361328,29,-10.9375,4.1875,-0.0750355,-1.31419,-1.19758
1083,-1,0,-2,-1,-1,0,0,0,0.885254,-0.0117188,0.361328,29,-10.9375,4.1875,-0.0750355,-1.31419,-1.19758
1083,2,6,1,1,-3,0,0,0,0.885254,-0.0117188,0.361328,29,-10.9375,4.1875,-0.0750355,-1.31419,-1.19758
1084,-4,-7,-4,-2,-3,-1,0,-1,0.887695,-0.00439453,0.341309,27.9375,-11.9375,2.5625,-0.0680896,-1.3153,-1.19418
1084,1,2,-2,-1,1,-1,0,-1,0.887695,-0.00439453,0.341309,27.9375,-11.9375,2.5625,-0.0680896,-1.3153,-1.19418
1104,-3,-4,0,-2,-2,-1,-1,-1,0.887695,-0.00439453,0.341309,27.9375,-11.9375,2.5625,-0.0680896,-1.3153,-1.19418
1104,0,0,0,0,0,1,0,0,0.887695,-0.00439453,0.341309,27.9375,-11.9375,2.5625,-0.0680896,-1.3153,-1.19418
1113,-1,1,0,-2,1,-1,2,-1,0.880859,0.00878906,0.328613,23.5625,-11.8125,1.5625,-0.0599691,-1.31699,-1.19381
1113,-1,-1,0,2,1,1,1,0,0.880859,0.00878906,0.328613,23.5625,-11.8125,1.5625,-0.0599691,-1.31699,-1.19381
1128,0,3,-1,0,-1,-1,-1,0,0.880859,0.00878906,0.328613,23.5625,-11.8125,1.5625,-0.0599691,-1.31699,-1.19381
1128,-4,-7,-4,0,-2,-1,-1,-1,0.880859,0.00878906,0.328613,23.5625,-11.8125,1.5625,-0.0599691,-1.31699,-1.19381
1130,0,-1,0,1,-1,-2,-3,0,0.876953,-0.000488281,0.31543,19.0625,-10.625,0.75,-0.053794,-1.31889,-1.19353
1130,-2,-4,-2,-5,-1,-1,-2,-2,0.876953,-0.000488281,0.31543,19.0625,-10.625,0.75,-0.053794,-1.31889,-1.19353
1159,1,0,-1,-3,0,-2,-2,-1,0.876953,-0.000488281,0.31543,19.0625,-10.625,0.75,-0.053794,-1.31889,-1.19353
1159,1,0,0,-2,1,-2,-1,1,0.876953,-0.000488281,0.31543,19.0625,-10.625,0.75,-0.053794,-1.31889,-1.19353
1160,1,2,0,1,-1,-1,0,-1,0.864258,-0.0283203,0.307617,19.4375,-10.875,0.9375,-0.0501439,-1.32047,-1.19028
1160,-2,0,2,1,0,-1,-1,-2,0.864258,-0.0283203,0.307617,19.4375,-10.875,0.9375,-0.0501439,-1.32047,-1.19028
1164,0,1,-3,0,0,0,1,1,0.864258,-0.0283203,0.307617,19.4375,-10.875,0.9375,-0.0501439,-1.32047,-1.19028
1164,-4,-6,1,-4,-3,-2,0,-2,0.864258,-0.0283203,0.307617,19.4375,-10.875,0.9375,-0.0501439,-1.32047,-1.19028
1173,-3,-1,-2,0,1,-1,-1,-2,0.865234,-0.0175781,0.290527,22.125,-9.625,0.9375,-0.0448106,-1.32174,-1.18759
1173,-2,-2,-4,-2,-2,-2,-1,0,0.865234,-0.0175781,0.290527,22.125,-9.625,0.9375,-0.0448106,-1.32174,-1.18759
1188,-1,-1,-2,-2,0,0,0,1,0.865234,-0.0175781,0.290527,22.125,-9.625,0.9375,-0.0448106,-1.32174,-1.18759
1188,-1,0,-2,1,-1,-1,1,-1,0.865234,-0.0175781,0.290527,22.125,-9.625,0.9375,-0.0448106,-1.32174,-1.18759
1190,0,0,1,-1,-1,1,-2,-1,0.860352,-0.00830078,0.287109,21.6875,-7.8125,2.0625,-0.0403628,-1.32309,-1.18463
1190,-2,-2,0,-1,-1,0,-3,-3,0.860352,-0.00830078,0.287109,21.6875,-7.8125,2.0625,-0.0403628,-1.32309,-1.18463
1210,-1,-5,-3,-2,-1,-1,0,-1,0.876953,-0.00195312,0.275879,16.75,-6.375,3.375,-0.038376,-1.32405,-1.18065
1210,0,1,0,1,-2,-2,-1,-1,0.876953,-0.00195312,0.275879,16.75,-6.375,3.375,-0.038376,-1.32405,-1.18065
1211,-2,-4,-1,-1,0,-1,0,-3,0.876953,-0.00195312,0.275879,16.75,-6.375,3.375,-0.038376,-1.32405,-1.18065
1211,2,0,0,0,-3,-1,0,0,0.876953,-0.00195312,0.275879,16.75,-6.375,3.375,-0.038376,-1.32405,-1.18065
1233,-1,-4,-1,2,1,-1,-3,0,0.878418,-0.0166016,0.278809,10.6875,-6,6.125,-0.0439943,-1.32421,-1.17061
1233,-2,1,1,0,-1,0,-2,0,0.878418,-0.0166016,0.278809,10.6875,-6,6.125,-0.0439943,-1.32421,-1.17061
1233,-3,-4,-3,-2,-3,-2,-1,0,0.878418,-0.0166016,0.278809,10.6875,-6,6.125,-0.0439943,-1.32421,-1.17061
1233,0,1,0,0,-2,-1,-1,-1,0.878418,-0.0166016,0.278809,10.6875,-6,6.125,-0.0439943,-1.32421,-1.17061
1248,-2,-4,1,-2,0,-2,1,-4,0.889648,-0.0224609,0.262207,7.6875,-5.625,7.9375,-0.0536982,-1.32507,-1.15791
1248,1,1,-2,1,-1,-2,-3,0,0.889648,-0.0224609,0.262207,7.6875,-5.625,7.9375,-0.0536982,-1.32507,-1.15791
1255,1,2,1,-1,-3,-1,-1,0,0.889648,-0.0224609,0.262207,7.6875,-5.625,7.9375,-0.0536982,-1.32507,-1.15791
1255,-3,0,0,-1,-1,-1,-1,1,0.889648,-0.0224609,0.262207,7.6875,-5.625,7.9375,-0.0536982,-1.32507,-1.15791
1270,-6,-2,-4,-1,-1,0,-2,-2,0.896484,-0.0185547,0.27002,5.3125,-5,10.625,-0.0670101,-1.32566,-1.14256
1270,-1,-3,-2,1,0,-3,0,-3,0.896484,-0.0185547,0.27002,5.3125,-5,10.625,-0.0670101,-1.32566,-1.14256
1271,0,0,-2,-2,-1,1,0,-1,0.896484,-0.0185547,0.27002,5.3125,-5,10.625,-0.0670101,-1.32566,-1.14256
1271,-1,-2,-4,-5,1,-1,-1,-1,0.896484,-0.0185547,0.27002,5.3125,-5,10.625,-0.0670101,-1.32566,-1.14256
1284,1,-2,-1,-1,-4,-1,0,0,0.935059,-0.0351562,0.268555,4.1875,-6.5,12.3125,-0.0847438,-1.32666,-1.12277
1284,1,1,1,-3,-1,-1,0,2,0.935059,-0.0351562,0.268555,4.1875,-6.5,12.3125,-0.0847438,-1.32666,-1.12277
1293,1,1,1,0,-3,0,-1,2,0.935059,-0.0351562,0.268555,4.1875,-6.5,12.3125,-0.0847438,-1.32666,-1.12277
1293,0,-2,0,0,0,-1,0,-2,0.935059,-0.0351562,0.268555,4.1875,-6.5,12.3125,-0.0847438,-1.32666,-1.12277
1308,-1,1,-1,-4,0,0,-1,-1,0.941406,-0.0385742,0.237305,1.25,-7,13.375,-0.105413,-1.32857,-1.10122
1308,3,5,2,1,-2,-2,0,0,0.941406,-0.0385742,0.237305,1.25,-7,13.375,-0.105413,-1.32857,-1.10122
1308,0,0,0,-2,0,0,-1,-1,0.941406,-0.0385742,0.237305,1.25,-7,13.375,-0.105413,-1.32857,-1.10122
1308,0,-1,-1,-3,-2,0,-2,0,0.941406,-0.0385742,0.237305,1.25,-7,13.375,-0.105413,-1.32857,-1.10122
1339,-5,-1,0,-1,-1,-1,0,-3,0.888672,-0.0234375,0.220215,-0.9375,-6.9375,15.75,-0.12858,-1.3303,-1.0776
1339,-5,-2,-1,-1,-1,-1,4,5,0.888672,-0.0234375,0.220215,-0.9375,-6.9375,15.75,-0.12858,-1.3303,-1.0776
1339,-3,1,-1,0,0,-1,-5,-8,0.888672,-0.0234375,0.220215,-0.9375,-6.9375,15.75,-0.12858,-1.3303,-1.0776
1339,-2,0,0,-1,-1,-2,-3,-4,0.888672,-0.0234375,0.220215,-0.9375,-6.9375,15.75,-0.12858,-1.3303,-1.0776
1345,2,0,0,-1,-2,-1,-1,1,0.835938,-0.0332031,0.209961,-0.8125,-7.0625,16.8125,-0.154167,-1.33155,-1.0515
1345,-1,-1,-2,-1,-2,0,-4,-3,0.835938,-0.0332031,0.209961,-0.8125,-7.0625,16.8125,-0.154167,-1.33155,-1.0515
1353,-2,-1,-2,1,-2,0,3,1,0.835938,-0.0332031,0.209961,-0.8125,-7.0625,16.8125,-0.154167,-1.33155,-1.0515
1353,-1,-4,-3,-1,0,-1,-1,1,0.835938,-0.0332031,0.209961,-0.8125,-7.0625,16.8125,-0.154167,-1.33155,-1.0515
1368,1,0,0,0,-1,-1,-1,-2,0.819336,-0.0664062,0.205078,0,-6.8125,15.25,-0.180077,-1.33257,-1.0249
1368,0,2,-1,-2,-1,-1,-1,-1,0.819336,-0.0664062,0.205078,0,-6.8125,15.25,-0.180077,-1.33257,-1.0249
1368,1,3,0,-3,-1,-2,-3,0,0.819336,-0.0664062,0.205078,0,-6.8125,15.25,-0.180077,-1.33257,-1.0249
1368,2,10,9,-1,0,1,0,-1,0.819336,-0.0664062,0.205078,0,-6.8125,15.25,-0.180077,-1.33257,-1.0249
1390,-6,-8,10,-1,-2,-2,-1,1,0.846191,-0.111816,0.217773,6.3125,-8.75,15.25,-0.208701,-1.33402,-0.993763
1390,-2,-4,-25,-1,-2,-1,0,-3,0.846191,-0.111816,0.217773,6.3125,-8.75,15.25,-0.208701,-1.33402,-0.993763
1391,0,-3,-1,-2,-2,-1,-3,-9,0.846191,-0.111816,0.217773,6.3125,-8.75,15.25,-0.208701,-1.33402,-0.993763
1391,0,-3,-1,0,-2,-2,1,6,0.846191,-0.111816,0.217773,6.3125,-8.75,15.25,-0.208701,-1.33402,-0.993763
1413,-4,-9,5,-4,0,-1,-2,-3,0.90332,-0.142578,0.197754,17.75,-11.375,14.25,-0.236117,-1.33633,-0.959453
1413,-1,-15,1,-4,0,-1,-1,-2,0.90332,-0.142578,0.197754,17.75,-11.375,14.25,-0.236117,-1.33633,-0.959453
1413,-2,-7,-2,2,0,-2,1,-5,0.90332,-0.142578,0.197754,17.75,-11.375,14.25,-0.236117,-1.33633,-0.959453
1413,-3,-8,-4,0,-1,-1,-1,2,0.90332,-0.142578,0.197754,17.75,-11.375,14.25,-0.236117,-1.33633,-0.959453
1428,-2,-8,-8,0,1,0,0,-3,0.931152,-0.109375,0.162598,22.9375,-11.25,13.25,-0.257946,-1.34002,-0.92923
1428,-1,-6,4,-1,-2,-2,0,-2,0.931152,-0.109375,0.162598,22.9375,-11.25,13.25,-0.257946,-1.34002,-0.92923
1429,1,-8,-1,0,-1,-1,3,4,0.931152,-0.109375,0.162598,22.9375,-11.25,13.25,-0.257946,-1.34002,-0.92923
1429,0,-3,1,-3,0,0,0,-3,0.931152,-0.109375,0.162598,22.9375,-11.25,13.25,-0.257946,-1.34002,-0.92923
1450,3,3,-5,0,-1,-1,-2,3,0.913574,-0.0551758,0.133301,18.25,-9.8125,12.375,-0.27504,-1.34395,-0.905473
1450,1,8,1,2,1,2,-2,-2,0.913574,-0.0551758,0.133301,18.25,-9.8125,12.375,-0.27504,-1.34395,-0.905473
1451,-1,7,3,0,0,0,1,7,0.913574,-0.0551758,0.133301,18.25,-9.8125,12.375,-0.27504,-1.34395,-0.905473
1451,-6,-2,-4,-2,0,-2,-2,-4,0.913574,-0.0551758,0.133301,18.25,-9.8125,12.375,-0.27504,-1.34395,-0.905473
1473,2,17,-1,0,-2,-2,-2,1,0.863281,-0.043457,0.124512,8.0625,-8.6875,11.625,-0.293597,-1.34722,-0.88344
1473,-1,11,-3,-2,-1,0,-2,-5,0.863281,-0.043457,0.124512,8.0625,-8.6875,11.625,-0.293597,-1.34722,-0.88344
1473,-3,0,-2,-2,-2,-2,1,4,0.863281,-0.043457,0.124512,8.0625,-8.6875,11.625,-0.293597,-1.34722,-0.88344
1473,0,2,-2,0,0,-1,0,0,0.863281,-0.043457,0.124512,8.0625,-8.6875,11.625,-0.293597,-1.34722,-0.88344
1487,-4,-4,-12,1,-4,-2,-2,-7,0.826172,-0.0791016,0.125,4.75,-8.5625,12,-0.317146,-1.34955,-0.857566
1487,3,19,11,4,0,-2,6,29,0.826172,-0.0791016,0.125,4.75,-8.5625,12,-0.317146,-1.34955,-0.857566
1488,0,-10,12,3,-1,0,0,-20,0.826172,-0.0791016,0.125,4.75,-8.5625,12,-0.317146,-1.34955,-0.857566
1488,0,-5,2,-2,-2,0,0,-6,0.826172,-0.0791016,0.125,4.75,-8.5625,12,-0.317146,-1.34955,-0.857566
1510,-1,-13,1,-3,-1,0,-1,-1,0.861328,-0.12793,0.136719,10.8125,-10.4375,10.4375,-0.342369,-1.35237,-0.828357
1510,1,-9,-2,1,-1,0,-1,-5,0.861328,-0.12793,0.136719,10.8125,-10.4375,10.4375,-0.342369,-1.35237,-0.828357
1510,0,18,7,-1,-1,0,-1,6,0.861328,-0.12793,0.136719,10.8125,-10.4375,10.4375,-0.342369,-1.35237,-0.828357
1510,-1,14,1,4,-1,1,2,1,0.861328,-0.12793,0.136719,10.8125,-10.4375,10.4375,-0.342369,-1.35237,-0.828357
1533,4,6,-6,-2,-1,1,-3,-3,0.946289,-0.163086,0.111816,13.5,-7.875,6.125,-0.364295,-1.35536,-0.801795
1533,1,-3,1,-6,2,-1,-3,-3,0.946289,-0.163086,0.111816,13.5,-7.875,6.125,-0.364295,-1.35536,-0.801795
1533,0,-7,-8,-1,1,-2,-1,1,0.946289,-0.163086,0.111816,13.5,-7.875,6.125,-0.364295,-1.35536,-0.801795
1533,-2,-12,-5,-1,-2,-2,1,-2,0.946289,-0.163086,0.111816,13.5,-7.875,6.125,-0.364295,-1.35536,-0.801795
1548,1,10,2,2,0,0,-1,5,0.98291,-0.169434,0.0986328,20.4375,-5.75,3.5625,-0.379509,-1.35834,-0.779685
1548,-3,-4,0,0,-2,0,-2,-7,0.98291,-0.169434,0.0986328,20.4375,-5.75,3.5625,-0.379509,-1.35834,-0.779685
1548,1,-22,-7,0,-2,0,-2,1,0.98291,-0.169434,0.0986328,20.4375,-5.75,3.5625,-0.379509,-1.35834,-0.779685
1548,-4,-15,-4,-6,0,-1,-1,-1,0.98291,-0.169434,0.0986328,20.4375,-5.75,3.5625,-0.379509,-1.35834,-0.779685
1570,2,-10,8,-1,2,0,0,0,0.985352,-0.0874023,0.0698242,19.625,-2.0625,1.25,-0.382143,-1.36145,-0.770043
1570,-6,-15,0,0,-1,-2,-3,-5,0.985352,-0.0874023,0.0698242,19.625,-2.0625,1.25,-0.382143,-1.36145,-0.770043
1571,-3,-9,-2,0,1,0,7,11,0.985352,-0.0874023,0.0698242,19.625,-2.0625,1.25,-0.382143,-1.36145,-0.770043
1571,2,-7,-8,2,0,0,-11,-17,0.985352,-0.0874023,0.0698242,19.625,-2.0625,1.25,-0.382143,-1.36145,-0.770043
1593,0,-41,47,0,0,-1,0,1,0.921875,-0.0507812,0.0629883,7.3125,-0.6875,0.875,-0.384223,-1.36454,-0.765696
1593,-8,-43,-42,-9,-7,-3,-5,-12,0.921875,-0.0507812,0.0629883,7.3125,-0.6875,0.875,-0.384223,-1.36454,-0.765696
1594,-1,-3,-3,-1,-3,-2,3,15,0.921875,-0.0507812,0.0629883,7.3125,-0.6875,0.875,-0.384223,-1.36454,-0.765696
1594,3,34,5,1,-1,-3,5,20,0.921875,-0.0507812,0.0629883,7.3125,-0.6875,0.875,-0.384223,-1.36454,-0.765696
1608,-3,35,-11,0,2,-1,-1,-15,0.890625,-0.0771484,0.0317383,-5.1875,-4.1875,2,-0.39857,-1.36833,-0.752909
1608,1,33,27,6,2,1,0,-5,0.890625,-0.0771484,0.0317383,-5.1875,-4.1875,2,-0.39857,-1.36833,-0.752909
1608,-1,3,-53,-8,-3,-2,-4,8,0.890625,-0.0771484,0.0317383,-5.1875,-4.1875,2,-0.39857,-1.36833,-0.752909
1608,-4,21,-7,1,-1,-1,0,-19,0.890625,-0.0771484,0.0317383,-5.1875,-4.1875,2,-0.39857,-1.36833,-0.752909
1630,2,15,50,0,-3,-2,-2,4,0.861816,-0.0708008,0.0361328,-10.1875,-4,1.4375,-0.413352,-1.37201,-0.74169
1630,-2,2,3,-4,-1,-2,-1,-5,0.861816,-0.0708008,0.0361328,-10.1875,-4,1.4375,-0.413352,-1.37201,-0.74169
1631,-6,-13,-5,-4,-3,-4,-1,4,0.861816,-0.0708008,0.0361328,-10.1875,-4,1.4375,-0.413352,-1.37201,-0.74169
1631,2,-20,3,1,1,2,-1,4,0.861816,-0.0708008,0.0361328,-10.1875,-4,1.4375,-0.413352,-1.37201,-0.74169
1652,-2,-19,-73,-2,-1,-3,-1,0,0.878418,-0.0878906,0.00878906,-17.1875,-3.25,-1.5625,-0.428018,-1.3762,-0.733053
1652,1,-24,40,2,-1,-1,-2,-2,0.878418,-0.0878906,0.00878906,-17.1875,-3.25,-1.5625,-0.428018,-1.3762,-0.733053
1654,-8,29,25,-1,-1,1,-6,-12,0.878418,-0.0878906,0.00878906,-17.1875,-3.25,-1.5625,-0.428018,-1.3762,-0.733053
1654,-22,21,-16,-5,-1,-1,-2,-1,0.878418,-0.0878906,0.00878906,-17.1875,-3.25,-1.5625,-0.428018,-1.3762,-0.733053
1668,-11,3,-8,0,-2,-2,3,4,0.893066,-0.0898438,0.03125,-23.3125,-1.875,-6,-0.437343,-1.38064,-0.73252
1668,-2,-13,-12,0,4,1,7,13,0.893066,-0.0898438,0.03125,-23.3125,-1.875,-6,-0.437343,-1.38064,-0.73252
1669,5,-24,-20,-1,-2,-2,-9,-31,0.893066,-0.0898438,0.03125,-23.3125,-1.875,-6,-0.437343,-1.38064,-0.73252
1669,15,-18,14,2,0,0,-2,5,0.893066,-0.0898438,0.03125,-23.3125,-1.875,-6,-0.437343,-1.38064,-0.73252
1690,3,-17,-26,-3,0,0,-3,-3,0.887695,-0.112793,0.0507812,-21.375,-3.625,-6.125,-0.447351,-1.38386,-0.729665
1690,11,61,44,4,2,-1,0,8,0.887695,-0.112793,0.0507812,-21.375,-3.625,-6.125,-0.447351,-1.38386,-0.729665
1690,4,-31,34,0,0,1,1,2,0.887695,-0.112793,0.0507812,-21.375,-3.625,-6.125,-0.447351,-1.38386,-0.729665
1690,8,-28,13,0,1,0,0,-2,0.887695,-0.112793,0.0507812,-21.375,-3.625,-6.125,-0.447351,-1.38386,-0.729665
1713,2,-82,-4,-1,-1,-3,-3,-3,0.948242,-0.110352,0.0405273,-13.1875,-4.8125,-8.5,-0.452427,-1.38908,-0.729942
1713,-3,-32,-29,-4,-5,-5,-2,8,0.948242,-0.110352,0.0405273,-13.1875,-4.8125,-8.5,-0.452427,-1.38908,-0.729942
1713,-1,30,2,5,4,1,0,-3,0.948242,-0.110352,0.0405273,-13.1875,-4.8125,-8.5,-0.452427,-1.38908,-0.729942
1713,2,-7,47,1,-4,-2,-2,1,0.948242,-0.110352,0.0405273,-13.1875,-4.8125,-8.5,-0.452427,-1.38908,-0.729942
1728,-3,32,-15,-5,-2,-3,-1,-4,0.998535,-0.0849609,0.0239258,-12,-3.4375,-12.125,-0.448123,-1.39495,-0.7389
1728,-3,-15,43,1,0,0,0,-5,0.998535,-0.0849609,0.0239258,-12,-3.4375,-12.125,-0.448123,-1.39495,-0.7389
1728,-9,11,-65,-12,-4,-5,-2,-3,0.998535,-0.0849609,0.0239258,-12,-3.4375,-12.125,-0.448123,-1.39495,-0.7389
1728,3,43,-14,2,2,1,3,7,0.998535,-0.0849609,0.0239258,-12,-3.4375,-12.125,-0.448123,-1.39495,-0.7389
1750,4,-22,9,1,-1,0,-1,0,1.03125,-0.074707,-0.0151367,-15.75,-1.4375,-14.8125,-0.438968,-1.4016,-0.754286
1750,-7,-37,-14,-4,-3,0,0,-6,1.03125,-0.074707,-0.0151367,-15.75,-1.4375,-14.8125,-0.438968,-1.4016,-0.754286
1751,0,-18,31,5,0,-6,-3,2,1.03125,-0.074707,-0.0151367,-15.75,-1.4375,-14.8125,-0.438968,-1.4016,-0.754286
1751,4,-18,-22,-6,-4,3,-2,7,1.03125,-0.074707,-0.0151367,-15.75,-1.4375,-14.8125,-0.438968,-1.4016,-0.754286
1773,-2,-7,5,-2,0,-1,-2,0,1.08643,-0.0668945,-0.00390625,-16.5625,0.5625,-15.875,-0.42355,-1.40739,-0.775973
1773,4,-24,-18,1,2,1,3,2,1.08643,-0.0668945,-0.00390625,-16.5625,0.5625,-15.875,-0.42355,-1.40739,-0.775973
1774,3,83,-5,-1,0,1,1,3,1.08643,-0.0668945,-0.00390625,-16.5625,0.5625,-15.875,-0.42355,-1.40739,-0.775973
1774,-4,106,-5,-5,-2,-3,-3,-11,1.08643,-0.0668945,-0.00390625,-16.5625,0.5625,-15.875,-0.42355,-1.40739,-0.775973
1788,-10,86,-5,-6,-1,-1,6,9,1.19434,-0.059082,0.0297852,-16.3125,2.1875,-16.375,-0.402221,-1.41232,-0.803498
1788,-1,25,-6,-1,1,-1,-2,1,1.19434,-0.059082,0.0297852,-16.3125,2.1875,-16.375,-0.402221,-1.41232,-0.803498
1789,3,-20,-17,0,-1,1,-1,-2,1.19434,-0.059082,0.0297852,-16.3125,2.1875,-16.375,-0.402221,-1.41232,-0.803498
1789,-2,16,3,1,0,-3,-2,-4,1.19434,-0.059082,0.0297852,-16.3125,2.1875,-16.375,-0.402221,-1.41232,-0.803498
1811,-1,-38,-4,-2,-2,0,-1,-4,1.25488,0.0410156,0.0351562,-14.875,9.125,-21.5,-0.348327,-1.4162,-0.862676
1811,-1,-34,-8,0,0,0,3,-3,1.25488,0.0410156,0.0351562,-14.875,9.125,-21.5,-0.348327,-1.4162,-0.862676
1812,-4,-22,28,-2,0,1,-2,-1,1.25488,0.0410156,0.0351562,-14.875,9.125,-21.5,-0.348327,-1.4162,-0.862676
1812,-6,-62,-22,0,-3,0,-1,-2,1.25488,0.0410156,0.0351562,-14.875,9.125,-21.5,-0.348327,-1.4162,-0.862676
1833,4,-18,16,0,0,0,1,4,1.2085,0.14502,0.00292969,-25.4375,13.9375,-22.875,-0.277442,-1.42035,-0.943758
1833,-4,26,-81,-7,-4,-4,-4,-5,1.2085,0.14502,0.00292969,-25.4375,13.9375,-22.875,-0.277442,-1.42035,-0.943758
1834,4,-3,38,9,-2,0,-1,-2,1.2085,0.14502,0.00292969,-25.4375,13.9375,-22.875,-0.277442,-1.42035,-0.943758
1834,-3,-47,-1,-4,0,-1,0,2,1.2085,0.14502,0.00292969,-25.4375,13.9375,-22.875,-0.277442,-1.42035,-0.943758
1856,-3,-17,-5,-6,-2,-1,-1,-4,1.20996,0.160645,0.019043,-44.75,15.125,-20,-0.214313,-1.42182,-1.02273
1856,-1,-11,7,1,0,-1,-4,-3,1.20996,0.160645,0.019043,-44.75,15.125,-20,-0.214313,-1.42182,-1.02273
1856,1,-8,-1,1,0,-1,-1,1,1.20996,0.160645,0.019043,-44.75,15.125,-20,-0.214313,-1.42182,-1.02273
1856,-7,79,6,2,-3,-4,-4,-6,1.20996,0.160645,0.019043,-44.75,15.125,-20,-0.214313,-1.42182,-1.02273
1870,-4,61,-9,-3,-2,-2,-2,-2,1.23291,0.103027,0.0439453,-62.3125,18.0625,-19.375,-0.166647,-1.42038,-1.09203
1870,0,74,7,2,-2,-2,0,-1,1.23291,0.103027,0.0439453,-62.3125,18.0625,-19.375,-0.166647,-1.42038,-1.09203
1871,4,2,4,-4,-1,-3,2,-1,1.23291,0.103027,0.0439453,-62.3125,18.0625,-19.375,-0.166647,-1.42038,-1.09203
1871,4,-67,6,-4,0,2,0,-1,1.23291,0.103027,0.0439453,-62.3125,18.0625,-19.375,-0.166647,-1.42038,-1.09203
1893,4,-18,0,5,1,0,2,0,1.2002,-0.000976562,0.0649414,-60.0625,14,-18.1875,-0.140702,-1.41956,-1.13964
1893,-2,-17,1,4,-2,-3,-3,3,1.2002,-0.000976562,0.0649414,-60.0625,14,-18.1875,-0.140702,-1.41956,-1.13964
1894,3,9,15,1,-3,-1,-2,0,1.2002,-0.000976562,0.0649414,-60.0625,14,-18.1875,-0.140702,-1.41956,-1.13964
1894,2,-26,-16,2,2,-1,-1,2,1.2002,-0.000976562,0.0649414,-60.0625,14,-18.1875,-0.140702,-1.41956,-1.13964
1908,6,-2,0,-1,-1,1,-1,2,1.17041,-0.0463867,0.0981445,-46.9375,11.9375,-16.9375,-0.121391,-1.41764,-1.17543
1908,-5,4,9,-2,-1,0,-8,0,1.17041,-0.0463867,0.0981445,-46.9375,11.9375,-16.9375,-0.121391,-1.41764,-1.17543
1908,-9,19,-10,-1,-2,-1,9,-3,1.17041,-0.0463867,0.0981445,-46.9375,11.9375,-16.9375,-0.121391,-1.41764,-1.17543
1908,-5,7,17,-3,0,1,-2,-2,1.17041,-0.0463867,0.0981445,-46.9375,11.9375,-16.9375,-0.121391,-1.41764,-1.17543
1930,0,-19,-7,2,-1,-3,-5,-1,1.19238,-0.0512695,0.137207,-32.5,10.5,-13.6875,-0.105911,-1.41597,-1.20304
1930,-2,4,14,-4,-3,-2,-51,1,1.19238,-0.0512695,0.137207,-32.5,10.5,-13.6875,-0.105911,-1.41597,-1.20304
1938,-5,11,-26,-1,-2,2,78,-2,1.19238,-0.0512695,0.137207,-32.5,10.5,-13.6875,-0.105911,-1.41597,-1.20304
1938,2,-16,-10,0,-3,-1,3,-4,1.19238,-0.0512695,0.137207,-32.5,10.5,-13.6875,-0.105911,-1.41597,-1.20304
1954,2,-2,3,2,-1,-2,1,8,1.20703,-0.0507812,0.145996,-15.625,9.4375,-12.0625,-0.0883766,-1.41405,-1.22645
1954,6,23,15,1,3,1,4,2,1.20703,-0.0507812,0.145996,-15.625,9.4375,-12.0625,-0.0883766,-1.41405,-1.22645
1955,-2,-4,-6,-5,3,7,4,-4,1.20703,-0.0507812,0.145996,-15.625,9.4375,-12.0625,-0.0883766,-1.41405,-1.22645
1955,3,-15,-7,-2,-1,-6,-25,17,1.20703,-0.0507812,0.145996,-15.625,9.4375,-12.0625,-0.0883766,-1.41405,-1.22645
1976,-3,14,0,1,0,1,10,-21,1.19092,0.00927734,0.157715,-10.625,13.125,-10.25,-0.0647384,-1.41064,-1.25413
1976,5,19,-3,0,0,0,5,-5,1.19092,0.00927734,0.157715,-10.625,13.125,-10.25,-0.0647384,-1.41064,-1.25413
1977,3,-3,4,2,1,1,-17,1,1.19092,0.00927734,0.157715,-10.625,13.125,-10.25,-0.0647384,-1.41064,-1.25413
1977,-1,-16,8,1,0,2,14,1,1.19092,0.00927734,0.157715,-10.625,13.125,-10.25,-0.0647384,-1.41064,-1.25413
1991,-6,-10,8,-2,-1,0,-17,-5,1.16504,0.0673828,0.193848,-13.875,16.4375,-7.8125,-0.0394771,-1.40532,-1.28437
1991,-5,15,-7,0,-5,-3,9,1,1.16504,0.0673828,0.193848,-13.875,16.4375,-7.8125,-0.0394771,-1.40532,-1.28437
1991,-5,34,-19,-5,-6,-7,-17,16,1.16504,0.0673828,0.193848,-13.875,16.4375,-7.8125,-0.0394771,-1.40532,-1.28437
1991,1,-13,-1,-3,-2,1,-2,-7,1.16504,0.0673828,0.193848,-13.875,16.4375,-7.8125,-0.0394771,-1.40532,-1.28437
2013,7,-14,4,-2,2,2,3,5,1.14355,0.0639648,0.210938,-22.9375,19,-7.9375,-0.020545,-1.39826,-1.31114
2013,-5,6,0,1,-4,0,10,-8,1.14355,0.0639648,0.210938,-22.9375,19,-7.9375,-0.020545,-1.39826,-1.31114
2013,-4,10,4,2,-1,-6,-18,-10,1.14355,0.0639648,0.210938,-22.9375,19,-7.9375,-0.020545,-1.39826,-1.31114
2013,-6,-24,-10,4,4,-2,-1,-5,1.14355,0.0639648,0.210938,-22.9375,19,-7.9375,-0.020545,-1.39826,-1.31114
2027,-1,-26,-5,4,2,2,4,-1,1.16211,0.0820312,0.187012,-32.875,22.1875,-8,-0.00441041,-1.39119,-1.33889
2027,7,-9,5,3,1,1,12,4,1.16211,0.0820312,0.187012,-32.875,22.1875,-8,-0.00441041,-1.39119,-1.33889
2028,-8,14,0,-5,-5,-5,-22,-6,1.16211,0.0820312,0.187012,-32.875,22.1875,-8,-0.00441041,-1.39119,-1.33889
2028,-5,-2,-3,-6,1,0,-2,0,1.16211,0.0820312,0.187012,-32.875,22.1875,-8,-0.00441041,-1.39119,-1.33889
2051,-3,-12,2,-2,-2,1,3,3,1.20752,0.0517578,0.0795898,-33.625,23.9375,-5.75,0.00183978,-1.38666,-1.35721
2051,3,-97,-7,-5,-5,-5,-2,-3,1.20752,0.0517578,0.0795898,-33.625,23.9375,-5.75,0.00183978,-1.38666,-1.35721
2051,2,-75,3,-4,0,0,-9,1,1.20752,0.0517578,0.0795898,-33.625,23.9375,-5.75,0.00183978,-1.38666,-1.35721
2051,-3,3,-4,-4,-5,-2,0,-9,1.20752,0.0517578,0.0795898,-33.625,23.9375,-5.75,0.00183978,-1.38666,-1.35721
2074,-7,-106,-1,-1,0,-4,-3,3,1.229,0.144043,0.120117,-31.75,29.4375,-4.6875,0.0174824,-1.37914,-1.38361
2074,4,108,-3,0,2,0,1,-1,1.229,0.144043,0.120117,-31.75,29.4375,-4.6875,0.0174824,-1.37914,-1.38361
2074,14,89,-2,-3,0,1,-2,1,1.229,0.144043,0.120117,-31.75,29.4375,-4.6875,0.0174824,-1.37914,-1.38361
2074,-18,124,3,-6,-1,0,1,-8,1.229,0.144043,0.120117,-31.75,29.4375,-4.6875,0.0174824,-1.37914,-1.38361
2089,0,25,5,9,1,1,-3,0,1.1626,0.0668945,0.137695,-39.375,32.9375,5.9375,0.00119711,-1.36975,-1.38033
2089,1,87,-5,5,3,-3,0,2,1.1626,0.0668945,0.137695,-39.375,32.9375,5.9375,0.00119711,-1.36975,-1.38033
2090,13,85,6,1,1,1,-6,-2,1.1626,0.0668945,0.137695,-39.375,32.9375,5.9375,0.00119711,-1.36975,-1.38033
2090,12,2,-5,-8,-4,0,7,6,1.1626,0.0668945,0.137695,-39.375,32.9375,5.9375,0.00119711,-1.36975,-1.38033
2110,-48,89,-6,-9,-5,-3,-7,-22,1.17871,-0.0136719,0.135742,-30.1875,36.3125,19.875,-0.0420873,-1.35989,-1.34724
2110,-12,-4,-3,-4,-1,-2,-18,5,1.17871,-0.0136719,0.135742,-30.1875,36.3125,19.875,-0.0420873,-1.35989,-1.34724
2111,6,43,3,0,-1,-2,22,10,1.17871,-0.0136719,0.135742,-30.1875,36.3125,19.875,-0.0420873,-1.35989,-1.34724
2111,22,27,9,1,1,4,11,11,1.17871,-0.0136719,0.135742,-30.1875,36.3125,19.875,-0.0420873,-1.35989,-1.34724
2133,18,10,-12,-10,0,2,-1,62,1.16943,-0.0410156,0.172852,-21.25,42,33.3125,-0.0994621,-1.34651,-1.29589
2133,-75,-12,-8,-2,-4,-4,-3,-50,1.16943,-0.0410156,0.172852,-21.25,42,33.3125,-0.0994621,-1.34651,-1.29589
2134,7,-3,4,0,0,-1,-18,-12,1.16943,-0.0410156,0.172852,-21.25,42,33.3125,-0.0994621,-1.34651,-1.29589
2134,-15,-31,-4,0,-1,-5,-25,-9,1.16943,-0.0410156,0.172852,-21.25,42,33.3125,-0.0994621,-1.34651,-1.29589
2147,23,6,6,2,1,2,-6,-41,1.10498,-0.0581055,0.261719,-18.375,50.125,30.625,-0.143865,-1.32786,-1.25684
2147,22,-41,2,-1,1,1,7,22,1.10498,-0.0581055,0.261719,-18.375,50.125,30.625,-0.143865,-1.32786,-1.25684
2155,-10,-118,-1,-4,0,1,0,8,1.10498,-0.0581055,0.261719,-18.375,50.125,30.625,-0.143865,-1.32786,-1.25684
2155,-1,-114,1,6,3,-1,13,-8,1.10498,-0.0581055,0.261719,-18.375,50.125,30.625,-0.143865,-1.32786,-1.25684
2170,-1,-19,-3,0,-2,-1,10,0,1.01074,-0.0258789,0.32666,-22.4375,51.875,19.375,-0.164383,-1.30784,-1.2438
2170,8,-61,-2,4,-2,-2,-13,-3,1.01074,-0.0258789,0.32666,-22.4375,51.875,19.375,-0.164383,-1.30784,-1.2438
2171,-5,-128,5,10,2,-4,-9,-12,1.01074,-0.0258789,0.32666,-22.4375,51.875,19.375,-0.164383,-1.30784,-1.2438
2171,5,-91,-18,-6,-5,-2,-2,4,1.01074,-0.0258789,0.32666,-22.4375,51.875,19.375,-0.164383,-1.30784,-1.2438
2193,5,70,-2,-1,-1,-2,4,-5,0.956055,-0.0859375,0.35498,-27,47.5625,16.625,-0.185242,-1.28826,-1.23191
2193,15,96,3,0,1,2,12,24,0.956055,-0.0859375,0.35498,-27,47.5625,16.625,-0.185242,-1.28826,-1.23191
2193,-31,127,-2,-5,-1,-1,-3,-14,0.956055,-0.0859375,0.35498,-27,47.5625,16.625,-0.185242,-1.28826,-1.23191
2193,-2,127,5,-4,-1,-2,-2,-12,0.956055,-0.0859375,0.35498,-27,47.5625,16.625,-0.185242,-1.28826,-1.23191
2208,14,49,0,-4,-1,1,6,5,0.881348,-0.183594,0.355957,-31.125,39.1875,26.375,-0.2257,-1.27032,-1.20184
2208,24,7,3,-7,1,5,24,29,0.881348,-0.183594,0.355957,-31.125,39.1875,26.375,-0.2257,-1.27032,-1.20184
2208,-1,-29,-1,-1,1,1,-13,-31,0.881348,-0.183594,0.355957,-31.125,39.1875,26.375,-0.2257,-1.27032,-1.20184
2208,-29,-42,-4,2,-2,-4,0,76,0.881348,-0.183594,0.355957,-31.125,39.1875,26.375,-0.2257,-1.27032,-1.20184
2231,-3,-19,0,4,3,-1,31,-78,0.821777,-0.180664,0.40625,-19.25,32,27.5625,-0.259193,-1.25349,-1.17454
2231,-3,-39,-2,-1,-5,-3,2,33,0.821777,-0.180664,0.40625,-19.25,32,27.5625,-0.259193,-1.25349,-1.17454
2231,13,-33,-2,-2,-3,-3,-13,-24,0.821777,-0.180664,0.40625,-19.25,32,27.5625,-0.259193,-1.25349,-1.17454
2231,5,113,0,0,-2,-5,-37,-12,0.821777,-0.180664,0.40625,-19.25,32,27.5625,-0.259193,-1.25349,-1.17454
2253,-1,24,3,4,1,-1,-10,1,0.771973,-0.233887,0.394531,-2.5,25.375,25.0625,-0.286578,-1.23798,-1.14687
2253,-9,-106,-1,-4,4,5,-21,-11,0.771973,-0.233887,0.394531,-2.5,25.375,25.0625,-0.286578,-1.23798,-1.14687
2253,8,-128,-4,-4,-1,0,53,23,0.771973,-0.233887,0.394531,-2.5,25.375,25.0625,-0.286578,-1.23798,-1.14687
2253,-25,-66,-2,1,-2,-1,-1,-14,0.771973,-0.233887,0.394531,-2.5,25.375,25.0625,-0.286578,-1.23798,-1.14687
2267,29,23,3,4,-4,-3,-5,30,0.79541,-0.172363,0.364746,5.9375,26,23.75,-0.303856,-1.22458,-1.12733
2267,-39,64,-4,-7,-1,-3,-5,-36,0.79541,-0.172363,0.364746,5.9375,26,23.75,-0.303856,-1.22458,-1.12733
2276,1,57,-4,2,-1,-1,-16,13,0.79541,-0.172363,0.364746,5.9375,26,23.75,-0.303856,-1.22458,-1.12733
2276,21,-12,3,0,1,-1,10,-13,0.79541,-0.172363,0.364746,5.9375,26,23.75,-0.303856,-1.22458,-1.12733
2290,-11,-91,-4,-4,-2,-1,-9,12,0.759277,-0.109863,0.40332,-1.5,27.625,23.6875,-0.316254,-1.20992,-1.11431
2290,13,-16,0,0,-1,-2,6,2,0.759277,-0.109863,0.40332,-1.5,27.625,23.6875,-0.316254,-1.20992,-1.11431
2291,-7,62,9,3,6,0,-5,4,0.759277,-0.109863,0.40332,-1.5,27.625,23.6875,-0.316254,-1.20992,-1.11431
2291,13,4,-5,-2,3,1,8,-5,0.759277,-0.109863,0.40332,-1.5,27.625,23.6875,-0.316254,-1.20992,-1.11431
2312,-42,18,-4,-2,-1,-3,-10,-1,0.678223,-0.122559,0.381348,5.75,24.5,28.0625,-0.330649,-1.19536,-1.09633
2312,27,6,-17,1,0,-1,-7,-10,0.678223,-0.122559,0.381348,5.75,24.5,28.0625,-0.330649,-1.19536,-1.09633
2313,0,4,19,0,-4,-2,0,28,0.678223,-0.122559,0.381348,5.75,24.5,28.0625,-0.330649,-1.19536,-1.09633
2313,-27,20,43,3,-3,0,-1,-25,0.678223,-0.122559,0.381348,5.75,24.5,28.0625,-0.330649,-1.19536,-1.09633
2328,-53,-55,-91,-13,-11,-5,-11,0,0.618164,-0.166504,0.437012,9.6875,22.25,32.5625,-0.348298,-1.17979,-1.07426
2328,33,-12,7,-15,-6,-3,1,1,0.618164,-0.166504,0.437012,9.6875,22.25,32.5625,-0.348298,-1.17979,-1.07426
2335,46,6,-6,9,16,10,15,44,0.618164,-0.166504,0.437012,9.6875,22.25,32.5625,-0.348298,-1.17979,-1.07426
2335,-93,-29,8,10,-1,-6,-17,-87,0.618164,-0.166504,0.437012,9.6875,22.25,32.5625,-0.348298,-1.17979,-1.07426
2350,10,37,12,0,0,-3,-7,1,0.537598,-0.253418,0.396973,5.8125,20.0625,33.25,-0.371972,-1.16386,-1.04713
2350,-10,-28,10,2,-2,-4,-4,-18,0.537598,-0.253418,0.396973,5.8125,20.0625,33.25,-0.371972,-1.16386,-1.04713
2351,49,-26,-16,-18,-14,-6,-12,22,0.537598,-0.253418,0.396973,5.8125,20.0625,33.25,-0.371972,-1.16386,-1.04713
2351,44,7,14,2,-3,3,-5,38,0.537598,-0.253418,0.396973,5.8125,20.0625,33.25,-0.371972,-1.16386,-1.04713
2373,-92,-16,4,3,-5,-1,2,-16,0.53125,-0.297852,0.426758,13.5,14.875,44.625,-0.402182,-1.14714,-1.01001
2373,-4,3,0,-4,-1,-4,2,-23,0.53125,-0.297852,0.426758,13.5,14.875,44.625,-0.402182,-1.14714,-1.01001
2373,-17,-32,-12,14,7,4,-8,-5,0.53125,-0.297852,0.426758,13.5,14.875,44.625,-0.402182,-1.14714,-1.01001
2373,36,-5,-15,1,7,7,11,-26,0.53125,-0.297852,0.426758,13.5,14.875,44.625,-0.402182,-1.14714,-1.01001
2387,47,-8,18,-1,-7,-5,-14,17,0.499512,-0.333496,0.476074,27.875,8.125,46.75,-0.428964,-1.1307,-0.971256
2387,54,12,10,7,-5,-3,0,27,0.499512,-0.333496,0.476074,27.875,8.125,46.75,-0.428964,-1.1307,-0.971256
2395,-44,10,20,-16,-23,-11,-2,26,0.499512,-0.333496,0.476074,27.875,8.125,46.75,-0.428964,-1.1307,-0.971256
2395,22,-32,-52,-10,-4,-8,8,-5,0.499512,-0.333496,0.476074,27.875,8.125,46.75,-0.428964,-1.1307,-0.971256
2410,27,36,22,30,14,9,15,47,0.567871,-0.294922,0.586426,55.1875,1.25,44.25,-0.439728,-1.11542,-0.938077
2410,113,10,-3,1,12,1,-13,15,0.567871,-0.294922,0.586426,55.1875,1.25,44.25,-0.439728,-1.11542,-0.938077
2411,-74,-4,-20,27,4,3,1,-74,0.567871,-0.294922,0.586426,55.1875,1.25,44.25,-0.439728,-1.11542,-0.938077
2411,-46,32,7,-21,-28,-2,20,31,0.567871,-0.294922,0.586426,55.1875,1.25,44.25,-0.439728,-1.11542,-0.938077
2433,95,14,-15,-45,-20,-14,-17,-16,0.674805,-0.354004,0.623535,81.6875,-3.125,46.125,-0.444541,-1.10138,-0.901612
2433,-128,-20,-8,3,-12,-30,-22,-46,0.674805,-0.354004,0.623535,81.6875,-3.125,46.125,-0.444541,-1.10138,-0.901612
2434,75,34,0,-7,3,19,-32,-14,0.674805,-0.354004,0.623535,81.6875,-3.125,46.125,-0.444541,-1.10138,-0.901612
2434,-4,57,-2,30,33,7,29,18,0.674805,-0.354004,0.623535,81.6875,-3.125,46.125,-0.444541,-1.10138,-0.901612
2456,44,32,24,-3,21,27,27,7,1.05615,-0.266602,0.76123,75.4375,3.25,39.3125,-0.437094,-1.08895,-0.879403
2456,7,96,-7,23,13,11,12,44,1.05615,-0.266602,0.76123,75.4375,3.25,39.3125,-0.437094,-1.08895,-0.879403
2457,104,65,-2,-13,4,-13,34,59,1.05615,-0.266602,0.76123,75.4375,3.25,39.3125,-0.437094,-1.08895,-0.879403
2457,-82,28,3,8,15,7,-24,-86,1.05615,-0.266602,0.76123,75.4375,3.25,39.3125,-0.437094,-1.08895,-0.879403
2470,35,-90,71,34,19,1,8,21,1.74609,-0.26416,0.76709,44.6875,39.5625,29.1875,-0.424047,-1.07512,-0.87539
2470,-63,15,-68,-16,34,24,24,56,1.74609,-0.26416,0.76709,44.6875,39.5625,29.1875,-0.424047,-1.07512,-0.87539
2471,37,99,-12,-16,-60,-58,-53,-43,1.74609,-0.26416,0.76709,44.6875,39.5625,29.1875,-0.424047,-1.07512,-0.87539
2471,31,97,-27,-80,-99,-58,39,-39,1.74609,-0.26416,0.76709,44.6875,39.5625,29.1875,-0.424047,-1.07512,-0.87539
2493,51,-14,2,-45,-18,-23,-31,8,2.19922,-0.311035,1.02637,15,86.875,41.0625,-0.413476,-1.04605,-0.879567
2493,102,-122,80,-41,-18,64,80,58,2.19922,-0.311035,1.02637,15,86.875,41.0625,-0.413476,-1.04605,-0.879567
2493,-41,-128,-59,100,95,79,-45,41,2.19922,-0.311035,1.02637,15,86.875,41.0625,-0.413476,-1.04605,-0.879567
2493,65,-37,19,-13,-31,-31,68,39,2.19922,-0.311035,1.02637,15,86.875,41.0625,-0.413476,-1.04605,-0.879567
2507,55,-83,-22,0,99,-27,71,-112,1.26953,-0.457031,0.709961,-29.25,94.8125,97.5,-0.456085,-1.00125,-0.843134
2507,-50,-80,36,72,-11,73,-35,51,1.26953,-0.457031,0.709961,-29.25,94.8125,97.5,-0.456085,-1.00125,-0.843134
2516,90,-128,-6,-88,-84,-84,-78,-20,1.26953,-0.457031,0.709961,-29.25,94.8125,97.5,-0.456085,-1.00125,-0.843134
2516,-99,-114,-35,-77,-83,29,-128,-91,1.26953,-0.457031,0.709961,-29.25,94.8125,97.5,-0.456085,-1.00125,-0.843134
2530,28,-91,57,86,42,-48,43,53,-0.164551,0.03125,-0.218262,-60.4375,-13.5625,86.6875,-0.525542,-0.993105,-0.786864
2530,95,-60,83,57,127,71,91,-14,-0.164551,0.03125,-0.218262,-60.4375,-13.5625,86.6875,-0.525542,-0.993105,-0.786864
2530,-58,84,-40,-85,-93,-6,84,-40,-0.164551,0.03125,-0.218262,-60.4375,-13.5625,86.6875,-0.525542,-0.993105,-0.786864
2530,-40,10,29,-69,-27,-25,-30,58,-0.164551,0.03125,-0.218262,-60.4375,-13.5625,86.6875,-0.525542,-0.993105,-0.786864
2553,-31,102,-68,37,-10,5,-83,-2,1.64062,-0.682129,-0.182129,52.6875,-59.1875,11.75,-0.560192,-1.02579,-0.734246
2553,-75,59,-33,90,99,-76,-31,-111,1.64062,-0.682129,-0.182129,52.6875,-59.1875,11.75,-0.560192,-1.02579,-0.734246
2553,86,93,89,127,22,90,-4,34,1.64062,-0.682129,-0.182129,52.6875,-59.1875,11.75,-0.560192,-1.02579,-0.734246
2553,26,104,4,-79,-84,23,55,75,1.64062,-0.682129,-0.182129,52.6875,-59.1875,11.75,-0.560192,-1.02579,-0.734246
2561,41,22,-9,-114,-126,-58,-23,-65,2.56152,0.515137,-0.00878906,97.75,-7.4375,-16.0625,-0.520392,-1.0309,-0.740927
2561,-19,-7,-78,13,-96,-128,-22,-35,2.56152,0.515137,-0.00878906,97.75,-7.4375,-16.0625,-0.520392,-1.0309,-0.740927
2567,-57,-101,44,-125,117,-80,45,-2,2.56152,0.515137,-0.00878906,97.75,-7.4375,-16.0625,-0.520392,-1.0309,-0.740927
2567,121,-64,16,98,101,22,23,77,2.56152,0.515137,-0.00878906,97.75,-7.4375,-16.0625,-0.520392,-1.0309,-0.740927
2582,-39,39,38,127,84,127,45,30,0.502441,0.683105,0.339844,-28.25,5.625,-21.875,-0.481449,-1.03978,-0.78689
2582,-80,127,1,28,35,-15,-74,-3,0.502441,0.683105,0.339844,-28.25,5.625,-21.875,-0.481449,-1.03978,-0.78689
2589,-19,-32,-50,-103,-8,-98,-63,-52,0.502441,0.683105,0.339844,-28.25,5.625,-21.875,-0.481449,-1.03978,-0.78689
2589,10,-72,-102,124,-21,91,-49,6,0.502441,0.683105,0.339844,-28.25,5.625,-21.875,-0.481449,-1.03978,-0.78689
2605,13,-1,-63,-126,-105,-86,81,92,1.00244,-0.296875,0.739746,-116.75,28.875,-45.1875,-0.489561,-1.03713,-0.824375
2605,33,-109,23,47,21,13,-49,-104,1.00244,-0.296875,0.739746,-116.75,28.875,-45.1875,-0.489561,-1.03713,-0.824375
2605,-8,28,67,77,-73,31,15,28,1.00244,-0.296875,0.739746,-116.75,28.875,-45.1875,-0.489561,-1.03713,-0.824375
2605,127,-119,-26,-65,87,-52,34,5,1.00244,-0.296875,0.739746,-116.75,28.875,-45.1875,-0.489561,-1.03713,-0.824375
2620,-114,-92,26,-98,-24,58,46,1,1.66943,-0.772461,0.923828,-40.6875,53.8125,24.375,-0.511787,-1.01362,-0.818368
2620,26,-47,-82,-76,-124,-41,-75,-44,1.66943,-0.772461,0.923828,-40.6875,53.8125,24.375,-0.511787,-1.01362,-0.818368
2627,-14,-43,-40,-87,-73,-44,1,-13,1.66943,-0.772461,0.923828,-40.6875,53.8125,24.375,-0.511787,-1.01362,-0.818368
2627,17,-44,51,77,84,-38,-32,-19,1.66943,-0.772461,0.923828,-40.6875,53.8125,24.375,-0.511787,-1.01362,-0.818368
2642,57,55,65,7,85,84,-24,1,1.44922,-0.239258,0.760742,34.5625,63.3125,13.375,-0.483059,-0.995145,-0.835795
2642,83,-17,-78,14,47,46,65,58,1.44922,-0.239258,0.760742,34.5625,63.3125,13.375,-0.483059,-0.995145,-0.835795
2658,-40,-16,73,37,0,28,38,-8,1.44922,-0.239258,0.760742,34.5625,63.3125,13.375,-0.483059,-0.995145,-0.835795
2658,-50,39,-48,-96,-128,-42,-16,-13,1.44922,-0.239258,0.760742,34.5625,63.3125,13.375,-0.483059,-0.995145,-0.835795
2665,-13,-42,-44,53,-77,-62,-43,-7,1.20752,0.0913086,0.646973,9.8125,68.625,14.25,-0.453772,-0.977222,-0.860912
2665,115,-17,45,-84,18,-55,26,66,1.20752,0.0913086,0.646973,9.8125,68.625,14.25,-0.453772,-0.977222,-0.860912
2672,-70,41,4,12,3,69,-39,-80,1.20752,0.0913086,0.646973,9.8125,68.625,14.25,-0.453772,-0.977222,-0.860912
2672,105,95,38,-1,85,-9,-8,26,1.20752,0.0913086,0.646973,9.8125,68.625,14.25,-0.453772,-0.977222,-0.860912
2680,-14,64,-11,27,-45,-34,-42,10,1.1665,-0.12793,0.602539,-44.5,75.0625,8.1875,-0.450117,-0.957075,-0.881763
2680,-17,42,3,-47,-22,43,-72,6,1.1665,-0.12793,0.602539,-44.5,75.0625,8.1875,-0.450117,-0.957075,-0.881763
2686,0,-17,8,68,78,-20,118,41,1.1665,-0.12793,0.602539,-44.5,75.0625,8.1875,-0.450117,-0.957075,-0.881763
2686,25,12,67,26,32,64,-63,3,1.1665,-0.12793,0.602539,-44.5,75.0625,8.1875,-0.450117,-0.957075,-0.881763
2702,-91,100,19,-35,39,45,-6,-45,0.969727,-0.418457,0.528809,-55.125,80.9375,3.3125,-0.459546,-0.932394,-0.89646
2702,17,113,23,24,27,8,-27,-14,0.969727,-0.418457,0.528809,-55.125,80.9375,3.3125,-0.459546,-0.932394,-0.89646
2709,11,115,-91,-55,-63,-66,-7,52,0.969727,-0.418457,0.528809,-55.125,80.9375,3.3125,-0.459546,-0.932394,-0.89646
2709,23,127,97,-35,35,-7,31,9,0.969727,-0.418457,0.528809,-55.125,80.9375,3.3125,-0.459546,-0.932394,-0.89646
2725,22,94,0,79,-34,-31,-13,12,0.701172,-0.512207,0.45166,-36.5625,86.5625,0.125,-0.464931,-0.903613,-0.910404
2725,10,78,-18,-60,-98,-28,16,-28,0.701172,-0.512207,0.45166,-36.5625,86.5625,0.125,-0.464931,-0.903613,-0.910404
2733,95,98,-7,-29,48,26,4,22,0.701172,-0.512207,0.45166,-36.5625,86.5625,0.125,-0.464931,-0.903613,-0.910404
2733,11,2,-20,-74,-95,-19,48,-21,0.701172,-0.512207,0.45166,-36.5625,86.5625,0.125,-0.464931,-0.903613,-0.910404
2756,36,-50,-38,23,14,-13,-81,13,0.53125,-0.462891,0.395996,-15.8125,93.4375,6.3125,-0.464077,-0.871296,-0.923266
2756,6,7,44,7,-16,-40,9,24,0.53125,-0.462891,0.395996,-15.8125,93.4375,6.3125,-0.464077,-0.871296,-0.923266
2757,-63,-85,-18,102,63,72,-7,-14,0.53125,-0.462891,0.395996,-15.8125,93.4375,6.3125,-0.464077,-0.871296,-0.923266
2757,21,-56,20,-4,14,9,50,-17,0.53125,-0.462891,0.395996,-15.8125,93.4375,6.3125,-0.464077,-0.871296,-0.923266
2770,-17,-20,41,87,116,8,-12,-9,0.484863,-0.399902,0.380371,-23.0625,101.375,7.9375,-0.458604,-0.837979,-0.942239
2770,-72,-53,44,-14,13,24,11,-42,0.484863,-0.399902,0.380371,-23.0625,101.375,7.9375,-0.458604,-0.837979,-0.942239
2771,63,-70,-114,-101,-104,-45,-39,24,0.484863,-0.399902,0.380371,-23.0625,101.375,7.9375,-0.458604,-0.837979,-0.942239
2771,-56,-46,43,0,-28,-18,27,17,0.484863,-0.399902,0.380371,-23.0625,101.375,7.9375,-0.458604,-0.837979,-0.942239
2793,59,0,-51,-127,-50,-12,-8,-36,0.483398,-0.322266,0.350586,-23.8125,103.75,7.6875,-0.453529,-0.804211,-0.961191
2793,16,-7,-11,96,12,-7,-6,26,0.483398,-0.322266,0.350586,-23.8125,103.75,7.6875,-0.453529,-0.804211,-0.961191
2793,5,10,105,36,63,44,15,5,0.483398,-0.322266,0.350586,-23.8125,103.75,7.6875,-0.453529,-0.804211,-0.961191
2793,75,-74,-36,-3,11,-6,27,19,0.483398,-0.322266,0.350586,-23.8125,103.75,7.6875,-0.453529,-0.804211,-0.961191
2816,-88,-31,32,41,16,15,-4,-46,0.45459,-0.291016,0.342773,-15.9375,103.625,8.5,-0.447052,-0.770556,-0.978901
2816,-101,94,12,-43,-23,-23,-64,-41,0.45459,-0.291016,0.342773,-15.9375,103.625,8.5,-0.447052,-0.770556,-0.978901
2817,58,108,86,8,7,-9,-2,-33,0.45459,-0.291016,0.342773,-15.9375,103.625,8.5,-0.447052,-0.770556,-0.978901
2817,4,58,-90,104,16,9,15,0,0.45459,-0.291016,0.342773,-15.9375,103.625,8.5,-0.447052,-0.770556,-0.978901
2830,51,25,-40,-97,-49,-31,-21,42,0.424316,-0.274414,0.347168,-24.75,96.9375,3.375,-0.446087,-0.739996,-0.995375
2830,10,-13,-55,-56,-10,0,52,7,0.424316,-0.274414,0.347168,-24.75,96.9375,3.375,-0.446087,-0.739996,-0.995375
2831,-71,-34,52,55,4,8,4,-5,0.424316,-0.274414,0.347168,-24.75,96.9375,3.375,-0.446087,-0.739996,-0.995375
2831,-3,-22,-16,5,38,-7,-23,-13,0.424316,-0.274414,0.347168,-24.75,96.9375,3.375,-0.446087,-0.739996,-0.995375
2853,79,-29,-40,-38,-32,21,33,26,0.439941,-0.318359,0.332031,-38.125,99.875,-2.8125,-0.449935,-0.71008,-1.01351
2853,-26,-14,54,41,31,32,-10,-28,0.439941,-0.318359,0.332031,-38.125,99.875,-2.8125,-0.449935,-0.71008,-1.01351
2853,83,-111,-1,-102,-21,-9,-27,-10,0.439941,-0.318359,0.332031,-38.125,99.875,-2.8125,-0.449935,-0.71008,-1.01351
2853,-113,-112,45,102,-35,-16,-17,-5,0.439941,-0.318359,0.332031,-38.125,99.875,-2.8125,-0.449935,-0.71008,-1.01351
2876,3,-11,43,5,52,-13,29,-5,0.208496,-0.304199,0.295898,-42.1875,102.875,-7.8125,-0.450741,-0.678381,-1.03631
2876,38,57,-22,-65,-96,-13,14,46,0.208496,-0.304199,0.295898,-42.1875,102.875,-7.8125,-0.450741,-0.678381,-1.03631
2876,22,112,80,39,101,0,-3,1,0.208496,-0.304199,0.295898,-42.1875,102.875,-7.8125,-0.450741,-0.678381,-1.03631
2876,10,90,-32,46,87,31,1,6,0.208496,-0.304199,0.295898,-42.1875,102.875,-7.8125,-0.450741,-0.678381,-1.03631
2890,-43,105,-14,-75,-98,-34,-21,-25,0.034668,-0.267578,0.380859,-33.375,99.375,-5.0625,-0.451617,-0.64197,-1.05607
2890,24,-2,-3,34,57,-12,15,25,0.034668,-0.267578,0.380859,-33.375,99.375,-5.0625,-0.451617,-0.64197,-1.05607
2891,5,-24,17,54,8,9,60,85,0.034668,-0.267578,0.380859,-33.375,99.375,-5.0625,-0.451617,-0.64197,-1.05607
2891,-124,-14,52,-58,-47,26,-61,-105,0.034668,-0.267578,0.380859,-33.375,99.375,-5.0625,-0.451617,-0.64197,-1.05607
2921,69,10,-25,76,75,20,10,39,0.0390625,-0.300293,0.416016,-35.75,97.0625,-1.0625,-0.455595,-0.605409,-1.07346
2921,48,10,49,-62,-38,-10,39,12,0.0390625,-0.300293,0.416016,-35.75,97.0625,-1.0625,-0.455595,-0.605409,-1.07346
2921,45,10,-23,-73,-83,-18,35,-12,0.0390625,-0.300293,0.416016,-35.75,97.0625,-1.0625,-0.455595,-0.605409,-1.07346
2921,30,-71,-48,39,45,-12,1,20,0.0390625,-0.300293,0.416016,-35.75,97.0625,-1.0625,-0.455595,-0.605409,-1.07346
2936,-83,-62,8,-50,9,20,-30,-27,0.0268555,-0.261719,0.442383,-36.4375,95.875,-2.0625,-0.459069,-0.569478,-1.09138
2936,18,-37,49,-34,-68,-54,-2,1,0.0268555,-0.261719,0.442383,-36.4375,95.875,-2.0625,-0.459069,-0.569478,-1.09138
2937,32,-24,-21,87,103,59,0,-6,0.0268555,-0.261719,0.442383,-36.4375,95.875,-2.0625,-0.459069,-0.569478,-1.09138
2937,48,-12,-64,-109,-82,-17,76,30,0.0268555,-0.261719,0.442383,-36.4375,95.875,-2.0625,-0.459069,-0.569478,-1.09138
2944,-14,-50,62,103,32,13,-6,-51,0.074707,-0.292969,0.521973,-33.5,90.375,1.625,-0.463304,-0.535124,-1.10681
2944,-4,-43,84,87,49,27,-3,-3,0.074707,-0.292969,0.521973,-33.5,90.375,1.625,-0.463304,-0.535124,-1.10681
2950,-37,-28,-80,-117,-62,-25,-13,3,0.074707,-0.292969,0.521973,-33.5,90.375,1.625,-0.463304,-0.535124,-1.10681
2950,37,17,59,-16,-49,-21,-13,8,0.074707,-0.292969,0.521973,-33.5,90.375,1.625,-0.463304,-0.535124,-1.10681
2966,65,-40,-101,-8,42,20,83,49,0.129395,-0.237305,0.588379,-24.125,85.3125,10.3125,-0.464416,-0.502218,-1.11914
2966,-104,-47,-14,2,23,3,-71,-53,0.129395,-0.237305,0.588379,-24.125,85.3125,10.3125,-0.464416,-0.502218,-1.11914
2972,36,-9,-74,11,-43,-41,25,40,0.129395,-0.237305,0.588379,-24.125,85.3125,10.3125,-0.464416,-0.502218,-1.11914
2972,-36,6,33,36,108,43,-81,-41,0.129395,-0.237305,0.588379,-24.125,85.3125,10.3125,-0.464416,-0.502218,-1.11914
2988,-7,53,62,-6,-128,-51,28,20,0.141602,-0.199219,0.294922,-19.9375,74.25,15.6875,-0.469021,-0.475737,-1.12628
2988,-66,16,-18,-27,90,20,-21,28,0.141602,-0.199219,0.294922,-19.9375,74.25,15.6875,-0.469021,-0.475737,-1.12628
2988,-101,-65,96,72,28,42,-10,16,0.141602,-0.199219,0.294922,-19.9375,74.25,15.6875,-0.469021,-0.475737,-1.12628
2988,-86,-18,-75,-10,-77,-41,-26,-13,0.141602,-0.199219,0.294922,-19.9375,74.25,15.6875,-0.469021,-0.475737,-1.12628
3002,41,-54,11,2,108,-14,-13,-6,0.280273,-0.694336,0.470215,-39.375,98.0625,22.8125,-0.489088,-0.440126,-1.13121
3002,82,15,-55,-43,15,-31,54,26,0.280273,-0.694336,0.470215,-39.375,98.0625,22.8125,-0.489088,-0.440126,-1.13121
3009,-67,39,42,-106,-125,17,-13,-52,0.280273,-0.694336,0.470215,-39.375,98.0625,22.8125,-0.489088,-0.440126,-1.13121
3009,84,50,19,74,126,48,25,30,0.280273,-0.694336,0.470215,-39.375,98.0625,22.8125,-0.489088,-0.440126,-1.13121
3033,68,29,79,4,-75,-67,5,-12,-0.0688477,0.0761719,0.708008,-29.4375,44.25,20.25,-0.488184,-0.41592,-1.13673
3033,52,10,32,88,-39,56,-23,-10,-0.0688477,0.0761719,0.708008,-29.4375,44.25,20.25,-0.488184,-0.41592,-1.13673
3034,-62,15,-19,24,85,-13,-37,-38,-0.0688477,0.0761719,0.708008,-29.4375,44.25,20.25,-0.488184,-0.41592,-1.13673
3034,-51,18,-70,-16,-57,-10,4,27,-0.0688477,0.0761719,0.708008,-29.4375,44.25,20.25,-0.488184,-0.41592,-1.13673
3056,-28,-52,-39,-117,-33,-106,-14,-8,0.353027,-0.167969,0.918457,-26.625,37.875,3.4375,-0.487682,-0.40312,-1.1454
3056,0,-79,-36,-28,-20,95,38,11,0.353027,-0.167969,0.918457,-26.625,37.875,3.4375,-0.487682,-0.40312,-1.1454
3057,40,-15,3,53,64,-26,-16,15,0.353027,-0.167969,0.918457,-26.625,37.875,3.4375,-0.487682,-0.40312,-1.1454
3057,23,45,53,-47,-86,-39,-32,3,0.353027,-0.167969,0.918457,-26.625,37.875,3.4375,-0.487682,-0.40312,-1.1454
3078,-91,-22,-95,-20,-27,-46,-72,-35,0.180176,-0.369141,0.760742,-19.5625,28.5625,7.8125,-0.492685,-0.38917,-1.1482
3078,31,-43,-7,13,21,34,12,-56,0.180176,-0.369141,0.760742,-19.5625,28.5625,7.8125,-0.492685,-0.38917,-1.1482
3079,31,-16,80,85,99,21,-43,12,0.180176,-0.369141,0.760742,-19.5625,28.5625,7.8125,-0.492685,-0.38917,-1.1482
3079,72,-33,-54,-78,7,-30,48,56,0.180176,-0.369141,0.760742,-19.5625,28.5625,7.8125,-0.492685,-0.38917,-1.1482
3092,76,-42,48,16,-12,-7,-57,-16,0.225098,-0.383789,0.769043,-5.4375,9.625,8.75,-0.494266,-0.382068,-1.14735
3092,-105,-99,-103,-59,-30,-42,-21,-29,0.225098,-0.383789,0.769043,-5.4375,9.625,8.75,-0.494266,-0.382068,-1.14735
3093,-62,-38,-25,-123,-128,-39,14,-51,0.225098,-0.383789,0.769043,-5.4375,9.625,8.75,-0.494266,-0.382068,-1.14735
3093,17,7,-41,127,127,21,-17,-27,0.225098,-0.383789,0.769043,-5.4375,9.625,8.75,-0.494266,-0.382068,-1.14735
3116,-62,80,87,43,-41,58,43,39,0.214355,-0.244141,0.720703,12.9375,6.3125,3.4375,-0.486591,-0.377607,-1.14848
3116,-64,50,-3,-88,-65,-39,-45,-3,0.214355,-0.244141,0.720703,12.9375,6.3125,3.4375,-0.486591,-0.377607,-1.14848
3116,21,90,33,68,43,-11,34,15,0.214355,-0.244141,0.720703,12.9375,6.3125,3.4375,-0.486591,-0.377607,-1.14848
3116,68,54,56,14,24,43,18,61,0.214355,-0.244141,0.720703,12.9375,6.3125,3.4375,-0.486591,-0.377607,-1.14848
3131,10,-20,-15,15,-74,-38,14,-4,0.260742,-0.296387,0.663574,-6.1875,-3.4375,11.0625,-0.488899,-0.37631,-1.14462
3131,45,26,-23,6,79,37,24,18,0.260742,-0.296387,0.663574,-6.1875,-3.4375,11.0625,-0.488899,-0.37631,-1.14462
3131,-46,-46,-94,-88,-128,-102,-17,-11,0.260742,-0.296387,0.663574,-6.1875,-3.4375,11.0625,-0.488899,-0.37631,-1.14462
3131,24,-32,22,-33,-12,50,-116,-19,0.260742,-0.296387,0.663574,-6.1875,-3.4375,11.0625,-0.488899,-0.37631,-1.14462
3153,17,1,-30,127,127,89,96,24,0.268066,-0.431641,0.691895,-20.375,-2.5,7.625,-0.498398,-0.374598,-1.14114
3153,116,-16,-10,-46,-113,24,84,75,0.268066,-0.431641,0.691895,-20.375,-2.5,7.625,-0.498398,-0.374598,-1.14114
3153,-58,-67,36,-58,-30,-39,41,-45,0.268066,-0.431641,0.691895,-20.375,-2.5,7.625,-0.498398,-0.374598,-1.14114
3153,25,-87,-46,50,2,-19,-73,16,0.268066,-0.431641,0.691895,-20.375,-2.5,7.625,-0.498398,-0.374598,-1.14114
3176,54,-21,8,-84,-124,-50,-3,-5,0.207031,-0.470703,0.699707,-6.6875,8.625,0.4375,-0.502202,-0.369157,-1.14197
3176,28,-18,-6,-17,114,-12,-12,38,0.207031,-0.470703,0.699707,-6.6875,8.625,0.4375,-0.502202,-0.369157,-1.14197
3177,-4,4,15,80,27,85,62,15,0.207031,-0.470703,0.699707,-6.6875,8.625,0.4375,-0.502202,-0.369157,-1.14197
3177,52,-11,-67,-68,-34,-49,-18,-28,0.207031,-0.470703,0.699707,-6.6875,8.625,0.4375,-0.502202,-0.369157,-1.14197
3198,-115,0,-3,26,104,18,-12,-56,0.147949,-0.425781,0.736816,-6.3125,8.0625,4.75,-0.504877,-0.361977,-1.14168
3198,63,35,19,-46,-123,-7,9,4,0.147949,-0.425781,0.736816,-6.3125,8.0625,4.75,-0.504877,-0.361977,-1.14168
3199,64,10,-34,26,-37,3,-40,17,0.147949,-0.425781,0.736816,-6.3125,8.0625,4.75,-0.504877,-0.361977,-1.14168
3199,-77,-21,77,59,46,-8,47,-13,0.147949,-0.425781,0.736816,-6.3125,8.0625,4.75,-0.504877,-0.361977,-1.14168
3213,63,-37,-84,-97,-90,-37,-28,35,0.227051,-0.514648,0.855957,-19.4375,11.0625,15.75,-0.513478,-0.352589,-1.13823
3213,-65,-34,34,68,72,70,-88,-29,0.227051,-0.514648,0.855957,-19.4375,11.0625,15.75,-0.513478,-0.352589,-1.13823
3214,48,-123,-11,60,84,12,-17,13,0.227051,-0.514648,0.855957,-19.4375,11.0625,15.75,-0.513478,-0.352589,-1.13823
3214,-110,-114,27,-92,-128,-51,81,-27,0.227051,-0.514648,0.855957,-19.4375,11.0625,15.75,-0.513478,-0.352589,-1.13823
3229,-110,-116,9,-8,117,91,-14,-23,0.289062,-0.595703,0.969238,-25.5625,14.0625,13.625,-0.523782,-0.343187,-1.13619
3229,6,-68,47,-90,-78,-115,-30,-16,0.289062,-0.595703,0.969238,-25.5625,14.0625,13.625,-0.523782,-0.343187,-1.13619
3230,123,44,-76,80,-4,16,-10,31,0.289062,-0.595703,0.969238,-25.5625,14.0625,13.625,-0.523782,-0.343187,-1.13619
3230,11,-58,8,19,23,-19,-9,21,0.289062,-0.595703,0.969238,-25.5625,14.0625,13.625,-0.523782,-0.343187,-1.13619
3242,-24,-20,115,92,16,6,-22,-10,0.377441,-0.495117,0.998535,-15.625,19.0625,6.5,-0.526735,-0.33603,-1.1383
3242,-31,-78,-103,-52,43,-19,13,-18,0.377441,-0.495117,0.998535,-15.625,19.0625,6.5,-0.526735,-0.33603,-1.1383
3249,-1,26,-4,-13,-4,7,-34,-7,0.377441,-0.495117,0.998535,-15.625,19.0625,6.5,-0.526735,-0.33603,-1.1383
3249,-26,127,37,-92,-98,-35,21,-46,0.377441,-0.495117,0.998535,-15.625,19.0625,6.5,-0.526735,-0.33603,-1.1383
3265,13,127,22,51,67,24,2,3,0.382324,-0.385742,0.972656,-12.5625,8.4375,10.75,-0.527691,-0.332156,-1.1377
3265,35,95,-5,-19,-61,-46,-21,27,0.382324,-0.385742,0.972656,-12.5625,8.4375,10.75,-0.527691,-0.332156,-1.1377
3272,-82,105,3,-39,13,17,-15,-28,0.382324,-0.385742,0.972656,-12.5625,8.4375,10.75,-0.527691,-0.332156,-1.1377
3272,67,125,-22,36,63,44,23,10,0.382324,-0.385742,0.972656,-12.5625,8.4375,10.75,-0.527691,-0.332156,-1.1377
3288,35,126,13,-96,-113,-80,-94,66,0.427734,-0.415527,0.966797,-12.9375,5.8125,11.25,-0.529567,-0.330095,-1.13633
3288,-4,115,42,97,59,99,112,-31,0.427734,-0.415527,0.966797,-12.9375,5.8125,11.25,-0.529567,-0.330095,-1.13633
3288,-65,46,-3,23,85,-41,-66,-23,0.427734,-0.415527,0.966797,-12.9375,5.8125,11.25,-0.529567,-0.330095,-1.13633
3288,30,47,89,3,4,14,-33,4,0.427734,-0.415527,0.966797,-12.9375,5.8125,11.25,-0.529567,-0.330095,-1.13633
3302,-14,15,-70,-84,-60,11,78,-4,0.326172,-0.44043,0.922363,-13.75,8.25,2,-0.531757,-0.326826,-1.13802
3302,-36,24,-42,47,-41,-67,-87,-26,0.326172,-0.44043,0.922363,-13.75,8.25,2,-0.531757,-0.326826,-1.13802
3309,61,16,-43,-4,-5,3,20,15,0.326172,-0.44043,0.922363,-13.75,8.25,2,-0.531757,-0.326826,-1.13802
3309,-42,-14,-16,-60,-66,-55,0,-4,0.326172,-0.44043,0.922363,-13.75,8.25,2,-0.531757,-0.326826,-1.13802
3333,86,42,-28,116,104,23,-19,6,0.264648,-0.415527,0.816895,2.625,8.9375,-1.1875,-0.528865,-0.323419,-1.14046
3333,-29,47,48,15,39,40,49,11,0.264648,-0.415527,0.816895,2.625,8.9375,-1.1875,-0.528865,-0.323419,-1.14046
3333,37,43,44,-45,-16,31,-7,15,0.264648,-0.415527,0.816895,2.625,8.9375,-1.1875,-0.528865,-0.323419,-1.14046
3333,-46,-5,-41,-17,-1,-8,-10,-20,0.264648,-0.415527,0.816895,2.625,8.9375,-1.1875,-0.528865,-0.323419,-1.14046
3348,25,-9,41,-86,-91,-28,-20,-2,0.250977,-0.4375,0.805176,3.5625,3.4375,8.25,-0.527528,-0.319687,-1.13873
3348,-47,-3,14,61,-36,-112,15,-19,0.250977,-0.4375,0.805176,3.5625,3.4375,8.25,-0.527528,-0.319687,-1.13873
3349,0,-27,39,-9,15,94,24,6,0.250977,-0.4375,0.805176,3.5625,3.4375,8.25,-0.527528,-0.319687,-1.13873
3349,16,28,21,8,38,7,-31,36,0.250977,-0.4375,0.805176,3.5625,3.4375,8.25,-0.527528,-0.319687,-1.13873
3362,1,-1,41,34,75,69,63,0,0.306641,-0.529785,0.785156,1.4375,1.8125,14.1875,-0.52984,-0.316553,-1.13398
3362,3,0,23,90,82,-11,-3,17,0.306641,-0.529785,0.785156,1.4375,1.8125,14.1875,-0.52984,-0.316553,-1.13398
3378,26,-4,-45,-43,-125,-37,-19,-12,0.306641,-0.529785,0.785156,1.4375,1.8125,14.1875,-0.52984,-0.316553,-1.13398
3378,41,2,49,6,51,-11,31,-3,0.306641,-0.529785,0.785156,1.4375,1.8125,14.1875,-0.52984,-0.316553,-1.13398
3385,-65,-22,-26,-14,-28,70,-25,-15,0.344238,-0.527344,0.736328,2.3125,2.3125,14.4375,-0.532336,-0.314407,-1.12925
3385,115,-5,33,-108,-100,-52,-27,-4,0.344238,-0.527344,0.736328,2.3125,2.3125,14.4375,-0.532336,-0.314407,-1.12925
3392,-74,-40,-39,16,-24,-50,4,-21,0.344238,-0.527344,0.736328,2.3125,2.3125,14.4375,-0.532336,-0.314407,-1.12925
3392,47,-9,-92,29,51,22,-21,-4,0.344238,-0.527344,0.736328,2.3125,2.3125,14.4375,-0.532336,-0.314407,-1.12925
3407,-38,-12,-2,-63,-48,-43,-35,-1,0.315918,-0.45166,0.724121,5.375,7.375,8.8125,-0.531485,-0.311662,-1.1277
3407,2,-13,-44,55,-72,-16,12,11,0.315918,-0.45166,0.724121,5.375,7.375,8.8125,-0.531485,-0.311662,-1.1277
3408,36,5,87,-75,41,-6,-37,3,0.315918,-0.45166,0.724121,5.375,7.375,8.8125,-0.531485,-0.311662,-1.1277
3408,2,12,20,97,89,50,3,-17,0.315918,-0.45166,0.724121,5.375,7.375,8.8125,-0.531485,-0.311662,-1.1277
3430,-10,-20,-29,-94,-50,-1,-10,4,0.35791,-0.518555,0.777344,-2.5,9.875,6.0625,-0.533743,-0.308953,-1.12713
3430,-10,-11,14,41,39,16,-3,-2,0.35791,-0.518555,0.777344,-2.5,9.875,6.0625,-0.533743,-0.308953,-1.12713
3438,7,-34,-67,6,-108,5,18,-3,0.35791,-0.518555,0.777344,-2.5,9.875,6.0625,-0.533743,-0.308953,-1.12713
3438,4,12,40,15,69,-40,1,-35,0.35791,-0.518555,0.777344,-2.5,9.875,6.0625,-0.533743,-0.308953,-1.12713
3453,28,17,-10,-58,-60,-4,-83,18,0.378418,-0.543945,0.790039,-4.875,7.6875,5.4375,-0.537157,-0.307391,-1.12638
3453,-29,-19,-13,-78,34,-31,-1,-12,0.378418,-0.543945,0.790039,-4.875,7.6875,5.4375,-0.537157,-0.307391,-1.12638
3454,6,91,76,105,127,64,27,-12,0.378418,-0.543945,0.790039,-4.875,7.6875,5.4375,-0.537157,-0.307391,-1.12638
3454,21,33,-41,-51,7,26,31,27,0.378418,-0.543945,0.790039,-4.875,7.6875,5.4375,-0.537157,-0.307391,-1.12638
3476,24,-28,44,20,-70,-33,16,-16,0.360352,-0.523926,0.79541,-5.5625,7.5,3.875,-0.539981,-0.305808,-1.12626
3476,-28,-63,-32,-2,19,-14,8,-7,0.360352,-0.523926,0.79541,-5.5625,7.5,3.875,-0.539981,-0.305808,-1.12626
3477,9,-82,-15,-41,-19,-33,-46,23,0.360352,-0.523926,0.79541,-5.5625,7.5,3.875,-0.539981,-0.305808,-1.12626
3477,-40,-87,20,-60,-86,-9,-3,0,0.360352,-0.523926,0.79541,-5.5625,7.5,3.875,-0.539981,-0.305808,-1.12626
3489,-26,53,-8,37,10,-13,21,-20,0.304688,-0.454102,0.777344,-3.75,7.25,0.6875,-0.54063,-0.304032,-1.12755
3489,3,-31,-40,-98,-101,17,-6,10,0.304688,-0.454102,0.777344,-3.75,7.25,0.6875,-0.54063,-0.304032,-1.12755
3498,66,-41,-61,47,98,-27,12,8,0.304688,-0.454102,0.777344,-3.75,7.25,0.6875,-0.54063,-0.304032,-1.12755
3498,-31,-67,66,110,31,52,4,5,0.304688,-0.454102,0.777344,-3.75,7.25,0.6875,-0.54063,-0.304032,-1.12755
3513,-19,-55,-52,-60,-48,-56,-23,9,0.353027,-0.47168,0.808594,-2.3125,5.5,1.5,-0.540972,-0.303491,-1.12828
3513,-23,17,66,10,99,29,27,-24,0.353027,-0.47168,0.808594,-2.3125,5.5,1.5,-0.540972,-0.303491,-1.12828
3513,17,32,26,13,36,5,-80,-2,0.353027,-0.47168,0.808594,-2.3125,5.5,1.5,-0.540972,-0.303491,-1.12828
3513,-21,17,-16,-90,-63,21,-28,7,0.353027,-0.47168,0.808594,-2.3125,5.5,1.5,-0.540972,-0.303491,-1.12828
3536,26,2,23,119,25,23,91,11,0.348145,-0.483398,0.806152,-5.0625,3.1875,1.625,-0.542622,-0.303566,-1.12829
3536,24,34,25,-39,-64,-11,-18,2,0.348145,-0.483398,0.806152,-5.0625,3.1875,1.625,-0.542622,-0.303566,-1.12829
3536,-45,-25,-45,-69,-84,-67,-9,-15,0.348145,-0.483398,0.806152,-5.0625,3.1875,1.625,-0.542622,-0.303566,-1.12829
3536,29,18,58,94,88,26,20,12,0.348145,-0.483398,0.806152,-5.0625,3.1875,1.625,-0.542622,-0.303566,-1.12829
3559,7,18,-24,-83,30,-15,-5,-11,0.304688,-0.438965,0.799316,-2.0625,3.125,0.8125,-0.542248,-0.302934,-1.12887
3559,22,3,13,35,-20,27,-11,-10,0.304688,-0.438965,0.799316,-2.0625,3.125,0.8125,-0.542248,-0.302934,-1.12887
3559,-8,-7,-4,-11,50,18,50,-5,0.304688,-0.438965,0.799316,-2.0625,3.125,0.8125,-0.542248,-0.302934,-1.12887
3559,-3,2,-28,-92,-112,-53,4,-15,0.304688,-0.438965,0.799316,-2.0625,3.125,0.8125,-0.542248,-0.302934,-1.12887
3572,-55,40,-48,124,102,43,-31,-26,0.253906,-0.433594,0.789551,-0.9375,3.625,0.375,-0.5415,-0.301147,-1.12982
3572,19,-9,-65,27,-8,-61,-5,16,0.253906,-0.433594,0.789551,-0.9375,3.625,0.375,-0.5415,-0.301147,-1.12982
3573,-6,-3,38,-75,-26,31,-15,-12,0.253906,-0.433594,0.789551,-0.9375,3.625,0.375,-0.5415,-0.301147,-1.12982
3573,3,-11,30,21,8,-15,26,19,0.253906,-0.433594,0.789551,-0.9375,3.625,0.375,-0.5415,-0.301147,-1.12982
3596,39,-37,-1,-17,-27,-5,12,-29,0.250977,-0.513184,0.799316,-2,4,1.25,-0.542771,-0.298796,-1.12998
3596,-74,-8,-30,78,127,80,-7,-4,0.250977,-0.513184,0.799316,-2,4,1.25,-0.542771,-0.298796,-1.12998
3596,-18,2,54,20,-54,-68,21,11,0.250977,-0.513184,0.799316,-2,4,1.25,-0.542771,-0.298796,-1.12998
3596,-19,-11,-40,-60,-70,-91,-5,-9,0.250977,-0.513184,0.799316,-2,4,1.25,-0.542771,-0.298796,-1.12998
3619,15,-1,12,67,29,93,-32,26,0.24707,-0.537109,0.805664,-4.375,4.4375,3.875,-0.545467,-0.295589,-1.12924
3619,0,9,17,55,42,46,80,-12,0.24707,-0.537109,0.805664,-4.375,4.4375,3.875,-0.545467,-0.295589,-1.12924
3621,14,0,1,-53,-74,-63,-29,6,0.25,-0.522461,0.789062,-3.5625,5.9375,3.875,-0.547637,-0.292279,-1.12886
3621,-83,22,49,49,104,30,26,-7,0.25,-0.522461,0.789062,-3.5625,5.9375,3.875,-0.547637,-0.292279,-1.12886
3640,19,17,60,67,86,-6,5,8,0.25,-0.522461,0.789062,-3.5625,5.9375,3.875,-0.547637,-0.292279,-1.12886
3640,40,10,57,-75,-88,-47,44,9,0.25,-0.522461,0.789062,-3.5625,5.9375,3.875,-0.547637,-0.292279,-1.12886
3641,5,55,-52,-66,-64,-11,-53,21,0.25,-0.522461,0.789062,-3.5625,5.9375,3.875,-0.547637,-0.292279,-1.12886
3641,83,4,-77,64,22,0,-41,-7,0.25,-0.522461,0.789062,-3.5625,5.9375,3.875,-0.547637,-0.292279,-1.12886
3656,-21,-14,-8,-8,30,-1,37,3,0.244141,-0.48877,0.789551,-0.25,7.8125,2.9375,-0.547668,-0.28866,-1.1294
3656,2,-17,58,29,4,42,-20,2,0.244141,-0.48877,0.789551,-0.25,7.8125,2.9375,-0.547668,-0.28866,-1.1294
3657,9,-17,-40,-93,45,-13,30,5,0.244141,-0.48877,0.789551,-0.25,7.8125,2.9375,-0.547668,-0.28866,-1.1294
3657,16,-20,-29,-20,-128,-78,-36,-3,0.244141,-0.48877,0.789551,-0.25,7.8125,2.9375,-0.547668,-0.28866,-1.1294
3686,66,-16,1,31,51,25,10,-7,0.26416,-0.492676,0.803223,-4.6875,7.3125,3.125,-0.549199,-0.285686,-1.12989
3686,-38,2,13,26,72,33,38,21,0.26416,-0.492676,0.803223,-4.6875,7.3125,3.125,-0.549199,-0.285686,-1.12989
3686,-7,-32,-45,-83,-104,2,-60,-35,0.26416,-0.492676,0.803223,-4.6875,7.3125,3.125,-0.549199,-0.285686,-1.12989
3686,-29,1,-35,-57,30,-39,7,-8,0.26416,-0.492676,0.803223,-4.6875,7.3125,3.125,-0.549199,-0.285686,-1.12989
3693,52,14,58,70,71,44,107,35,0.298828,-0.51123,0.828125,-7.0625,8.1875,2,-0.551392,-0.283162,-1.13078
3693,-47,6,-13,-128,-128,-87,-109,-29,0.298828,-0.51123,0.828125,-7.0625,8.1875,2,-0.551392,-0.283162,-1.13078
3693,24,4,127,127,127,110,70,0,0.298828,-0.51123,0.828125,-7.0625,8.1875,2,-0.551392,-0.283162,-1.13078
3693,-42,12,-19,-2,19,60,16,12,0.298828,-0.51123,0.828125,-7.0625,8.1875,2,-0.551392,-0.283162,-1.13078
3723,-26,-6,15,-128,-128,-53,-15,-2,0.291504,-0.472656,0.821289,-3.9375,9.0625,1.5625,-0.55173,-0.280655,-1.13222
3723,37,11,-30,-7,-74,-91,-53,-13,0.291504,-0.472656,0.821289,-3.9375,9.0625,1.5625,-0.55173,-0.280655,-1.13222
3723,-26,-12,95,127,102,26,49,22,0.291504,-0.472656,0.821289,-3.9375,9.0625,1.5625,-0.55173,-0.280655,-1.13222
3723,68,11,21,16,1,57,-15,4,0.291504,-0.472656,0.821289,-3.9375,9.0625,1.5625,-0.55173,-0.280655,-1.13222
3739,-55,-18,-94,-99,-62,-98,-71,-7,0.236328,-0.469238,0.821289,-1.4375,8.5,3.3125,-0.551163,-0.276737,-1.13295
3739,32,40,-48,57,127,52,44,12,0.236328,-0.469238,0.821289,-1.4375,8.5,3.3125,-0.551163,-0.276737,-1.13295
3739,-83,100,-53,-101,-120,-61,-25,-46,0.236328,-0.469238,0.821289,-1.4375,8.5,3.3125,-0.551163,-0.276737,-1.13295
3739,-65,29,34,69,-7,1,-7,-20,0.236328,-0.469238,0.821289,-1.4375,8.5,3.3125,-0.551163,-0.276737,-1.13295
3753,-41,-13,57,99,96,74,2,4,0.246094,-0.484375,0.825684,1.375,7.8125,4.3125,-0.550284,-0.273157,-1.13334
3753,25,-58,27,-55,-88,-51,3,23,0.246094,-0.484375,0.825684,1.375,7.8125,4.3125,-0.550284,-0.273157,-1.13334
3754,-12,-121,-60,4,116,10,24,-14,0.246094,-0.484375,0.825684,1.375,7.8125,4.3125,-0.550284,-0.273157,-1.13334
3754,54,-63,-12,70,90,51,60,19,0.246094,-0.484375,0.825684,1.375,7.8125,4.3125,-0.550284,-0.273157,-1.13334
3776,5,-31,11,-128,-117,-27,-76,2,0.248047,-0.515137,0.839355,0,7.625,4.25,-0.550213,-0.269458,-1.13344
3776,-7,-45,35,127,113,33,21,-11,0.248047,-0.515137,0.839355,0,7.625,4.25,-0.550213,-0.269458,-1.13344
3777,0,6,93,106,87,-4,14,-5,0.248047,-0.515137,0.839355,0,7.625,4.25,-0.550213,-0.269458,-1.13344
3777,21,-9,-45,-84,-128,-94,-82,13,0.248047,-0.515137,0.839355,0,7.625,4.25,-0.550213,-0.269458,-1.13344
3798,-9,-28,74,49,125,-28,-8,-23,0.255371,-0.505859,0.817383,0.375,8.375,2.9375,-0.550032,-0.266287,-1.13409
3798,32,5,15,74,107,50,41,9,0.255371,-0.505859,0.817383,0.375,8.375,2.9375,-0.550032,-0.266287,-1.13409
3799,32,-2,-1,-61,-124,-24,-62,15,0.255371,-0.505859,0.817383,0.375,8.375,2.9375,-0.550032,-0.266287,-1.13409
3799,-49,0,106,13,-21,32,35,-16,0.255371,-0.505859,0.817383,0.375,8.375,2.9375,-0.550032,-0.266287,-1.13409
3813,-12,22,-20,43,45,13,2,30,0.229492,-0.495605,0.804199,1.4375,7.125,6.375,-0.549702,-0.262447,-1.13344
3813,46,-5,-126,-62,-128,-101,-7,-2,0.229492,-0.495605,0.804199,1.4375,7.125,6.375,-0.549702,-0.262447,-1.13344
3814,-58,-16,-60,-38,91,107,16,-16,0.229492,-0.495605,0.804199,1.4375,7.125,6.375,-0.549702,-0.262447,-1.13344
3814,-32,3,33,69,78,7,20,8,0.229492,-0.495605,0.804199,1.4375,7.125,6.375,-0.549702,-0.262447,-1.13344
3836,45,12,11,-120,-106,-128,-55,14,0.235352,-0.494629,0.804199,0.75,7.4375,7.375,-0.549647,-0.258401,-1.13255
3836,-29,-12,13,80,127,127,55,-17,0.235352,-0.494629,0.804199,0.75,7.4375,7.375,-0.549647,-0.258401,-1.13255
3837,70,0,-4,2,-4,-39,7,43,0.235352,-0.494629,0.804199,0.75,7.4375,7.375,-0.549647,-0.258401,-1.13255
3837,-14,-5,-73,-128,-120,-98,-37,-18,0.235352,-0.494629,0.804199,0.75,7.4375,7.375,-0.549647,-0.258401,-1.13255
3859,-16,-4,-36,-37,-51,53,-3,-31,0.255371,-0.499023,0.8125,0.875,8.75,4.4375,-0.549313,-0.255185,-1.13288
3859,42,25,8,15,75,-5,6,32,0.255371,-0.499023,0.8125,0.875,8.75,4.4375,-0.549313,-0.255185,-1.13288
3859,-30,5,29,80,3,15,-3,-3,0.255371,-0.499023,0.8125,0.875,8.75,4.4375,-0.549313,-0.255185,-1.13288
3859,-28,6,-50,-30,67,35,-18,-16,0.255371,-0.499023,0.8125,0.875,8.75,4.4375,-0.549313,-0.255185,-1.13288
3873,11,7,47,63,-69,-23,39,4,0.249023,-0.488281,0.805176,2.0625,9.8125,3.3125,-0.548319,-0.25184,-1.13368
3873,-16,7,28,-128,-128,-25,-63,-12,0.249023,-0.488281,0.805176,2.0625,9.8125,3.3125,-0.548319,-0.25184,-1.13368
3873,1,-5,-30,68,14,2,4,5,0.249023,-0.488281,0.805176,2.0625,9.8125,3.3125,-0.548319,-0.25184,-1.13368
3873,5,-5,-13,2,101,3,-14,-1,0.249023,-0.488281,0.805176,2.0625,9.8125,3.3125,-0.548319,-0.25184,-1.13368
3896,15,-4,-19,-28,15,6,19,10,0.223145,-0.482422,0.797852,2.4375,7.375,5.4375,-0.547359,-0.248316,-1.13341
3896,-3,11,-13,-47,-44,-75,-36,-26,0.223145,-0.482422,0.797852,2.4375,7.375,5.4375,-0.547359,-0.248316,-1.13341
3896,-51,-3,22,83,-9,41,27,8,0.223145,-0.482422,0.797852,2.4375,7.375,5.4375,-0.547359,-0.248316,-1.13341
3896,64,13,18,-21,-9,-4,-1,9,0.223145,-0.482422,0.797852,2.4375,7.375,5.4375,-0.547359,-0.248316,-1.13341
3919,-61,-24,-9,12,8,54,0,-35,0.248535,-0.501465,0.815918,0.125,6.375,5.5,-0.547621,-0.245617,-1.13292
3919,51,4,-11,-23,23,-27,18,11,0.248535,-0.501465,0.815918,0.125,6.375,5.5,-0.547621,-0.245617,-1.13292
3919,-34,-13,-25,-124,-115,-21,-1,-5,0.248535,-0.501465,0.815918,0.125,6.375,5.5,-0.547621,-0.245617,-1.13292
3919,49,12,30,107,-10,-13,4,7,0.248535,-0.501465,0.815918,0.125,6.375,5.5,-0.547621,-0.245617,-1.13292
3933,-13,19,56,68,121,81,75,10,0.231445,-0.502441,0.817383,-1.125,7.8125,3.625,-0.547922,-0.242393,-1.13329
3933,-40,-30,-77,-45,-69,-33,-56,-25,0.231445,-0.502441,0.817383,-1.125,7.8125,3.625,-0.547922,-0.242393,-1.13329
3933,74,21,20,-87,-39,-49,-9,-3,0.231445,-0.502441,0.817383,-1.125,7.8125,3.625,-0.547922,-0.242393,-1.13329
3933,-59,-7,-25,69,70,75,55,7,0.231445,-0.502441,0.817383,-1.125,7.8125,3.625,-0.547922,-0.242393,-1.13329
3956,57,-2,-47,-89,-94,-94,-77,10,0.241211,-0.478027,0.801758,0.3125,7.8125,2.3125,-0.547428,-0.239983,-1.13406
3956,-18,19,109,45,70,14,2,-13,0.241211,-0.478027,0.801758,0.3125,7.8125,2.3125,-0.547428,-0.239983,-1.13406
3957,-35,48,-109,36,95,36,35,4,0.241211,-0.478027,0.801758,0.3125,7.8125,2.3125,-0.547428,-0.239983,-1.13406
3957,0,27,36,-81,-16,-28,-24,-7,0.241211,-0.478027,0.801758,0.3125,7.8125,2.3125,-0.547428,-0.239983,-1.13406
3978,18,5,25,67,35,-35,10,-6,0.22998,-0.478516,0.808105,2.125,5.6875,4.9375,-0.546489,-0.237437,-1.13361
3978,2,-35,-17,-82,-42,42,7,12,0.22998,-0.478516,0.808105,2.125,5.6875,4.9375,-0.546489,-0.237437,-1.13361
3979,37,-53,-7,-79,-105,-70,3,-10,0.22998,-0.478516,0.808105,2.125,5.6875,4.9375,-0.546489,-0.237437,-1.13361
3979,9,-30,28,116,111,72,23,19,0.22998,-0.478516,0.808105,2.125,5.6875,4.9375,-0.546489,-0.237437,-1.13361
4001,-17,-13,-11,-18,-14,39,-20,-5,0.245605,-0.48877,0.815918,-0.875,5.8125,3.25,-0.546615,-0.235484,-1.13371
4001,-27,-9,16,-4,-66,-56,-11,2,0.245605,-0.48877,0.815918,-0.875,5.8125,3.25,-0.546615,-0.235484,-1.13371
4002,18,5,52,52,42,51,-4,-12,0.245605,-0.48877,0.815918,-0.875,5.8125,3.25,-0.546615,-0.235484,-1.13371
4002,5,-20,-71,-87,-128,-53,26,6,0.245605,-0.48877,0.815918,-0.875,5.8125,3.25,-0.546615,-0.235484,-1.13371
4016,10,1,65,-56,-51,-90,-52,-13,0.234863,-0.492676,0.821289,-4.25,5.8125,1.4375,-0.547664,-0.233617,-1.13448
4016,-3,4,-98,86,99,103,17,18,0.234863,-0.492676,0.821289,-4.25,5.8125,1.4375,-0.547664,-0.233617,-1.13448
4017,0,8,40,101,70,34,9,0,0.241699,-0.496094,0.808105,-1.625,4.875,1.1875,-0.548173,-0.232371,-1.1351
4017,-17,-3,-2,-78,-86,-24,-4,0,0.241699,-0.496094,0.808105,-1.625,4.875,1.1875,-0.548173,-0.232371,-1.1351
4038,-18,-35,-47,-30,19,-40,14,-4,0.241699,-0.496094,0.808105,-1.625,4.875,1.1875,-0.548173,-0.232371,-1.1351
4038,-14,8,-4,-113,-126,-51,-36,-54,0.241699,-0.496094,0.808105,-1.625,4.875,1.1875,-0.548173,-0.232371,-1.1351
4040,-41,0,25,71,117,3,37,11,0.245117,-0.462891,0.803223,1.6875,5.25,1.625,-0.546949,-0.231147,-1.13558
4040,34,31,50,53,109,77,-33,24,0.245117,-0.462891,0.803223,1.6875,5.25,1.625,-0.546949,-0.231147,-1.13558
4052,22,-2,-95,-67,-76,-83,-24,8,0.245117,-0.462891,0.803223,1.6875,5.25,1.625,-0.546949,-0.231147,-1.13558
4052,-22,9,72,63,114,32,12,4,0.245117,-0.462891,0.803223,1.6875,5.25,1.625,-0.546949,-0.231147,-1.13558
4061,78,-2,-78,21,32,37,23,7,0.205566,-0.489746,0.807617,-4.1875,5.0625,1.3125,-0.548127,-0.229049,-1.13625
4061,-77,-13,-10,-105,-114,-2,19,0,0.205566,-0.489746,0.807617,-4.1875,5.0625,1.3125,-0.548127,-0.229049,-1.13625
4076,16,3,1,-7,12,6,-16,-4,0.205566,-0.489746,0.807617,-4.1875,5.0625,1.3125,-0.548127,-0.229049,-1.13625
4076,11,-5,-31,-93,-86,-55,-14,11,0.205566,-0.489746,0.807617,-4.1875,5.0625,1.3125,-0.548127,-0.229049,-1.13625
4077,-10,-14,-24,25,-2,27,-67,-25,0.205078,-0.508789,0.824707,-1.5625,3.875,0.75,-0.54861,-0.227294,-1.13664
4077,-2,-9,-2,37,80,-55,-12,-3,0.205078,-0.508789,0.824707,-1.5625,3.875,0.75,-0.54861,-0.227294,-1.13664
4098,37,26,15,87,51,77,21,0,0.205078,-0.508789,0.824707,-1.5625,3.875,0.75,-0.54861,-0.227294,-1.13664
4098,-9,-4,59,0,-66,44,14,14,0.205078,-0.508789,0.824707,-1.5625,3.875,0.75,-0.54861,-0.227294,-1.13664
4100,-25,-2,-14,-19,-40,-85,-36,1,0.217773,-0.495605,0.824707,-0.125,1.4375,2.0625,-0.548552,-0.226395,-1.13639
4100,-37,-4,-11,-12,39,40,-9,-12,0.217773,-0.495605,0.824707,-0.125,1.4375,2.0625,-0.548552,-0.226395,-1.13639
4112,-32,-12,-19,70,8,40,55,-2,0.217773,-0.495605,0.824707,-0.125,1.4375,2.0625,-0.548552,-0.226395,-1.13639
4112,-26,21,81,47,87,-42,-42,-21,0.217773,-0.495605,0.824707,-0.125,1.4375,2.0625,-0.548552,-0.226395,-1.13639
4121,38,-9,-64,-91,-59,2,68,16,0.213867,-0.498535,0.824219,0.9375,-0.3125,2.4375,-0.54837,-0.225845,-1.13556
4121,8,6,39,-8,-76,-40,-75,-28,0.213867,-0.498535,0.824219,0.9375,-0.3125,2.4375,-0.54837,-0.225845,-1.13556
4136,-7,-4,-47,81,92,18,30,-5,0.213867,-0.498535,0.824219,0.9375,-0.3125,2.4375,-0.54837,-0.225845,-1.13556
4136,40,8,-30,-79,-106,-90,-1,24,0.213867,-0.498535,0.824219,0.9375,-0.3125,2.4375,-0.54837,-0.225845,-1.13556
4137,-44,-14,39,73,84,76,46,5,0.21875,-0.492188,0.817871,1.25,-1.8125,3.125,-0.548006,-0.22578,-1.13431
4137,39,6,34,30,52,20,25,-27,0.21875,-0.492188,0.817871,1.25,-1.8125,3.125,-0.548006,-0.22578,-1.13431
4159,-15,-1,-51,-78,-82,-52,-28,-8,0.21875,-0.492188,0.817871,1.25,-1.8125,3.125,-0.548006,-0.22578,-1.13431
4159,21,4,14,-8,18,9,-6,14,0.21875,-0.492188,0.817871,1.25,-1.8125,3.125,-0.548006,-0.22578,-1.13431
4160,-9,-7,-26,3,31,-33,-9,-15,0.233398,-0.495605,0.825195,-0.3125,-2.0625,2.8125,-0.548155,-0.226159,-1.13301
4160,49,0,11,-42,-15,-62,-33,11,0.233398,-0.495605,0.825195,-0.3125,-2.0625,2.8125,-0.548155,-0.226159,-1.13301
4172,-26,-2,23,68,-11,94,43,-15,0.233398,-0.495605,0.825195,-0.3125,-2.0625,2.8125,-0.548155,-0.226159,-1.13301
4172,64,13,-20,-77,-9,53,-12,22,0.233398,-0.495605,0.825195,-0.3125,-2.0625,2.8125,-0.548155,-0.226159,-1.13301
4188,-14,19,40,35,21,12,-60,20,0.251953,-0.498535,0.818848,-1.125,-1.3125,0.625,-0.548585,-0.227197,-1.13267
4188,-68,-15,-21,27,-22,22,72,4,0.251953,-0.498535,0.818848,-1.125,-1.3125,0.625,-0.548585,-0.227197,-1.13267
4196,-43,13,-34,-98,-48,-102,1,-15,0.251953,-0.498535,0.818848,-1.125,-1.3125,0.625,-0.548585,-0.227197,-1.13267
4196,-6,-21,11,127,108,30,-6,-3,0.251953,-0.498535,0.818848,-1.125,-1.3125,0.625,-0.548585,-0.227197,-1.13267
4198,60,0,-21,-8,-49,-17,4,2,0.207031,-0.479004,0.820312,0.875,-1.6875,0.5,-0.548042,-0.227299,-1.13231
4198,-32,-27,-56,-59,-3,-17,-42,-11,0.207031,-0.479004,0.820312,0.875,-1.6875,0.5,-0.548042,-0.227299,-1.13231
4218,24,26,20,24,79,50,-4,15,0.207031,-0.479004,0.820312,0.875,-1.6875,0.5,-0.548042,-0.227299,-1.13231
4218,-8,18,22,-15,-79,-66,16,0,0.207031,-0.479004,0.820312,0.875,-1.6875,0.5,-0.548042,-0.227299,-1.13231
4220,-56,-29,-19,-126,-55,-11,-29,-24,0.209473,-0.490723,0.816895,0.0625,-2.125,1.4375,-0.547913,-0.227398,-1.1315
4220,47,-8,-36,86,42,-16,-6,24,0.209473,-0.490723,0.816895,0.0625,-2.125,1.4375,-0.547913,-0.227398,-1.1315
4232,-70,-5,27,-26,21,47,30,-23,0.209473,-0.490723,0.816895,0.0625,-2.125,1.4375,-0.547913,-0.227398,-1.1315
4232,-6,10,-13,124,110,127,34,17,0.209473,-0.490723,0.816895,0.0625,-2.125,1.4375,-0.547913,-0.227398,-1.1315
4241,22,26,69,16,-12,-48,14,0,0.23291,-0.494629,0.818848,-1.1875,-2.3125,1,-0.548364,-0.228056,-1.13075
4241,46,6,-36,-128,-128,-37,-1,1,0.23291,-0.494629,0.818848,-1.1875,-2.3125,1,-0.548364,-0.228056,-1.13075
4256,-9,6,12,41,72,62,-6,12,0.23291,-0.494629,0.818848,-1.1875,-2.3125,1,-0.548364,-0.228056,-1.13075
4256,-35,-7,12,22,28,-24,2,-19,0.23291,-0.494629,0.818848,-1.1875,-2.3125,1,-0.548364,-0.228056,-1.13075
4257,-26,-2,-41,-128,-80,-98,-20,3,0.222168,-0.469238,0.819336,1.8125,-1,0.5,-0.547241,-0.228419,-1.13063
4257,5,15,97,127,108,72,20,5,0.222168,-0.469238,0.819336,1.8125,-1,0.5,-0.547241,-0.228419,-1.13063
4286,25,-2,-18,16,-27,-46,-33,9,0.222168,-0.469238,0.819336,1.8125,-1,0.5,-0.547241,-0.228419,-1.13063
4286,-53,-11,-2,13,-23,-15,3,8,0.222168,-0.469238,0.819336,1.8125,-1,0.5,-0.547241,-0.228419,-1.13063
4287,15,-11,-28,16,39,35,28,7,0.217773,-0.469727,0.817383,-0.25,-2.9375,1.0625,-0.546796,-0.22905,-1.12984
4287,41,19,42,-40,-26,-4,-17,8,0.217773,-0.469727,0.817383,-0.25,-2.9375,1.0625,-0.546796,-0.22905,-1.12984
4300,-4,-32,-20,-55,-58,-68,-7,-19,0.217773,-0.469727,0.817383,-0.25,-2.9375,1.0625,-0.546796,-0.22905,-1.12984
4300,-3,9,-56,15,0,28,-4,13,0.217773,-0.469727,0.817383,-0.25,-2.9375,1.0625,-0.546796,-0.22905,-1.12984
4307,65,16,49,-22,9,-59,-33,11,0.239746,-0.504883,0.810547,0.9375,-3.25,1.9375,-0.547069,-0.229979,-1.12858
4307,-64,-34,-36,0,-45,51,15,-30,0.239746,-0.504883,0.810547,0.9375,-3.25,1.9375,-0.547069,-0.229979,-1.12858
4316,-5,5,51,25,81,62,-26,-1,0.239746,-0.504883,0.810547,0.9375,-3.25,1.9375,-0.547069,-0.229979,-1.12858
4316,25,6,55,86,62,18,17,-12,0.239746,-0.504883,0.810547,0.9375,-3.25,1.9375,-0.547069,-0.229979,-1.12858
4317,-36,1,19,-81,-112,-24,-8,-4,0.21875,-0.498047,0.807129,-0.5625,-3.5,1.0625,-0.54751,-0.230652,-1.12754
4317,-52,-7,-40,-6,42,-73,-23,-8,0.21875,-0.498047,0.807129,-0.5625,-3.5,1.0625,-0.54751,-0.230652,-1.12754
4339,41,-4,-32,-10,-66,45,18,12,0.21875,-0.498047,0.807129,-0.5625,-3.5,1.0625,-0.54751,-0.230652,-1.12754
4339,-10,7,34,-56,92,-13,-18,-10,0.21875,-0.498047,0.807129,-0.5625,-3.5,1.0625,-0.54751,-0.230652,-1.12754
4340,27,-8,-48,38,44,52,18,3,0.227051,-0.469238,0.807617,-0.8125,-1.8125,-1.0625,-0.547256,-0.231566,-1.12763
4340,34,-4,7,-33,-128,-31,4,-4,0.227051,-0.469238,0.807617,-0.8125,-1.8125,-1.0625,-0.547256,-0.231566,-1.12763
4353,-60,-34,-43,-8,32,-19,-31,-24,0.227051,-0.469238,0.807617,-0.8125,-1.8125,-1.0625,-0.547256,-0.231566,-1.12763
4353,-23,-9,35,-44,-80,-38,-10,-15,0.227051,-0.469238,0.807617,-0.8125,-1.8125,-1.0625,-0.547256,-0.231566,-1.12763
4361,-3,-11,-76,54,84,28,3,-2,0.226074,-0.491699,0.813965,-1.75,-3.375,0.5625,-0.548014,-0.232525,-1.12686
4361,17,10,20,90,79,5,-13,4,0.226074,-0.491699,0.813965,-1.75,-3.375,0.5625,-0.548014,-0.232525,-1.12686
4376,28,14,0,-65,-23,-8,19,5,0.226074,-0.491699,0.813965,-1.75,-3.375,0.5625,-0.548014,-0.232525,-1.12686
4376,32,0,5,-10,-78,-32,-26,3,0.226074,-0.491699,0.813965,-1.75,-3.375,0.5625,-0.548014,-0.232525,-1.12686
4378,-24,-22,-37,-69,27,-2,-48,-46,0.230957,-0.505371,0.81543,-0.6875,-3.25,1.125,-0.548492,-0.233407,-1.12593
4378,37,15,-3,65,50,33,26,29,0.230957,-0.505371,0.81543,-0.6875,-3.25,1.125,-0.548492,-0.233407,-1.12593
4406,-47,6,50,78,14,0,-1,-25,0.230957,-0.505371,0.81543,-0.6875,-3.25,1.125,-0.548492,-0.233407,-1.12593
4406,8,-10,-57,-44,30,-58,-3,-1,0.230957,-0.505371,0.81543,-0.6875,-3.25,1.125,-0.548492,-0.233407,-1.12593
4408,-49,-9,56,1,-41,24,24,-8,0.238281,-0.480957,0.817871,-0.625,-2.3125,0,-0.548407,-0.234268,-1.12558
4408,51,26,51,-25,-38,6,-19,10,0.238281,-0.480957,0.817871,-0.625,-2.3125,0,-0.548407,-0.234268,-1.12558
4412,25,-23,-94,11,106,53,16,1,0.238281,-0.480957,0.817871,-0.625,-2.3125,0,-0.548407,-0.234268,-1.12558
4412,-21,-13,-16,-69,-44,-43,2,5,0.238281,-0.480957,0.817871,-0.625,-2.3125,0,-0.548407,-0.234268,-1.12558
4421,-39,-3,79,95,-27,-25,-41,-7,0.234863,-0.469727,0.816406,-0.125,-2.5625,-0.0625,-0.547917,-0.235287,-1.12519
4421,-6,-7,-45,12,113,31,15,-7,0.234863,-0.469727,0.816406,-0.125,-2.5625,-0.0625,-0.547917,-0.235287,-1.12519
4436,39,15,85,-115,-128,-77,-4,18,0.234863,-0.469727,0.816406,-0.125,-2.5625,-0.0625,-0.547917,-0.235287,-1.12519
4436,-9,-11,-77,82,124,50,17,-4,0.234863,-0.469727,0.816406,-0.125,-2.5625,-0.0625,-0.547917,-0.235287,-1.12519
4438,0,9,31,27,33,28,39,31,0.223633,-0.498047,0.806641,-0.8125,-2.8125,-0.1875,-0.548356,-0.236023,-1.12474
4438,-35,-7,-35,-27,-67,20,14,3,0.223633,-0.498047,0.806641,-0.8125,-2.8125,-0.1875,-0.548356,-0.236023,-1.12474
4458,4,4,58,21,-64,-42,-37,-4,0.223633,-0.498047,0.806641,-0.8125,-2.8125,-0.1875,-0.548356,-0.236023,-1.12474
4458,15,-4,-1,-19,9,-14,19,4,0.223633,-0.498047,0.806641,-0.8125,-2.8125,-0.1875,-0.548356,-0.236023,-1.12474
4459,22,4,-45,-19,8,-32,-20,6,0.240234,-0.494141,0.8125,-0.4375,-2.8125,0.4375,-0.548661,-0.237008,-1.12411
4459,-2,11,-2,-3,-112,36,0,-4,0.240234,-0.494141,0.8125,-0.4375,-2.8125,0.4375,-0.548661,-0.237008,-1.12411
4472,1,1,9,0,30,42,25,29,0.240234,-0.494141,0.8125,-0.4375,-2.8125,0.4375,-0.548661,-0.237008,-1.12411
4472,22,7,40,94,96,52,24,-7,0.240234,-0.494141,0.8125,-0.4375,-2.8125,0.4375,-0.548661,-0.237008,-1.12411
4481,-32,5,-18,-87,-62,-26,3,-11,0.244629,-0.490234,0.821777,-1.5625,-2.6875,0.1875,-0.549033,-0.23811,-1.12358
4481,-19,-10,-18,-20,-72,-70,-9,3,0.244629,-0.490234,0.821777,-1.5625,-2.6875,0.1875,-0.549033,-0.23811,-1.12358
4503,22,4,-39,85,125,-3,-9,2,0.244629,-0.490234,0.821777,-1.5625,-2.6875,0.1875,-0.549033,-0.23811,-1.12358
4503,27,-7,25,-106,-128,-31,-3,14,0.244629,-0.490234,0.821777,-1.5625,-2.6875,0.1875,-0.549033,-0.23811,-1.12358
4505,-8,-6,27,42,29,-30,-31,-13,0.241211,-0.494141,0.813965,-1.9375,-3.4375,0,-0.549833,-0.239277,-1.12293
4505,28,9,-60,-17,94,69,76,37,0.241211,-0.494141,0.813965,-1.9375,-3.4375,0,-0.549833,-0.239277,-1.12293
4518,-66,13,113,52,-6,3,-42,-37,0.241211,-0.494141,0.813965,-1.9375,-3.4375,0,-0.549833,-0.239277,-1.12293
4518,-38,-12,-84,-50,-80,-29,-56,-3,0.241211,-0.494141,0.813965,-1.9375,-3.4375,0,-0.549833,-0.239277,-1.12293
4520,40,-9,-27,-94,-72,-73,-19,5,0.225098,-0.48291,0.821777,-0.5625,-2.125,-0.75,-0.549613,-0.239884,-1.12293
4520,-6,3,101,68,79,40,4,-31,0.225098,-0.48291,0.821777,-0.5625,-2.125,-0.75,-0.549613,-0.239884,-1.12293
4541,37,17,-7,25,-22,29,47,27,0.225098,-0.48291,0.821777,-0.5625,-2.125,-0.75,-0.549613,-0.239884,-1.12293
4541,8,10,54,-43,-57,-23,-23,1,0.225098,-0.48291,0.821777,-0.5625,-2.125,-0.75,-0.549613,-0.239884,-1.12293
4542,-13,-15,-67,100,63,37,19,-11,0.219238,-0.488281,0.833984,-2.8125,-3.1875,-1,-0.550123,-0.240556,-1.12268
4542,-26,13,59,-71,4,-20,0,-5,0.219238,-0.488281,0.833984,-2.8125,-3.1875,-1,-0.550123,-0.240556,-1.12268
4556,29,-17,-82,-69,-63,-79,22,9,0.219238,-0.488281,0.833984,-2.8125,-3.1875,-1,-0.550123,-0.240556,-1.12268
4556,-59,-20,6,-21,99,83,-51,-45,0.219238,-0.488281,0.833984,-2.8125,-3.1875,-1,-0.550123,-0.240556,-1.12268
4557,46,-7,-66,-128,-128,-54,-11,21,0.228027,-0.492188,0.829102,-0.625,-3.1875,0.25,-0.550128,-0.24124,-1.12206
4557,-10,14,69,127,80,69,10,-23,0.228027,-0.492188,0.829102,-0.625,-3.1875,0.25,-0.550128,-0.24124,-1.12206
4577,20,6,-32,97,113,35,10,-2,0.228027,-0.492188,0.829102,-0.625,-3.1875,0.25,-0.550128,-0.24124,-1.12206
4577,-1,15,16,-102,-88,-64,19,9,0.228027,-0.492188,0.829102,-0.625,-3.1875,0.25,-0.550128,-0.24124,-1.12206
4586,1,8,71,-24,108,29,2,-2,0.229492,-0.485352,0.825684,0.1875,-2.5625,0.5625,-0.549677,-0.241686,-1.12163
4586,0,-5,-16,28,-8,-36,-20,-17,0.229492,-0.485352,0.825684,0.1875,-2.5625,0.5625,-0.549677,-0.241686,-1.12163
4601,16,-32,-101,-128,-127,-61,-45,16,0.229492,-0.485352,0.825684,0.1875,-2.5625,0.5625,-0.549677,-0.241686,-1.12163
4601,34,20,98,109,88,41,15,2,0.229492,-0.485352,0.825684,0.1875,-2.5625,0.5625,-0.549677,-0.241686,-1.12163
4602,-28,9,24,127,97,97,21,-2,0.223145,-0.494629,0.821777,-1.0625,-3,1.125,-0.550017,-0.24206,-1.1208
4602,0,15,43,-44,-85,-106,-25,12,0.223145,-0.494629,0.821777,-1.0625,-3,1.125,-0.550017,-0.24206,-1.1208
4616,-12,-9,-18,-89,-71,-1,-7,-18,0.223145,-0.494629,0.821777,-1.0625,-3,1.125,-0.550017,-0.24206,-1.1208
4616,-6,-3,-47,8,74,74,35,-9,0.223145,-0.494629,0.821777,-1.0625,-3,1.125,-0.550017,-0.24206,-1.1208
4617,95,9,17,9,-24,2,21,20,0.23584,-0.485352,0.82959,-1.3125,-3.0625,1,-0.550173,-0.24277,-1.12006
4617,-106,-24,-35,3,45,-9,-33,-21,0.23584,-0.485352,0.82959,-1.3125,-3.0625,1,-0.550173,-0.24277,-1.12006
4639,32,-2,93,-4,-53,-39,-2,18,0.23584,-0.485352,0.82959,-1.3125,-3.0625,1,-0.550173,-0.24277,-1.12006
4639,-11,-26,-89,-101,-34,-101,-24,-1,0.23584,-0.485352,0.82959,-1.3125,-3.0625,1,-0.550173,-0.24277,-1.12006
4640,3,13,13,82,22,91,27,8,0.244629,-0.486816,0.822754,-1.3125,-0.25,1,-0.550317,-0.242758,-1.11976
4640,67,-13,-39,-104,24,-54,-33,0,0.244629,-0.486816,0.822754,-1.3125,-0.25,1,-0.550317,-0.242758,-1.11976
4661,-101,-8,-6,127,127,69,24,-50,0.244629,-0.486816,0.822754,-1.3125,-0.25,1,-0.550317,-0.242758,-1.11976
4661,17,22,73,62,26,46,24,22,0.244629,-0.486816,0.822754,-1.3125,-0.25,1,-0.550317,-0.242758,-1.11976
4662,-30,14,30,-4,13,-28,-11,-13,0.220703,-0.486816,0.830078,-4.0625,-0.375,1,-0.55133,-0.242294,-1.11943
4662,9,-2,-3,-84,-113,-47,-7,11,0.220703,-0.486816,0.830078,-4.0625,-0.375,1,-0.55133,-0.242294,-1.11943
4675,32,-2,-49,-128,-109,-61,-18,-11,0.220703,-0.486816,0.830078,-4.0625,-0.375,1,-0.55133,-0.242294,-1.11943
4675,3,-10,-49,53,92,10,-3,-3,0.220703,-0.486816,0.830078,-4.0625,-0.375,1,-0.55133,-0.242294,-1.11943
4677,-25,-10,-20,53,-4,22,14,-8,0.221191,-0.480957,0.818359,-2.75,1.375,2.8125,-0.551939,-0.241025,-1.11898
4677,60,-7,5,-29,-3,4,27,18,0.221191,-0.480957,0.818359,-2.75,1.375,2.8125,-0.551939,-0.241025,-1.11898
4699,-67,-62,33,18,1,-64,-42,-14,0.221191,-0.480957,0.818359,-2.75,1.375,2.8125,-0.551939,-0.241025,-1.11898
4699,-20,-63,-19,-16,-67,40,38,-5,0.221191,-0.480957,0.818359,-2.75,1.375,2.8125,-0.551939,-0.241025,-1.11898
4700,31,-2,43,-51,-66,1,-8,2,0.199707,-0.477539,0.822754,0.1875,5.1875,3.6875,-0.551244,-0.238071,-1.11894
4700,-5,13,34,-20,1,-11,2,-5,0.199707,-0.477539,0.822754,0.1875,5.1875,3.6875,-0.551244,-0.238071,-1.11894
4721,9,50,-3,92,83,91,27,7,0.199707,-0.477539,0.822754,0.1875,5.1875,3.6875,-0.551244,-0.238071,-1.11894
4721,22,21,-70,3,-95,-23,-2,13,0.199707,-0.477539,0.822754,0.1875,5.1875,3.6875,-0.551244,-0.238071,-1.11894
4722,-9,20,88,-18,40,-35,-8,-17,0.214355,-0.486328,0.824707,3.9375,6.875,2.5625,-0.549373,-0.235155,-1.11962
4722,8,9,-87,-70,16,-27,-6,10,0.214355,-0.486328,0.824707,3.9375,6.875,2.5625,-0.549373,-0.235155,-1.11962
4735,27,11,10,43,21,0,9,-4,0.214355,-0.486328,0.824707,3.9375,6.875,2.5625,-0.549373,-0.235155,-1.11962
4735,-18,4,36,78,80,50,3,-5,0.214355,-0.486328,0.824707,3.9375,6.875,2.5625,-0.549373,-0.235155,-1.11962
4742,-80,4,-7,-72,-93,-15,6,-10,0.222168,-0.492676,0.82666,2.9375,2.5625,6.6875,-0.548346,-0.233114,-1.11812
4742,8,5,-20,-18,-52,-54,-28,-12,0.222168,-0.492676,0.82666,2.9375,2.5625,6.6875,-0.548346,-0.233114,-1.11812
4758,61,7,52,48,43,85,45,35,0.222168,-0.492676,0.82666,2.9375,2.5625,6.6875,-0.548346,-0.233114,-1.11812
4758,-11,6,-28,-43,-19,-8,-19,-27,0.222168,-0.492676,0.82666,2.9375,2.5625,6.6875,-0.548346,-0.233114,-1.11812
4760,29,3,3,14,-15,-30,-1,11,0.222656,-0.480469,0.830566,3.1875,2.625,8.75,-0.547264,-0.230633,-1.11598
4760,6,-12,-6,-48,-53,6,34,7,0.222656,-0.480469,0.830566,3.1875,2.625,8.75,-0.547264,-0.230633,-1.11598
4781,-37,-1,-26,35,30,32,-20,20,0.222656,-0.480469,0.830566,3.1875,2.625,8.75,-0.547264,-0.230633,-1.11598
4781,-53,2,35,3,87,29,-9,-7,0.222656,-0.480469,0.830566,3.1875,2.625,8.75,-0.547264,-0.230633,-1.11598
4782,-1,0,37,-70,-73,5,23,1,0.232422,-0.504883,0.822266,4.6875,3.375,6.1875,-0.545937,-0.228635,-1.11479
4782,5,-4,-7,127,127,11,-8,-8,0.232422,-0.504883,0.822266,4.6875,3.375,6.1875,-0.545937,-0.228635,-1.11479
4811,43,20,64,-52,-58,18,14,23,0.232422,-0.504883,0.822266,4.6875,3.375,6.1875,-0.545937,-0.228635,-1.11479
4811,-10,5,50,-84,-110,-75,-2,-13,0.232422,-0.504883,0.822266,4.6875,3.375,6.1875,-0.545937,-0.228635,-1.11479
4813,-10,-10,-7,-62,65,-37,-12,0,0.251465,-0.463867,0.801758,4.3125,1.875,3.625,-0.544128,-0.228275,-1.11415
4813,-25,-11,-1,22,-26,74,-3,-1,0.251465,-0.463867,0.801758,4.3125,1.875,3.625,-0.544128,-0.228275,-1.11415
4826,-9,13,35,43,122,-31,-18,0,0.251465,-0.463867,0.801758,4.3125,1.875,3.625,-0.544128,-0.228275,-1.11415
4826,35,-3,-63,-22,-85,-16,12,3,0.251465,-0.463867,0.801758,4.3125,1.875,3.625,-0.544128,-0.228275,-1.11415
4827,-10,-11,-12,-81,-99,-57,6,-8,0.232422,-0.478516,0.805664,3,1.8125,7.125,-0.543355,-0.226833,-1.11226
4827,-15,-15,-39,28,19,-1,-9,3,0.232422,-0.478516,0.805664,3,1.8125,7.125,-0.543355,-0.226833,-1.11226
4841,-28,4,29,67,81,7,-1,0,0.232422,-0.478516,0.805664,3,1.8125,7.125,-0.543355,-0.226833,-1.11226
4841,-8,15,34,-24,72,91,24,22,0.232422,-0.478516,0.805664,3,1.8125,7.125,-0.543355,-0.226833,-1.11226
4842,32,3,-29,14,-8,-5,-5,8,0.23584,-0.510742,0.810547,3.5,3,5.5,-0.542793,-0.225325,-1.111
4842,-39,-25,-33,-106,-97,-24,-9,-27,0.23584,-0.510742,0.810547,3.5,3,5.5,-0.542793,-0.225325,-1.111
4864,21,5,10,-74,-128,-101,-1,14,0.23584,-0.510742,0.810547,3.5,3,5.5,-0.542793,-0.225325,-1.111
4864,18,5,15,127,72,42,-15,4,0.23584,-0.510742,0.810547,3.5,3,5.5,-0.542793,-0.225325,-1.111
4865,-46,-10,17,83,126,15,-14,-10,0.227051,-0.481934,0.797852,3.5,3.6875,3.8125,-0.541797,-0.223903,-1.1105
4865,26,10,40,-27,37,7,27,8,0.227051,-0.481934,0.797852,3.5,3.6875,3.8125,-0.541797,-0.223903,-1.1105
4878,38,11,-59,4,-20,22,-2,-1,0.227051,-0.481934,0.797852,3.5,3.6875,3.8125,-0.541797,-0.223903,-1.1105
4878,52,5,-9,17,-34,-20,12,23,0.227051,-0.481934,0.797852,3.5,3.6875,3.8125,-0.541797,-0.223903,-1.1105
4880,-41,-15,-15,-27,-54,-29,-29,-33,0.224121,-0.476074,0.79834,-1.1875,2.8125,4,-0.542211,-0.222635,-1.10987
4880,-48,-20,14,-47,16,-43,-29,-30,0.224121,-0.476074,0.79834,-1.1875,2.8125,4,-0.542211,-0.222635,-1.10987
4900,-21,-22,-35,-25,-31,8,-15,-25,0.224121,-0.476074,0.79834,-1.1875,2.8125,4,-0.542211,-0.222635,-1.10987
4900,1,4,6,-76,-98,-44,-17,1,0.224121,-0.476074,0.79834,-1.1875,2.8125,4,-0.542211,-0.222635,-1.10987
4909,32,-1,-55,-6,-31,-75,-16,31,0.230469,-0.492188,0.831543,0.9375,3.625,6.125,-0.541901,-0.22073,-1.10872
4909,19,5,31,81,61,104,24,-2,0.230469,-0.492188,0.831543,0.9375,3.625,6.125,-0.541901,-0.22073,-1.10872
4915,-11,5,6,-46,-37,55,18,-2,0.230469,-0.492188,0.831543,0.9375,3.625,6.125,-0.541901,-0.22073,-1.10872
4915,-54,-2,31,69,89,-66,-8,-8,0.230469,-0.492188,0.831543,0.9375,3.625,6.125,-0.541901,-0.22073,-1.10872
4922,29,15,27,6,1,57,-9,5,0.198242,-0.496094,0.831543,3.9375,3.375,5.6875,-0.540704,-0.218279,-1.10764
4922,26,-2,-5,-49,-29,-58,-27,2,0.198242,-0.496094,0.831543,3.9375,3.375,5.6875,-0.540704,-0.218279,-1.10764
4938,-10,-11,-2,61,51,-17,1,-5,0.198242,-0.496094,0.831543,3.9375,3.375,5.6875,-0.540704,-0.218279,-1.10764
4938,-2,-6,42,4,-35,11,3,-18,0.198242,-0.496094,0.831543,3.9375,3.375,5.6875,-0.540704,-0.218279,-1.10764
4939,13,-19,-71,-28,-54,-15,21,11,0.217773,-0.463867,0.829102,4.625,3.1875,4.25,-0.538509,-0.216813,-1.10707
4939,37,14,-63,8,9,7,6,5,0.217773,-0.463867,0.829102,4.625,3.1875,4.25,-0.538509,-0.216813,-1.10707
4961,-25,-13,-16,-35,-11,2,-12,-11,0.217773,-0.463867,0.829102,4.625,3.1875,4.25,-0.538509,-0.216813,-1.10707
4961,-27,-15,-31,-86,-47,-31,-19,-11,0.217773,-0.463867,0.829102,4.625,3.1875,4.25,-0.538509,-0.216813,-1.10707
4962,2,-12,29,87,67,21,24,-2,0.199219,-0.465332,0.824707,1.5,2.5,6.1875,-0.537824,-0.214768,-1.10578
4962,-7,-16,-40,-34,7,-45,-42,8,0.199219,-0.465332,0.824707,1.5,2.5,6.1875,-0.537824,-0.214768,-1.10578
4975,-7,-3,3,21,-11,54,23,-10,0.199219,-0.465332,0.824707,1.5,2.5,6.1875,-0.537824,-0.214768,-1.10578
4975,-7,7,38,38,56,32,21,10,0.199219,-0.465332,0.824707,1.5,2.5,6.1875,-0.537824,-0.214768,-1.10578
4983,23,10,3,-79,-58,-59,17,-12,0.227539,-0.488281,0.84082,-0.875,1.3125,3.5625,-0.537973,-0.214132,-1.10484
4983,12,-2,44,22,25,65,13,1,0.227539,-0.488281,0.84082,-0.875,1.3125,3.5625,-0.537973,-0.214132,-1.10484
4998,-24,-9,-39,-26,37,-51,-15,6,0.227539,-0.488281,0.84082,-0.875,1.3125,3.5625,-0.537973,-0.214132,-1.10484
4998,19,13,53,-29,-77,-3,-30,6,0.227539,-0.488281,0.84082,-0.875,1.3125,3.5625,-0.537973,-0.214132,-1.10484
5000,-3,-4,-58,-41,44,12,16,9,0.215332,-0.479004,0.825684,2.3125,2.5,1.9375,-0.536843,-0.213241,-1.10482
5000,15,-10,-25,-12,-128,-65,-21,-15,0.215332,-0.479004,0.825684,2.3125,2.5,1.9375,-0.536843,-0.213241,-1.10482
5021,18,1,-1,33,121,36,-22,-1,0.215332,-0.479004,0.825684,2.3125,2.5,1.9375,-0.536843,-0.213241,-1.10482
5021,-16,25,69,127,92,82,91,21,0.215332,-0.479004,0.825684,2.3125,2.5,1.9375,-0.536843,-0.213241,-1.10482
5023,8,2,-18,-119,-125,-57,-19,4,0.207031,-0.475586,0.811035,-1.3125,0.875,2.1875,-0.537317,-0.212655,-1.10437
5023,17,4,-15,33,14,1,24,-3,0.207031,-0.475586,0.811035,-1.3125,0.875,2.1875,-0.537317,-0.212655,-1.10437
5035,11,-9,-16,85,81,-1,2,9,0.207031,-0.475586,0.811035,-1.3125,0.875,2.1875,-0.537317,-0.212655,-1.10437
5035,19,-7,12,-67,-128,-23,15,-12,0.207031,-0.475586,0.811035,-1.3125,0.875,2.1875,-0.537317,-0.212655,-1.10437
5043,-40,-11,-64,2,22,-1,-45,-1,0.217773,-0.485352,0.820801,1.3125,0.5,3.0625,-0.536884,-0.212251,-1.1035
5043,-9,14,68,65,101,-4,14,20,0.217773,-0.485352,0.820801,1.3125,0.5,3.0625,-0.536884,-0.212251,-1.1035
5059,36,-1,-14,-128,-128,-11,-7,-17,0.217773,-0.485352,0.820801,1.3125,0.5,3.0625,-0.536884,-0.212251,-1.1035
5059,-4,-2,-7,-8,104,-57,-11,0,0.217773,-0.485352,0.820801,1.3125,0.5,3.0625,-0.536884,-0.212251,-1.1035
5059,-4,-1,57,127,55,120,39,-12,0.196777,-0.48584,0.822754,0.375,0.1875,4.4375,-0.537018,-0.211155,-1.10224
5059,-19,1,-20,-111,-66,-29,-19,0,0.196777,-0.48584,0.822754,0.375,0.1875,4.4375,-0.537018,-0.211155,-1.10224
5081,-8,6,20,-41,-2,17,-2,-6,0.196777,-0.48584,0.822754,0.375,0.1875,4.4375,-0.537018,-0.211155,-1.10224
5081,-42,-21,-68,-88,-128,-9,-25,-16,0.196777,-0.48584,0.822754,0.375,0.1875,4.4375,-0.537018,-0.211155,-1.10224
5082,45,0,22,-43,19,-15,-38,-2,0.189941,-0.491699,0.830078,-1.625,2.3125,3.3125,-0.53749,-0.209487,-1.10154
5082,-69,-2,-24,127,121,52,21,9,0.189941,-0.491699,0.830078,-1.625,2.3125,3.3125,-0.53749,-0.209487,-1.10154
5095,2,3,10,-128,-128,-110,-14,9,0.189941,-0.491699,0.830078,-1.625,2.3125,3.3125,-0.53749,-0.209487,-1.10154
5095,17,9,-11,122,120,63,-5,-13,0.189941,-0.491699,0.830078,-1.625,2.3125,3.3125,-0.53749,-0.209487,-1.10154
5103,11,19,9,45,112,16,16,26,0.196289,-0.5,0.828125,-0.75,4.25,2.25,-0.537876,-0.207575,-1.10167
5103,29,-2,54,-27,-66,34,48,6,0.196289,-0.5,0.828125,-0.75,4.25,2.25,-0.537876,-0.207575,-1.10167
5118,-38,-14,-31,-70,-102,-1,-27,-21,0.196289,-0.5,0.828125,-0.75,4.25,2.25,-0.537876,-0.207575,-1.10167
5118,42,5,17,-94,1,-48,-33,4,0.196289,-0.5,0.828125,-0.75,4.25,2.25,-0.537876,-0.207575,-1.10167
5119,-25,2,-7,40,-7,-9,11,2,0.201172,-0.459473,0.830566,2.875,3.125,4.625,-0.536386,-0.205953,-1.10103
5119,1,-4,10,-37,16,-34,-37,-29,0.201172,-0.459473,0.830566,2.875,3.125,4.625,-0.536386,-0.205953,-1.10103
5141,-32,-4,-41,122,124,55,41,11,0.201172,-0.459473,0.830566,2.875,3.125,4.625,-0.536386,-0.205953,-1.10103
5141,15,6,-7,-79,-71,9,8,6,0.201172,-0.459473,0.830566,2.875,3.125,4.625,-0.536386,-0.205953,-1.10103
5143,-6,-8,5,-49,-69,-2,-25,-13,0.212891,-0.483398,0.831055,-1.0625,2.125,5.6875,-0.53667,-0.204529,-1.09967
5143,14,-1,-22,-93,-128,-101,-28,1,0.212891,-0.483398,0.831055,-1.0625,2.125,5.6875,-0.53667,-0.204529,-1.09967
5154,-11,-16,-6,-15,56,58,8,-25,0.212891,-0.483398,0.831055,-1.0625,2.125,5.6875,-0.53667,-0.204529,-1.09967
5154,28,-7,-11,108,102,18,19,15,0.212891,-0.483398,0.831055,-1.0625,2.125,5.6875,-0.53667,-0.204529,-1.09967
5163,-27,10,75,-8,-60,-54,-32,2,0.203125,-0.47998,0.824707,-0.5,3.8125,3.875,-0.536692,-0.20293,-1.09927
5163,-33,-6,-25,-56,-94,-19,18,-13,0.203125,-0.47998,0.824707,-0.5,3.8125,3.875,-0.536692,-0.20293,-1.09927
5178,9,1,33,34,46,-35,1,-4,0.203125,-0.47998,0.824707,-0.5,3.8125,3.875,-0.536692,-0.20293,-1.09927
5178,27,5,24,104,103,57,16,15,0.203125,-0.47998,0.824707,-0.5,3.8125,3.875,-0.536692,-0.20293,-1.09927
5179,-10,1,-6,-30,22,17,-1,2,0.210938,-0.465332,0.82959,3.1875,5.4375,2.1875,-0.534979,-0.201254,-1.09966
5179,-38,-6,9,18,-51,-17,-23,-17,0.210938,-0.465332,0.82959,3.1875,5.4375,2.1875,-0.534979,-0.201254,-1.09966
5199,-35,11,24,23,96,37,4,-5,0.210938,-0.465332,0.82959,3.1875,5.4375,2.1875,-0.534979,-0.201254,-1.09966
5199,21,-13,-45,8,-35,-20,2,3,0.210938,-0.465332,0.82959,3.1875,5.4375,2.1875,-0.534979,-0.201254,-1.09966
5208,-11,1,-14,-75,-86,-49,-2,-8,0.20459,-0.477051,0.823242,1.0625,3,2.6875,-0.534426,-0.2001,-1.09941
5208,-16,-12,32,56,73,47,-13,-4,0.20459,-0.477051,0.823242,1.0625,3,2.6875,-0.534426,-0.2001,-1.09941
5214,36,15,-25,-19,48,-128,3,20,0.20459,-0.477051,0.823242,1.0625,3,2.6875,-0.534426,-0.2001,-1.09941
5214,-32,-10,-45,24,40,66,30,-5,0.20459,-0.477051,0.823242,1.0625,3,2.6875,-0.534426,-0.2001,-1.09941
5223,9,-1,7,19,-42,-47,-20,7,0.194336,-0.499023,0.816406,-0.625,1.5625,4.375,-0.53517,-0.198981,-1.09819
5223,-23,-13,-8,-100,-64,61,-8,-14,0.194336,-0.499023,0.816406,-0.625,1.5625,4.375,-0.53517,-0.198981,-1.09819
5238,5,2,22,78,-4,-51,-3,-14,0.194336,-0.499023,0.816406,-0.625,1.5625,4.375,-0.53517,-0.198981,-1.09819
5238,0,1,-10,69,34,-13,-35,5,0.194336,-0.499023,0.816406,-0.625,1.5625,4.375,-0.53517,-0.198981,-1.09819
5240,62,23,43,27,7,-8,20,4,0.216797,-0.496582,0.820801,1.1875,0.9375,3.25,-0.53513,-0.198683,-1.09734
5240,-78,-12,2,-12,64,73,34,1,0.216797,-0.496582,0.820801,1.1875,0.9375,3.25,-0.53513,-0.198683,-1.09734
5268,52,5,4,3,-7,3,-25,19,0.216797,-0.496582,0.820801,1.1875,0.9375,3.25,-0.53513,-0.198683,-1.09734
5268,-25,-20,-46,-128,-128,-98,-19,-7,0.216797,-0.496582,0.820801,1.1875,0.9375,3.25,-0.53513,-0.198683,-1.09734
5270,-20,-20,-60,25,86,-2,-12,-41,0.194336,-0.454102,0.816406,3.125,1.875,0.6875,-0.533376,-0.198113,-1.09765
5270,85,25,13,109,108,28,23,42,0.194336,-0.454102,0.816406,3.125,1.875,0.6875,-0.533376,-0.198113,-1.09765
5275,2,12,76,-48,-12,30,9,1,0.194336,-0.454102,0.816406,3.125,1.875,0.6875,-0.533376,-0.198113,-1.09765
5275,-39,13,60,77,-11,20,34,3,0.194336,-0.454102,0.816406,3.125,1.875,0.6875,-0.533376,-0.198113,-1.09765
5284,-5,-13,-40,-34,-12,11,-14,9,0.188965,-0.481934,0.806152,-2.6875,-0.25,0.25,-0.534411,-0.198147,-1.09756
5284,29,-12,-43,-55,-18,-21,-7,-6,0.188965,-0.481934,0.806152,-2.6875,-0.25,0.25,-0.534411,-0.198147,-1.09756
5299,-1,11,14,70,4,-1,9,11,0.188965,-0.481934,0.806152,-2.6875,-0.25,0.25,-0.534411,-0.198147,-1.09756
5299,25,-1,-31,-73,-33,-112,-13,-9,0.188965,-0.481934,0.806152,-2.6875,-0.25,0.25,-0.534411,-0.198147,-1.09756
5300,-21,-9,0,-34,1,115,68,8,0.229004,-0.515137,0.806152,-2,-0.5625,2.625,-0.536006,-0.198654,-1.0965
5300,-5,-5,-20,15,-9,-52,8,-2,0.229004,-0.515137,0.806152,-2,-0.5625,2.625,-0.536006,-0.198654,-1.0965
5321,6,-5,11,24,-36,-59,-23,-7,0.229004,-0.515137,0.806152,-2,-0.5625,2.625,-0.536006,-0.198654,-1.0965
5321,-6,-18,-29,-128,-128,-14,5,-6,0.229004,-0.515137,0.806152,-2,-0.5625,2.625,-0.536006,-0.198654,-1.0965
5322,12,1,44,69,107,6,5,-3,0.17041,-0.47998,0.833008,-0.5,2,1.625,-0.535917,-0.197238,-1.09634
5322,1,12,-9,120,127,103,0,4,0.17041,-0.47998,0.833008,-0.5,2,1.625,-0.535917,-0.197238,-1.09634
5334,12,12,83,-15,-31,-5,-12,1,0.17041,-0.47998,0.833008,-0.5,2,1.625,-0.535917,-0.197238,-1.09634
5334,24,-1,-86,-55,-63,-47,-12,9,0.17041,-0.47998,0.833008,-0.5,2,1.625,-0.535917,-0.197238,-1.09634
5344,-10,-8,42,85,34,31,-11,-18,0.166504,-0.469238,0.821777,-1.1875,5.1875,-2.3125,-0.535649,-0.195584,-1.09804
5344,-9,6,32,21,-4,-23,4,2,0.166504,-0.469238,0.821777,-1.1875,5.1875,-2.3125,-0.535649,-0.195584,-1.09804
5359,52,-2,-58,-104,-80,-25,-7,21,0.166504,-0.469238,0.821777,-1.1875,5.1875,-2.3125,-0.535649,-0.195584,-1.09804
5359,-104,-29,-28,107,127,55,-17,-49,0.166504,-0.469238,0.821777,-1.1875,5.1875,-2.3125,-0.535649,-0.195584,-1.09804
5360,18,-13,-32,-81,-69,-24,-15,-4,0.185547,-0.47168,0.836914,-1.1875,0.4375,-0.125,-0.535483,-0.195422,-1.09838
5360,20,13,26,46,11,-55,8,11,0.185547,-0.47168,0.836914,-1.1875,0.4375,-0.125,-0.535483,-0.195422,-1.09838
5381,14,6,16,-24,-99,65,29,9,0.185547,-0.47168,0.836914,-1.1875,0.4375,-0.125,-0.535483,-0.195422,-1.09838
5381,15,13,20,-92,82,-32,48,3,0.185547,-0.47168,0.836914,-1.1875,0.4375,-0.125,-0.535483,-0.195422,-1.09838
5382,-11,-17,-13,81,126,-4,-36,7,0.21875,-0.499512,0.858887,-0.25,-1.3125,3.3125,-0.535569,-0.195645,-1.09713
5382,28,1,15,-8,-37,70,32,-6,0.21875,-0.499512,0.858887,-0.25,-1.3125,3.3125,-0.535569,-0.195645,-1.09713
5395,-26,1,-46,-125,-88,-37,-8,-12,0.21875,-0.499512,0.858887,-0.25,-1.3125,3.3125,-0.535569,-0.195645,-1.09713
5395,28,-7,-5,21,-41,-17,-14,6,0.21875,-0.499512,0.858887,-0.25,-1.3125,3.3125,-0.535569,-0.195645,-1.09713
5411,-21,20,23,94,85,6,9,-14,0.193359,-0.491211,0.84375,-0.4375,-1.0625,1,-0.535575,-0.195801,-1.09663
5411,56,15,13,-39,6,-16,-16,36,0.193359,-0.491211,0.84375,-0.4375,-1.0625,1,-0.535575,-0.195801,-1.09663
5419,-28,-11,-21,48,94,79,34,0,0.193359,-0.491211,0.84375,-0.4375,-1.0625,1,-0.535575,-0.195801,-1.09663
5419,16,-3,55,-28,-52,-20,-31,-22,0.193359,-0.491211,0.84375,-0.4375,-1.0625,1,-0.535575,-0.195801,-1.09663
5420,-25,-15,-46,-63,-6,-20,-3,3,0.18457,-0.449219,0.812988,0.5,-0.1875,-0.875,-0.53542,-0.195829,-1.09663
5420,2,-2,17,21,-35,-33,-13,-15,0.18457,-0.449219,0.812988,0.5,-0.1875,-0.875,-0.53542,-0.195829,-1.09663
5441,0,-12,-39,9,18,13,13,5,0.18457,-0.449219,0.812988,0.5,-0.1875,-0.875,-0.53542,-0.195829,-1.09663
5441,21,12,34,46,61,-14,-26,11,0.18457,-0.449219,0.812988,0.5,-0.1875,-0.875,-0.53542,-0.195829,-1.09663
5442,-11,11,15,-32,-106,37,13,-5,0.183594,-0.458008,0.831055,-0.375,-2.875,1.0625,-0.534927,-0.196343,-1.09603
5442,14,3,-2,-44,69,-67,-2,0,0.183594,-0.458008,0.831055,-0.375,-2.875,1.0625,-0.534927,-0.196343,-1.09603
5464,-19,-7,6,116,41,-17,22,3,0.183594,-0.458008,0.831055,-0.375,-2.875,1.0625,-0.534927,-0.196343,-1.09603
5464,-6,9,5,-76,-6,95,15,6,0.183594,-0.458008,0.831055,-0.375,-2.875,1.0625,-0.534927,-0.196343,-1.09603
5465,46,-2,-4,-28,-85,-18,-9,4,0.192871,-0.477051,0.844727,0.9375,-3.125,2.25,-0.534344,-0.196908,-1.09479
5465,-55,-12,-27,-57,-97,-1,15,-2,0.192871,-0.477051,0.844727,0.9375,-3.125,2.25,-0.534344,-0.196908,-1.09479
5478,-14,-1,21,91,127,19,-18,-2,0.192871,-0.477051,0.844727,0.9375,-3.125,2.25,-0.534344,-0.196908,-1.09479
5478,8,11,59,19,21,-25,-15,9,0.192871,-0.477051,0.844727,0.9375,-3.125,2.25,-0.534344,-0.196908,-1.09479
5480,-44,0,-36,-95,-73,-28,15,-5,0.169434,-0.479492,0.82373,-1.25,-1.1875,-0.1875,-0.534585,-0.196738,-1.09469
5480,-6,-11,-20,-31,28,-32,-36,-18,0.169434,-0.479492,0.82373,-1.25,-1.1875,-0.1875,-0.534585,-0.196738,-1.09469
5501,22,-4,-30,5,23,14,-34,-16,0.169434,-0.479492,0.82373,-1.25,-1.1875,-0.1875,-0.534585,-0.196738,-1.09469
5501,-16,18,-6,78,63,38,33,17,0.169434,-0.479492,0.82373,-1.25,-1.1875,-0.1875,-0.534585,-0.196738,-1.09469
5503,34,18,60,34,-59,-27,13,12,0.163574,-0.461914,0.805664,-1.375,-0.25,-1.5625,-0.534733,-0.196553,-1.0952
5503,-14,-31,-91,-6,-39,-22,-19,-18,0.163574,-0.461914,0.805664,-1.375,-0.25,-1.5625,-0.534733,-0.196553,-1.0952
5531,-11,10,67,-40,-38,-1,-14,-11,0.163574,-0.461914,0.805664,-1.375,-0.25,-1.5625,-0.534733,-0.196553,-1.0952
5531,11,-10,-38,-41,-57,-20,-30,-5,0.163574,-0.461914,0.805664,-1.375,-0.25,-1.5625,-0.534733,-0.196553,-1.0952
5533,1,5,0,31,106,-4,7,4,0.183594,-0.471191,0.832031,0.4375,-2.9375,2.5,-0.534368,-0.19681,-1.09408
5533,21,8,46,94,-7,-42,7,11,0.183594,-0.471191,0.832031,0.4375,-2.9375,2.5,-0.534368,-0.19681,-1.09408
5538,-8,-3,-17,-23,51,41,50,-1,0.183594,-0.471191,0.832031,0.4375,-2.9375,2.5,-0.534368,-0.19681,-1.09408
5538,-8,-10,-43,-86,-104,6,-19,-3,0.183594,-0.471191,0.832031,0.4375,-2.9375,2.5,-0.534368,-0.19681,-1.09408
5540,-24,-3,11,14,71,41,-4,-9,0.168945,-0.489258,0.843262,0.625,-2.0625,3.9375,-0.534168,-0.196151,-1.09237
5540,-11,-7,-10,22,43,13,13,-1,0.168945,-0.489258,0.843262,0.625,-2.0625,3.9375,-0.534168,-0.196151,-1.09237
5561,-9,-2,12,-68,7,23,5,-16,0.168945,-0.489258,0.843262,0.625,-2.0625,3.9375,-0.534168,-0.196151,-1.09237
5561,6,10,34,98,64,24,27,17,0.168945,-0.489258,0.843262,0.625,-2.0625,3.9375,-0.534168,-0.196151,-1.09237
5562,11,16,-3,-9,-6,-38,-26,-3,0.170898,-0.483398,0.841797,-1.75,-0.5,0.5625,-0.534499,-0.195574,-1.09222
5562,-9,-11,-2,-43,-66,-2,-9,-4,0.170898,-0.483398,0.841797,-1.75,-0.5,0.5625,-0.534499,-0.195574,-1.09222
5583,42,21,14,-70,-106,-51,-19,3,0.170898,-0.483398,0.841797,-1.75,-0.5,0.5625,-0.534499,-0.195574,-1.09222
5583,-41,-9,-22,69,75,12,40,-8,0.170898,-0.483398,0.841797,-1.75,-0.5,0.5625,-0.534499,-0.195574,-1.09222
5585,22,-4,41,-58,-78,-45,-50,11,0.171387,-0.454102,0.843262,-0.5,-1.0625,1.25,-0.533753,-0.19529,-1.09194
5585,-14,-3,-38,101,127,64,25,-2,0.171387,-0.454102,0.843262,-0.5,-1.0625,1.25,-0.533753,-0.19529,-1.09194
5598,13,-3,0,-93,-128,-77,5,5,0.171387,-0.454102,0.843262,-0.5,-1.0625,1.25,-0.533753,-0.19529,-1.09194
5598,16,3,-11,-19,-77,9,-53,-27,0.171387,-0.454102,0.843262,-0.5,-1.0625,1.25,-0.533753,-0.19529,-1.09194
5600,14,0,30,91,126,-8,52,13,0.184082,-0.45752,0.849609,-1,-3.125,4.3125,-0.533451,-0.195272,-1.09007
5600,11,14,49,37,78,80,-3,3,0.184082,-0.45752,0.849609,-1,-3.125,4.3125,-0.533451,-0.195272,-1.09007
5628,-4,-13,-35,-78,-96,-73,-27,16,0.184082,-0.45752,0.849609,-1,-3.125,4.3125,-0.533451,-0.195272,-1.09007
5628,13,-7,-13,30,64,58,-25,-10,0.184082,-0.45752,0.849609,-1,-3.125,4.3125,-0.533451,-0.195272,-1.09007
5636,-3,-11,-25,-30,-51,-22,40,6,0.179688,-0.476562,0.851074,0.0625,-3.8125,3.875,-0.533243,-0.195446,-1.08837
5636,41,17,20,-128,-128,17,-15,6,0.179688,-0.476562,0.851074,0.0625,-3.8125,3.875,-0.533243,-0.195446,-1.08837
