0,-3,-1,1,0,1,-1,-1,-1,0.680664,0.0644531,0.220215,29.75,-9.9375,-4.625,0.716901,-1.35899,0.839322
0,1,-1,-6,-2,-2,-1,-1,0,0.680664,0.0644531,0.220215,29.75,-9.9375,-4.625,0.716901,-1.35899,0.839322
0,-1,-1,-1,0,-2,-1,-2,-2,0.680664,0.0644531,0.220215,29.75,-9.9375,-4.625,0.716901,-1.35899,0.839322
0,-1,0,-1,-1,-1,-2,-1,-1,0.680664,0.0644531,0.220215,29.75,-9.9375,-4.625,0.716901,-1.35899,0.839322
1,-1,-1,-2,-2,-1,-1,-2,0,0.680664,0.0644531,0.220215,29.75,-9.9375,-4.625,0.716901,-1.35899,0.839322
1,-1,-1,0,0,0,-1,-1,-1,0.680664,0.0644531,0.220215,29.75,-9.9375,-4.625,0.716901,-1.35899,0.839322
2,-1,-1,0,-2,0,-2,-1,-1,0.680664,0.0644531,0.220215,29.75,-9.9375,-4.625,0.716901,-1.35899,0.839322
2,-1,0,-2,-1,-1,0,1,-1,0.680664,0.0644531,0.220215,29.75,-9.9375,-4.625,0.716901,-1.35899,0.839322
13,1,-1,-1,1,-2,-1,-1,-2,0.77002,0.0390625,0.274902,12.5,-11.0625,-8.5,0.725629,-1.35829,0.833845
13,-2,-2,1,-1,0,-1,-1,0,0.77002,0.0390625,0.274902,12.5,-11.0625,-8.5,0.725629,-1.35829,0.833845
24,0,1,-1,0,-1,-2,-2,-1,0.77002,0.0390625,0.274902,12.5,-11.0625,-8.5,0.725629,-1.35829,0.833845
24,-1,-2,0,-2,-1,-2,-3,-1,0.77002,0.0390625,0.274902,12.5,-11.0625,-8.5,0.725629,-1.35829,0.833845
34,0,-2,-1,-2,-1,-1,0,-1,0.891602,-0.0078125,0.346191,-2.0625,-14.3125,-11.9375,0.727411,-1.3581,0.830525
34,1,0,-2,-1,-2,-1,0,0,0.891602,-0.0078125,0.346191,-2.0625,-14.3125,-11.9375,0.727411,-1.3581,0.830525
39,-1,-1,-1,-1,1,-1,0,0,0.891602,-0.0078125,0.346191,-2.0625,-14.3125,-11.9375,0.727411,-1.3581,0.830525
39,-1,0,-2,-2,-1,1,-2,0,0.891602,-0.0078125,0.346191,-2.0625,-14.3125,-11.9375,0.727411,-1.3581,0.830525
50,-2,2,-1,-2,-2,-1,-1,0,1.08154,-0.0683594,0.396484,-12.3125,-20.25,-17.5,0.728965,-1.35871,0.822646
50,0,0,1,-1,-3,-2,-1,-1,1.08154,-0.0683594,0.396484,-12.3125,-20.25,-17.5,0.728965,-1.35871,0.822646
54,-2,-1,0,-1,1,1,-1,-2,1.08154,-0.0683594,0.396484,-12.3125,-20.25,-17.5,0.728965,-1.35871,0.822646
54,-1,0,-1,-1,0,0,-2,-2,1.08154,-0.0683594,0.396484,-12.3125,-20.25,-17.5,0.728965,-1.35871,0.822646
73,0,0,-2,-1,0,-1,-1,-1,1.19873,-0.0678711,0.371582,-25.75,-23.625,-23.5,0.738405,-1.35999,0.802309
73,-2,-1,-1,0,0,1,-1,-2,1.19873,-0.0678711,0.371582,-25.75,-23.625,-23.5,0.738405,-1.35999,0.802309
77,-1,0,-1,-2,-2,-2,-1,1,1.19873,-0.0678711,0.371582,-25.75,-23.625,-23.5,0.738405,-1.35999,0.802309
77,0,-2,1,0,-1,-1,1,0,1.19873,-0.0678711,0.371582,-25.75,-23.625,-23.5,0.738405,-1.35999,0.802309
91,0,-1,-2,0,1,1,0,-1,1.18457,-0.00830078,0.311523,-41.625,-24.8125,-23.75,0.754316,-1.36128,0.769977
91,0,-1,-1,-1,-2,0,-1,-2,1.18457,-0.00830078,0.311523,-41.625,-24.8125,-23.75,0.754316,-1.36128,0.769977
100,0,-2,-2,0,-2,-2,0,0,1.18457,-0.00830078,0.311523,-41.625,-24.8125,-23.75,0.754316,-1.36128,0.769977
100,-1,-1,-1,0,-2,0,-2,-1,1.18457,-0.00830078,0.311523,-41.625,-24.8125,-23.75,0.754316,-1.36128,0.769977
140,-1,-1,1,0,0,-1,-1,-1,1.04004,0.0737305,0.181152,-65.875,-17,-21.625,0.783673,-1.36192,0.695077
140,-2,-1,-1,1,1,-1,0,0,1.04004,0.0737305,0.181152,-65.875,-17,-21.625,0.783673,-1.36192,0.695077
140,0,-2,1,-1,0,-1,-1,-1,1.04004,0.0737305,0.181152,-65.875,-17,-21.625,0.783673,-1.36192,0.695077
140,2,-1,-1,-1,0,-2,-1,-2,1.04004,0.0737305,0.181152,-65.875,-17,-21.625,0.783673,-1.36192,0.695077
141,1,-1,0,-1,-1,-1,0,0,1.04004,0.0737305,0.181152,-65.875,-17,-21.625,0.783673,-1.36192,0.695077
141,1,-1,0,-1,-1,-1,-1,0,1.04004,0.0737305,0.181152,-65.875,-17,-21.625,0.783673,-1.36192,0.695077
145,-2,-1,-3,-1,0,-1,-2,1,1.04004,0.0737305,0.181152,-65.875,-17,-21.625,0.783673,-1.36192,0.695077
145,-1,-1,-2,-1,0,-2,-1,-1,1.04004,0.0737305,0.181152,-65.875,-17,-21.625,0.783673,-1.36192,0.695077
151,-2,0,-1,-1,0,-1,-1,-2,0.983398,0.0703125,0.154297,-69.9375,-12.0625,-16.375,0.785437,-1.3624,0.668608
151,0,-1,-2,-2,-2,0,-2,-1,0.983398,0.0703125,0.154297,-69.9375,-12.0625,-16.375,0.785437,-1.3624,0.668608
159,0,-1,-2,-1,-1,-2,0,-1,0.983398,0.0703125,0.154297,-69.9375,-12.0625,-16.375,0.785437,-1.3624,0.668608
159,1,0,0,-2,-1,0,-1,-1,0.983398,0.0703125,0.154297,-69.9375,-12.0625,-16.375,0.785437,-1.3624,0.668608
168,0,0,-3,-2,0,0,-1,-1,0.940918,0.0649414,0.139648,-67.4375,-7.25,-11.5,0.776982,-1.36234,0.652585
168,-1,-1,-2,-2,-1,1,-1,-1,0.940918,0.0649414,0.139648,-67.4375,-7.25,-11.5,0.776982,-1.36234,0.652585
181,-1,-2,-1,0,-1,-1,-1,0,0.940918,0.0649414,0.139648,-67.4375,-7.25,-11.5,0.776982,-1.36234,0.652585
181,-2,0,-1,-2,-1,-2,-1,0,0.940918,0.0649414,0.139648,-67.4375,-7.25,-11.5,0.776982,-1.36234,0.652585
191,-1,1,-1,0,-1,0,-1,0,0.921387,0.0571289,0.15625,-56.375,-2.8125,-6.9375,0.761061,-1.36237,0.648213
191,-1,-1,-2,-1,-1,1,-2,0,0.921387,0.0571289,0.15625,-56.375,-2.8125,-6.9375,0.761061,-1.36237,0.648213
196,0,-1,-2,-2,-2,-2,-2,0,0.921387,0.0571289,0.15625,-56.375,-2.8125,-6.9375,0.761061,-1.36237,0.648213
196,-2,-3,1,0,0,-2,-2,-1,0.921387,0.0571289,0.15625,-56.375,-2.8125,-6.9375,0.761061,-1.36237,0.648213
211,-2,-1,-1,-1,0,-3,-4,0,0.915039,0.0541992,0.179199,-42.5,-0.125,-3.3125,0.740629,-1.3622,0.653607
211,-1,-1,-1,0,-1,-1,-1,-1,0.915039,0.0541992,0.179199,-42.5,-0.125,-3.3125,0.740629,-1.3622,0.653607
219,-1,-1,1,0,-4,-2,-1,-3,0.915039,0.0541992,0.179199,-42.5,-0.125,-3.3125,0.740629,-1.3622,0.653607
219,-2,-1,-1,-1,-2,1,0,-1,0.915039,0.0541992,0.179199,-42.5,-0.125,-3.3125,0.740629,-1.3622,0.653607
235,0,-1,-1,-1,-2,0,2,-1,0.915527,0.0473633,0.202637,-31.4375,2.6875,0.1875,0.714736,-1.36188,0.668416
235,-3,-1,-2,-2,1,-1,-1,-2,0.915527,0.0473633,0.202637,-31.4375,2.6875,0.1875,0.714736,-1.36188,0.668416
242,0,2,-2,-2,0,0,-1,-1,0.915527,0.0473633,0.202637,-31.4375,2.6875,0.1875,0.714736,-1.36188,0.668416
242,-1,-1,-3,0,-1,-1,-1,-1,0.915527,0.0473633,0.202637,-31.4375,2.6875,0.1875,0.714736,-1.36188,0.668416
250,1,-1,-1,1,0,-2,0,-3,0.914062,0.0341797,0.226562,-22.625,5.125,4.3125,0.682273,-1.36148,0.693002
250,0,0,0,0,-2,-1,0,-1,0.914062,0.0341797,0.226562,-22.625,5.125,4.3125,0.682273,-1.36148,0.693002
257,-1,-3,0,1,0,0,-1,-2,0.914062,0.0341797,0.226562,-22.625,5.125,4.3125,0.682273,-1.36148,0.693002
257,0,0,0,-2,-1,-1,-2,0,0.914062,0.0341797,0.226562,-22.625,5.125,4.3125,0.682273,-1.36148,0.693002
271,0,-2,-1,-1,-1,-1,0,-1,0.932129,0.0288086,0.230957,-15.4375,6.0625,6.1875,0.649173,-1.36118,0.720858
271,-1,-3,-1,-1,-1,-2,0,0,0.932129,0.0288086,0.230957,-15.4375,6.0625,6.1875,0.649173,-1.36118,0.720858
278,0,-2,0,1,1,-2,-2,-1,0.932129,0.0288086,0.230957,-15.4375,6.0625,6.1875,0.649173,-1.36118,0.720858
278,0,0,0,1,-2,0,-1,0,0.932129,0.0288086,0.230957,-15.4375,6.0625,6.1875,0.649173,-1.36118,0.720858
287,-1,0,-1,0,0,-1,-2,-2,0.95166,0.0356445,0.223633,-11.125,7.3125,6.1875,0.61791,-1.36058,0.748536
287,0,1,-1,0,-1,0,-2,-1,0.95166,0.0356445,0.223633,-11.125,7.3125,6.1875,0.61791,-1.36058,0.748536
301,-2,-1,-2,0,-2,0,0,-2,0.95166,0.0356445,0.223633,-11.125,7.3125,6.1875,0.61791,-1.36058,0.748536
301,0,-2,-2,-3,0,0,-1,-1,0.95166,0.0356445,0.223633,-11.125,7.3125,6.1875,0.61791,-1.36058,0.748536
309,1,-1,-1,-2,-2,0,-2,0,0.972168,0.0483398,0.223633,-9.9375,8.9375,4.8125,0.590111,-1.35874,0.772809
309,1,-1,0,-1,-1,-2,-2,-1,0.972168,0.0483398,0.223633,-9.9375,8.9375,4.8125,0.590111,-1.35874,0.772809
324,-2,2,-2,-3,-1,1,-1,1,0.972168,0.0483398,0.223633,-9.9375,8.9375,4.8125,0.590111,-1.35874,0.772809
324,0,-1,-2,-1,-1,-1,-1,-2,0.972168,0.0483398,0.223633,-9.9375,8.9375,4.8125,0.590111,-1.35874,0.772809
333,-3,0,0,-1,-2,0,0,0,0.975098,0.0488281,0.228516,-11.4375,9.25,3.25,0.563784,-1.35611,0.794708
333,-2,0,0,-1,1,-3,-2,-2,0.975098,0.0488281,0.228516,-11.4375,9.25,3.25,0.563784,-1.35611,0.794708
339,0,-1,-1,-2,0,-1,-2,0,0.975098,0.0488281,0.228516,-11.4375,9.25,3.25,0.563784,-1.35611,0.794708
339,-3,-2,-2,0,-1,-2,-1,-1,0.975098,0.0488281,0.228516,-11.4375,9.25,3.25,0.563784,-1.35611,0.794708
348,-2,-1,0,-3,-1,0,-1,-1,0.981934,0.0556641,0.230469,-15.75,7.875,0.9375,0.542339,-1.35391,0.810951
348,0,0,-2,-1,0,0,1,-1,0.981934,0.0556641,0.230469,-15.75,7.875,0.9375,0.542339,-1.35391,0.810951
361,0,-2,-1,-1,-1,0,1,-1,0.981934,0.0556641,0.230469,-15.75,7.875,0.9375,0.542339,-1.35391,0.810951
361,-2,-2,-1,-1,0,-1,0,-1,0.981934,0.0556641,0.230469,-15.75,7.875,0.9375,0.542339,-1.35391,0.810951
370,-1,-2,-1,0,0,-2,0,-3,1.00635,0.0664062,0.233887,-21,6.4375,-0.375,0.523399,-1.3517,0.822645
370,2,0,2,-1,-1,0,0,-1,1.00635,0.0664062,0.233887,-21,6.4375,-0.375,0.523399,-1.3517,0.822645
376,-2,0,-2,-2,-1,0,-1,-1,1.00635,0.0664062,0.233887,-21,6.4375,-0.375,0.523399,-1.3517,0.822645
376,-2,-1,0,0,-1,-1,-1,0,1.00635,0.0664062,0.233887,-21,6.4375,-0.375,0.523399,-1.3517,0.822645
391,-2,-2,0,-2,-2,0,0,1,1.04004,0.0864258,0.216797,-25.4375,5.1875,-1.125,0.508772,-1.35012,0.828637
391,-1,0,0,1,0,-2,-1,1,1.04004,0.0864258,0.216797,-25.4375,5.1875,-1.125,0.508772,-1.35012,0.828637
408,0,0,-1,-1,-2,-2,-2,-2,1.04004,0.0864258,0.216797,-25.4375,5.1875,-1.125,0.508772,-1.35012,0.828637
408,-1,0,-2,-2,-2,0,-2,-1,1.04004,0.0864258,0.216797,-25.4375,5.1875,-1.125,0.508772,-1.35012,0.828637
409,-1,1,-1,-1,-2,0,-2,1,1.03418,0.120117,0.205566,-34.5625,5.5,-0.9375,0.494784,-1.34846,0.830871
409,0,0,-3,-1,-2,-2,0,-1,1.03418,0.120117,0.205566,-34.5625,5.5,-0.9375,0.494784,-1.34846,0.830871
421,0,-2,-1,0,-2,0,1,0,1.03418,0.120117,0.205566,-34.5625,5.5,-0.9375,0.494784,-1.34846,0.830871
421,-1,0,0,-1,-2,0,0,-2,1.03418,0.120117,0.205566,-34.5625,5.5,-0.9375,0.494784,-1.34846,0.830871
430,0,0,-2,-1,-2,-1,-1,-1,0.973145,0.14502,0.190918,-43.4375,6.125,0.375,0.479487,-1.34587,0.830833
430,0,-3,-1,-3,-2,-2,-1,-2,0.973145,0.14502,0.190918,-43.4375,6.125,0.375,0.479487,-1.34587,0.830833
436,1,-1,2,-2,-1,-1,0,-1,0.973145,0.14502,0.190918,-43.4375,6.125,0.375,0.479487,-1.34587,0.830833
436,-2,0,-1,-2,0,0,-1,-1,0.973145,0.14502,0.190918,-43.4375,6.125,0.375,0.479487,-1.34587,0.830833
451,0,-1,-2,-1,0,1,0,-2,0.91748,0.158691,0.1875,-48.25,6.75,1.375,0.461939,-1.34324,0.83176
451,1,-1,0,-1,-1,0,-2,0,0.91748,0.158691,0.1875,-48.25,6.75,1.375,0.461939,-1.34324,0.83176
458,-2,1,0,0,0,-1,-1,-2,0.91748,0.158691,0.1875,-48.25,6.75,1.375,0.461939,-1.34324,0.83176
458,1,0,-1,-2,-1,-2,-1,-1,0.91748,0.158691,0.1875,-48.25,6.75,1.375,0.461939,-1.34324,0.83176
475,-2,-3,-1,-1,0,-1,-2,-1,0.875,0.123535,0.207031,-42.625,6.75,1.375,0.443511,-1.34078,0.83579
475,-1,-1,0,-2,1,-1,-2,-1,0.875,0.123535,0.207031,-42.625,6.75,1.375,0.443511,-1.34078,0.83579
481,-1,-1,-2,-1,-1,-1,-3,-1,0.875,0.123535,0.207031,-42.625,6.75,1.375,0.443511,-1.34078,0.83579
481,0,-1,0,1,0,0,-1,-1,0.875,0.123535,0.207031,-42.625,6.75,1.375,0.443511,-1.34078,0.83579
490,5,1,-2,1,-1,-2,0,0,0.870605,0.0888672,0.231934,-26.75,6.125,1.75,0.425989,-1.33787,0.843862
490,-4,-3,0,-1,-1,-1,0,0,0.870605,0.0888672,0.231934,-26.75,6.125,1.75,0.425989,-1.33787,0.843862
504,-1,0,1,-1,-1,0,-1,0,0.870605,0.0888672,0.231934,-26.75,6.125,1.75,0.425989,-1.33787,0.843862
504,1,-1,0,-2,0,-2,1,-2,0.870605,0.0888672,0.231934,-26.75,6.125,1.75,0.425989,-1.33787,0.843862
511,1,3,-1,-1,-1,-1,0,1,0.891602,0.104004,0.223145,-9.3125,5.8125,0.25,0.419304,-1.33537,0.847608
511,-8,-7,-3,1,-1,-1,-1,-1,0.891602,0.104004,0.223145,-9.3125,5.8125,0.25,0.419304,-1.33537,0.847608
519,0,-1,-1,1,-1,0,-2,-1,0.891602,0.104004,0.223145,-9.3125,5.8125,0.25,0.419304,-1.33537,0.847608
519,-1,0,-1,-1,-4,0,-1,1,0.891602,0.104004,0.223145,-9.3125,5.8125,0.25,0.419304,-1.33537,0.847608
528,1,0,-2,0,0,-1,-1,-2,0.898926,0.144043,0.210449,-1,6.0625,-2.875,0.423834,-1.33213,0.842715
528,3,3,0,-1,-1,0,0,1,0.898926,0.144043,0.210449,-1,6.0625,-2.875,0.423834,-1.33213,0.842715
541,-4,-1,-1,-1,-1,-2,-1,-2,0.898926,0.144043,0.210449,-1,6.0625,-2.875,0.423834,-1.33213,0.842715
541,-2,-2,0,-1,-2,-1,1,0,0.898926,0.144043,0.210449,-1,6.0625,-2.875,0.423834,-1.33213,0.842715
550,-2,-3,-5,-1,-1,-1,-1,-1,0.899902,0.165527,0.20166,-1,5.9375,-5.5,0.433639,-1.32878,0.83273
550,0,0,-1,-1,-1,1,-2,-2,0.899902,0.165527,0.20166,-1,5.9375,-5.5,0.433639,-1.32878,0.83273
566,-2,-2,-3,-1,0,0,-1,-1,0.899902,0.165527,0.20166,-1,5.9375,-5.5,0.433639,-1.32878,0.83273
566,2,3,5,1,-2,-1,-2,1,0.899902,0.165527,0.20166,-1,5.9375,-5.5,0.433639,-1.32878,0.83273
581,-4,-4,-4,-2,-1,-2,0,-3,0.897949,0.166016,0.196289,-3.1875,5.9375,-7.5,0.445195,-1.32491,0.8197
581,2,0,-3,-1,-1,-2,-1,0,0.897949,0.166016,0.196289,-3.1875,5.9375,-7.5,0.445195,-1.32491,0.8197
581,1,0,-4,-1,-1,-1,0,-1,0.897949,0.166016,0.196289,-3.1875,5.9375,-7.5,0.445195,-1.32491,0.8197
581,-2,0,-3,-2,0,-1,1,0,0.897949,0.166016,0.196289,-3.1875,5.9375,-7.5,0.445195,-1.32491,0.8197
587,0,-2,2,-1,0,-1,-1,-1,0.906738,0.15625,0.193848,-5,5.5,-10.125,0.458281,-1.32156,0.804944
587,-2,-1,0,-1,-1,0,1,-2,0.906738,0.15625,0.193848,-5,5.5,-10.125,0.458281,-1.32156,0.804944
601,2,0,-1,-1,-1,1,0,-2,0.906738,0.15625,0.193848,-5,5.5,-10.125,0.458281,-1.32156,0.804944
601,0,0,-2,0,-1,-1,0,-1,0.906738,0.15625,0.193848,-5,5.5,-10.125,0.458281,-1.32156,0.804944
610,-2,-1,3,-1,-1,-1,1,-1,0.959961,0.184082,0.184082,-8.3125,5.3125,-13.6875,0.476366,-1.31782,0.783902
610,0,0,0,0,-1,-3,-2,-3,0.959961,0.184082,0.184082,-8.3125,5.3125,-13.6875,0.476366,-1.31782,0.783902
632,-2,-1,0,-1,-1,-1,1,0,0.959961,0.184082,0.184082,-8.3125,5.3125,-13.6875,0.476366,-1.31782,0.783902
632,-1,-2,-2,0,-1,-1,-1,-1,0.959961,0.184082,0.184082,-8.3125,5.3125,-13.6875,0.476366,-1.31782,0.783902
634,-1,-2,0,0,-1,-1,-1,-1,1.02881,0.210449,0.168457,-14.125,5.6875,-15.6875,0.496929,-1.31424,0.758434
634,1,0,-2,-2,-1,0,0,-1,1.02881,0.210449,0.168457,-14.125,5.6875,-15.6875,0.496929,-1.31424,0.758434
638,-2,-3,-1,-3,-1,-1,-1,2,1.02881,0.210449,0.168457,-14.125,5.6875,-15.6875,0.496929,-1.31424,0.758434
638,-3,-1,-3,-1,0,1,-3,-3,1.02881,0.210449,0.168457,-14.125,5.6875,-15.6875,0.496929,-1.31424,0.758434
647,0,2,1,-2,0,-1,-1,-1,1.06738,0.232422,0.172852,-23.0625,6.375,-15.1875,0.513187,-1.31005,0.73389
647,-1,0,-4,0,-1,-2,0,0,1.06738,0.232422,0.172852,-23.0625,6.375,-15.1875,0.513187,-1.31005,0.73389
661,4,1,0,-2,1,0,0,-1,1.06738,0.232422,0.172852,-23.0625,6.375,-15.1875,0.513187,-1.31005,0.73389
661,-13,-3,-2,-2,-1,-1,1,-3,1.06738,0.232422,0.172852,-23.0625,6.375,-15.1875,0.513187,-1.31005,0.73389
670,-1,0,0,0,0,0,-1,-1,1.04541,0.241211,0.187012,-29.875,6.4375,-13.625,0.524688,-1.30552,0.711623
670,-2,0,0,0,0,0,0,-1,1.04541,0.241211,0.187012,-29.875,6.4375,-13.625,0.524688,-1.30552,0.711623
685,-1,0,-1,1,0,-1,-1,-2,1.04541,0.241211,0.187012,-29.875,6.4375,-13.625,0.524688,-1.30552,0.711623
685,5,-1,-2,0,0,-1,0,0,1.04541,0.241211,0.187012,-29.875,6.4375,-13.625,0.524688,-1.30552,0.711623
691,-2,-1,2,-2,-1,-1,-2,-1,1.01123,0.222656,0.209473,-29.0625,4.9375,-12.75,0.533698,-1.3016,0.692644
691,-2,-4,-6,0,-1,-1,0,-1,1.01123,0.222656,0.209473,-29.0625,4.9375,-12.75,0.533698,-1.3016,0.692644
699,5,3,-1,0,-1,0,-1,-3,1.01123,0.222656,0.209473,-29.0625,4.9375,-12.75,0.533698,-1.3016,0.692644
699,-10,-8,0,0,-1,-1,-3,0,1.01123,0.222656,0.209473,-29.0625,4.9375,-12.75,0.533698,-1.3016,0.692644
708,1,0,-2,-2,1,-1,-2,-2,0.96875,0.208984,0.225098,-22.8125,3.5625,-12.25,0.542219,-1.29783,0.676063
708,0,0,3,-1,-2,-2,-1,2,0.96875,0.208984,0.225098,-22.8125,3.5625,-12.25,0.542219,-1.29783,0.676063
721,-1,-1,0,0,0,0,-1,1,0.96875,0.208984,0.225098,-22.8125,3.5625,-12.25,0.542219,-1.29783,0.676063
721,1,1,-1,0,1,-2,-2,-1,0.96875,0.208984,0.225098,-22.8125,3.5625,-12.25,0.542219,-1.29783,0.676063
730,0,-1,0,-2,-2,-2,-1,0,0.935547,0.200684,0.256836,-11.3125,1.5,-11.875,0.552969,-1.29383,0.661089
730,-3,0,0,-2,-2,0,0,-3,0.935547,0.200684,0.256836,-11.3125,1.5,-11.875,0.552969,-1.29383,0.661089
752,-4,-3,-3,-2,-1,0,-1,-2,0.935547,0.200684,0.256836,-11.3125,1.5,-11.875,0.552969,-1.29383,0.661089
752,1,0,-1,0,-1,0,-1,-1,0.935547,0.200684,0.256836,-11.3125,1.5,-11.875,0.552969,-1.29383,0.661089
754,-1,-2,-4,0,-3,0,-1,-1,0.90625,0.190918,0.266113,0.0625,-2.8125,-11.25,0.568416,-1.29091,0.645106
754,1,1,-2,0,0,-1,-2,-2,0.90625,0.190918,0.266113,0.0625,-2.8125,-11.25,0.568416,-1.29091,0.645106
758,-3,-2,1,-1,0,-2,-3,-1,0.90625,0.190918,0.266113,0.0625,-2.8125,-11.25,0.568416,-1.29091,0.645106
758,2,0,2,-1,0,0,0,-1,0.90625,0.190918,0.266113,0.0625,-2.8125,-11.25,0.568416,-1.29091,0.645106
774,1,-2,-4,0,0,-2,0,-1,0.891602,0.191895,0.268066,5.625,-7.0625,-11.625,0.587359,-1.28892,0.627295
774,-1,0,-1,-1,-2,-3,-1,0,0.891602,0.191895,0.268066,5.625,-7.0625,-11.625,0.587359,-1.28892,0.627295
781,-1,-1,1,-1,0,0,-1,-1,0.891602,0.191895,0.268066,5.625,-7.0625,-11.625,0.587359,-1.28892,0.627295
781,3,1,-2,-1,-1,-1,-2,0,0.891602,0.191895,0.268066,5.625,-7.0625,-11.625,0.587359,-1.28892,0.627295
790,-3,-3,-1,-1,-1,0,-1,0,0.863281,0.211914,0.249023,7,-10.25,-11.6875,0.611016,-1.28791,0.605508
790,0,2,0,-1,-2,0,-1,-2,0.863281,0.211914,0.249023,7,-10.25,-11.6875,0.611016,-1.28791,0.605508
804,-2,0,-2,-1,-2,-1,-1,0,0.863281,0.211914,0.249023,7,-10.25,-11.6875,0.611016,-1.28791,0.605508
804,3,2,-2,-1,-1,0,0,-1,0.863281,0.211914,0.249023,7,-10.25,-11.6875,0.611016,-1.28791,0.605508
811,-3,-1,1,-1,-2,-1,-1,-1,0.855469,0.230957,0.218262,4,-11.4375,-12.9375,0.638237,-1.28695,0.579063
811,1,-2,-2,-3,-1,-1,0,-1,0.855469,0.230957,0.218262,4,-11.4375,-12.9375,0.638237,-1.28695,0.579063
818,-1,0,-1,0,-1,-1,-2,-2,0.855469,0.230957,0.218262,4,-11.4375,-12.9375,0.638237,-1.28695,0.579063
818,-3,-1,-1,-1,-1,-1,-2,-1,0.855469,0.230957,0.218262,4,-11.4375,-12.9375,0.638237,-1.28695,0.579063
834,-2,0,-1,-1,1,0,-1,0,0.858398,0.221191,0.225098,-1.4375,-11.5625,-13.5625,0.662134,-1.2859,0.553916
834,-1,-1,1,-1,0,-1,-1,-1,0.858398,0.221191,0.225098,-1.4375,-11.5625,-13.5625,0.662134,-1.2859,0.553916
841,0,-3,-2,0,-2,-2,0,-1,0.858398,0.221191,0.225098,-1.4375,-11.5625,-13.5625,0.662134,-1.2859,0.553916
841,0,0,-1,0,-2,0,0,-2,0.858398,0.221191,0.225098,-1.4375,-11.5625,-13.5625,0.662134,-1.2859,0.553916
858,-1,0,-1,0,-1,0,-1,-3,0.864258,0.208008,0.214844,-4.4375,-11.6875,-14.0625,0.684141,-1.28492,0.52955
858,-1,-2,1,-1,0,-1,-2,-2,0.864258,0.208008,0.214844,-4.4375,-11.6875,-14.0625,0.684141,-1.28492,0.52955
864,0,0,2,-2,-2,-3,-2,1,0.864258,0.208008,0.214844,-4.4375,-11.6875,-14.0625,0.684141,-1.28492,0.52955
864,1,-2,-5,-2,-1,-1,-1,-1,0.864258,0.208008,0.214844,-4.4375,-11.6875,-14.0625,0.684141,-1.28492,0.52955
871,1,-1,-1,0,-2,-1,-3,-1,0.876953,0.199707,0.22998,-3.875,-11.25,-14.3125,0.704687,-1.28361,0.506542
871,4,1,1,-1,1,-1,1,0,0.876953,0.199707,0.22998,-3.875,-11.25,-14.3125,0.704687,-1.28361,0.506542
878,-17,-5,-1,-3,-1,-1,-3,-3,0.876953,0.199707,0.22998,-3.875,-11.25,-14.3125,0.704687,-1.28361,0.506542
878,-1,-1,0,0,1,-1,0,-2,0.876953,0.199707,0.22998,-3.875,-11.25,-14.3125,0.704687,-1.28361,0.506542
894,-3,-1,-1,-2,0,-1,0,0,0.899902,0.201172,0.23877,-2,-11.1875,-13.9375,0.724679,-1.28246,0.485096
894,-2,-1,-1,0,-2,-1,-2,-1,0.899902,0.201172,0.23877,-2,-11.1875,-13.9375,0.724679,-1.28246,0.485096
901,4,1,-1,-1,-3,-2,0,-1,0.899902,0.201172,0.23877,-2,-11.1875,-13.9375,0.724679,-1.28246,0.485096
901,0,0,-1,-1,-1,-2,-1,-2,0.899902,0.201172,0.23877,-2,-11.1875,-13.9375,0.724679,-1.28246,0.485096
910,-4,-1,0,-1,-1,0,-1,-1,0.91748,0.208496,0.23877,-2.5625,-9.8125,-13.0625,0.742232,-1.28095,0.466048
910,-3,-1,1,0,-3,0,0,0,0.91748,0.208496,0.23877,-2.5625,-9.8125,-13.0625,0.742232,-1.28095,0.466048
925,2,-2,2,1,0,-1,0,-1,0.91748,0.208496,0.23877,-2.5625,-9.8125,-13.0625,0.742232,-1.28095,0.466048
925,-1,-2,-2,-3,-3,0,0,0,0.91748,0.208496,0.23877,-2.5625,-9.8125,-13.0625,0.742232,-1.28095,0.466048
931,3,0,1,0,-1,-1,0,-1,0.908691,0.200684,0.245117,-2.125,-8.875,-11.25,0.755943,-1.27937,0.450444
931,0,0,0,-1,-3,0,-1,-2,0.908691,0.200684,0.245117,-2.125,-8.875,-11.25,0.755943,-1.27937,0.450444
940,2,-1,-1,-2,-2,-1,1,-1,0.908691,0.200684,0.245117,-2.125,-8.875,-11.25,0.755943,-1.27937,0.450444
940,0,0,-1,-1,0,-2,-3,1,0.908691,0.200684,0.245117,-2.125,-8.875,-11.25,0.755943,-1.27937,0.450444
962,0,-1,-3,-1,0,-1,-2,-1,0.902832,0.20166,0.238281,-0.375,-8.625,-9.9375,0.769483,-1.27841,0.436379
962,-2,0,-1,-1,0,1,-1,-3,0.902832,0.20166,0.238281,-0.375,-8.625,-9.9375,0.769483,-1.27841,0.436379
963,-2,1,-3,0,0,1,-1,0,0.902832,0.20166,0.238281,-0.375,-8.625,-9.9375,0.769483,-1.27841,0.436379
963,0,0,1,-1,-1,0,-1,-2,0.902832,0.20166,0.238281,-0.375,-8.625,-9.9375,0.769483,-1.27841,0.436379
970,-2,0,-1,-1,-1,-2,1,-1,0.900391,0.212891,0.232422,0.875,-7.6875,-8.6875,0.781924,-1.27698,0.423308
970,-2,-3,0,1,2,-2,0,-1,0.900391,0.212891,0.232422,0.875,-7.6875,-8.6875,0.781924,-1.27698,0.423308
984,2,1,-1,-1,-1,0,-2,-1,0.900391,0.212891,0.232422,0.875,-7.6875,-8.6875,0.781924,-1.27698,0.423308
984,-1,-1,-1,0,0,-2,-1,0,0.900391,0.212891,0.232422,0.875,-7.6875,-8.6875,0.781924,-1.27698,0.423308
991,1,2,0,1,-1,-2,-2,0,0.888672,0.214355,0.23291,1.625,-7,-7.3125,0.792957,-1.27595,0.412478
991,-3,-3,-3,-1,-1,0,-1,-2,0.888672,0.214355,0.23291,1.625,-7,-7.3125,0.792957,-1.27595,0.412478
999,-2,-1,-3,-1,0,-1,0,0,0.888672,0.214355,0.23291,1.625,-7,-7.3125,0.792957,-1.27595,0.412478
999,-1,0,1,1,-1,-2,-1,0,0.888672,0.214355,0.23291,1.625,-7,-7.3125,0.792957,-1.27595,0.412478
1014,-1,-2,-2,0,0,1,0,-2,0.885742,0.215332,0.216309,0.125,-5.625,-5.5,0.801044,-1.27487,0.403835
1014,0,0,-1,-1,-2,-1,-3,0,0.885742,0.215332,0.216309,0.125,-5.625,-5.5,0.801044,-1.27487,0.403835
1030,2,-1,-1,0,0,-1,-2,-1,0.885742,0.215332,0.216309,0.125,-5.625,-5.5,0.801044,-1.27487,0.403835
1030,-1,-1,-1,-3,0,1,-1,-1,0.885742,0.215332,0.216309,0.125,-5.625,-5.5,0.801044,-1.27487,0.403835
1031,-1,-1,1,-2,0,-2,0,0,0.866211,0.209961,0.208984,-2.25,-3.6875,-3.3125,0.805682,-1.27415,0.398067
1031,1,1,-1,-1,-1,-1,-1,-1,0.866211,0.209961,0.208984,-2.25,-3.6875,-3.3125,0.805682,-1.27415,0.398067
1044,-1,-1,0,0,0,-1,1,-1,0.866211,0.209961,0.208984,-2.25,-3.6875,-3.3125,0.805682,-1.27415,0.398067
1044,1,0,-2,-1,-2,1,-1,0,0.866211,0.209961,0.208984,-2.25,-3.6875,-3.3125,0.805682,-1.27415,0.398067
1051,-3,-1,-2,-1,-2,0,-1,0,0.850586,0.203125,0.216309,-0.25,-2.4375,-0.875,0.807131,-1.2738,0.39662
1051,-4,0,-1,1,0,-1,-1,0,0.850586,0.203125,0.216309,-0.25,-2.4375,-0.875,0.807131,-1.2738,0.39662
1059,10,1,-4,-1,-2,-1,-1,1,0.850586,0.203125,0.216309,-0.25,-2.4375,-0.875,0.807131,-1.2738,0.39662
1059,-10,-2,-2,0,-1,-2,-1,-1,0.850586,0.203125,0.216309,-0.25,-2.4375,-0.875,0.807131,-1.2738,0.39662
1074,0,0,0,-2,-1,-1,1,-1,0.856445,0.189453,0.217285,3.5625,-1.875,0.8125,0.806949,-1.274,0.398011
1074,-1,-3,-1,-1,-1,-1,-1,-1,0.856445,0.189453,0.217285,3.5625,-1.875,0.8125,0.806949,-1.274,0.398011
1081,1,-3,0,0,0,-1,-1,0,0.856445,0.189453,0.217285,3.5625,-1.875,0.8125,0.806949,-1.274,0.398011
1081,1,-1,-2,-4,0,-2,0,-1,0.856445,0.189453,0.217285,3.5625,-1.875,0.8125,0.806949,-1.274,0.398011
1090,0,-1,-1,0,-1,-1,-1,-1,0.864258,0.193848,0.225586,8.0625,-1,3.1875,0.805567,-1.27435,0.402201
1090,-2,0,0,0,0,-1,0,-2,0.864258,0.193848,0.225586,8.0625,-1,3.1875,0.805567,-1.27435,0.402201
1112,-2,1,0,-1,0,-1,-3,-1,0.864258,0.193848,0.225586,8.0625,-1,3.1875,0.805567,-1.27435,0.402201
1112,-1,-1,0,-3,-1,0,-2,-2,0.864258,0.193848,0.225586,8.0625,-1,3.1875,0.805567,-1.27435,0.402201
1115,0,-1,-2,-1,1,0,-3,-2,0.869141,0.200195,0.23291,11,-0.5625,5.4375,0.803169,-1.27492,0.40861
1115,1,-1,-1,-1,0,-1,-1,-1,0.869141,0.200195,0.23291,11,-0.5625,5.4375,0.803169,-1.27492,0.40861
1135,-2,-2,0,-1,-2,-2,-3,0,0.869141,0.200195,0.23291,11,-0.5625,5.4375,0.803169,-1.27492,0.40861
1135,-2,-2,-2,0,-1,-2,-1,-3,0.869141,0.200195,0.23291,11,-0.5625,5.4375,0.803169,-1.27492,0.40861
1137,0,0,0,-2,-2,-1,-2,-2,0.873047,0.210938,0.230957,11.375,0.375,8.625,0.798527,-1.27598,0.417628
1137,0,0,-1,-3,-2,0,1,-1,0.873047,0.210938,0.230957,11.375,0.375,8.625,0.798527,-1.27598,0.417628
1150,-2,-1,-1,-2,0,0,0,0,0.873047,0.210938,0.230957,11.375,0.375,8.625,0.798527,-1.27598,0.417628
1150,1,1,1,1,-1,0,0,-2,0.873047,0.210938,0.230957,11.375,0.375,8.625,0.798527,-1.27598,0.417628
1151,-2,-2,-2,-2,-1,-2,-2,1,0.872559,0.222656,0.223145,11.5625,1.625,11.875,0.791025,-1.27717,0.429348
1151,0,1,-2,-2,-3,-1,0,0,0.872559,0.222656,0.223145,11.5625,1.625,11.875,0.791025,-1.27717,0.429348
1164,-3,-2,2,-1,-2,-2,-1,0,0.872559,0.222656,0.223145,11.5625,1.625,11.875,0.791025,-1.27717,0.429348
1164,2,0,1,-1,-2,-1,-1,-2,0.872559,0.222656,0.223145,11.5625,1.625,11.875,0.791025,-1.27717,0.429348
1187,6,1,1,0,-2,-2,-1,-1,0.876465,0.214844,0.229004,12.5625,3.1875,14.8125,0.779823,-1.27882,0.445569
1187,-10,-2,-1,-1,1,0,-1,-2,0.876465,0.214844,0.229004,12.5625,3.1875,14.8125,0.779823,-1.27882,0.445569
1187,-3,-3,-2,-1,-1,-1,1,-1,0.876465,0.214844,0.229004,12.5625,3.1875,14.8125,0.779823,-1.27882,0.445569
1187,0,-1,-1,-1,-2,-1,-2,-1,0.876465,0.214844,0.229004,12.5625,3.1875,14.8125,0.779823,-1.27882,0.445569
1194,-1,-2,0,-1,-1,0,-1,1,0.897461,0.210449,0.253418,18.625,4,17.875,0.765886,-1.28041,0.466413
1194,1,0,0,0,-1,0,-1,0,0.897461,0.210449,0.253418,18.625,4,17.875,0.765886,-1.28041,0.466413
1210,-1,-2,-2,0,-1,1,0,-2,0.897461,0.210449,0.253418,18.625,4,17.875,0.765886,-1.28041,0.466413
1210,-1,3,-1,-1,-1,1,-1,0,0.897461,0.210449,0.253418,18.625,4,17.875,0.765886,-1.28041,0.466413
1211,-4,-4,-1,-2,-1,0,-2,-3,0.989258,0.187012,0.291992,27.3125,2.5,18.875,0.752054,-1.28329,0.490414
1211,2,-1,-2,-3,-3,-2,-2,0,0.989258,0.187012,0.291992,27.3125,2.5,18.875,0.752054,-1.28329,0.490414
1224,-2,0,0,-1,0,-2,-1,-1,0.989258,0.187012,0.291992,27.3125,2.5,18.875,0.752054,-1.28329,0.490414
1224,2,0,-2,0,-1,-1,-1,0,0.989258,0.187012,0.291992,27.3125,2.5,18.875,0.752054,-1.28329,0.490414
1249,-2,-1,-2,0,-1,-2,0,-1,1.10352,0.176758,0.302246,30.3125,2.75,18.9375,0.737536,-1.2869,0.516428
1249,-1,-2,-1,0,1,-2,-2,0,1.10352,0.176758,0.302246,30.3125,2.75,18.9375,0.737536,-1.2869,0.516428
1249,2,1,-1,0,-1,-1,-2,-1,1.10352,0.176758,0.302246,30.3125,2.75,18.9375,0.737536,-1.2869,0.516428
1249,-1,-2,0,-1,0,-2,-1,0,1.10352,0.176758,0.302246,30.3125,2.75,18.9375,0.737536,-1.2869,0.516428
1253,-2,-1,-2,-1,1,-1,1,-1,1.146,0.17627,0.263184,28.4375,5.1875,18.125,0.723364,-1.29003,0.541233
1253,3,-2,-1,-1,0,-1,-1,-1,1.146,0.17627,0.263184,28.4375,5.1875,18.125,0.723364,-1.29003,0.541233
1270,0,0,0,0,-3,-1,-1,-1,1.146,0.17627,0.263184,28.4375,5.1875,18.125,0.723364,-1.29003,0.541233
1270,1,-2,0,0,-1,-1,-1,-1,1.146,0.17627,0.263184,28.4375,5.1875,18.125,0.723364,-1.29003,0.541233
1272,-3,-2,0,-2,-1,0,-1,0,1.1001,0.194336,0.206055,19.8125,11.1875,18.3125,0.705878,-1.29206,0.566684
1272,1,0,-1,-1,0,-1,0,-1,1.1001,0.194336,0.206055,19.8125,11.1875,18.3125,0.705878,-1.29206,0.566684
1283,-1,-2,-1,0,-1,-1,0,-3,1.1001,0.194336,0.206055,19.8125,11.1875,18.3125,0.705878,-1.29206,0.566684
1283,-2,-2,-1,-1,-1,-1,-1,-1,1.1001,0.194336,0.206055,19.8125,11.1875,18.3125,0.705878,-1.29206,0.566684
1292,2,-1,-1,0,-2,-2,0,0,0.97168,0.195801,0.180176,14.5,16.6875,17.8125,0.684495,-1.29192,0.594476
1292,-2,-2,2,-1,-1,-2,-1,-2,0.97168,0.195801,0.180176,14.5,16.6875,17.8125,0.684495,-1.29192,0.594476
1307,-2,0,-2,-2,-1,-1,-1,0,0.97168,0.195801,0.180176,14.5,16.6875,17.8125,0.684495,-1.29192,0.594476
1307,-2,-2,-1,-1,0,-2,0,0,0.97168,0.195801,0.180176,14.5,16.6875,17.8125,0.684495,-1.29192,0.594476
1314,1,-1,-1,-1,1,-1,-1,-3,0.87793,0.169922,0.169434,14.25,19.625,16.75,0.661233,-1.2906,0.624179
1314,-5,-3,-1,-1,-2,-1,-1,-2,0.87793,0.169922,0.169434,14.25,19.625,16.75,0.661233,-1.2906,0.624179
1330,2,0,0,-1,-2,-1,1,0,0.87793,0.169922,0.169434,14.25,19.625,16.75,0.661233,-1.2906,0.624179
1330,0,0,-1,-1,0,-1,-1,-2,0.87793,0.169922,0.169434,14.25,19.625,16.75,0.661233,-1.2906,0.624179
1331,-3,0,-1,0,-3,-3,-1,0,0.848633,0.122559,0.179199,15.6875,20.5,15.25,0.636381,-1.28854,0.655401
1331,1,0,-3,-1,-2,-2,0,1,0.848633,0.122559,0.179199,15.6875,20.5,15.25,0.636381,-1.28854,0.655401
1344,-2,-1,-1,0,-1,0,-1,-1,0.848633,0.122559,0.179199,15.6875,20.5,15.25,0.636381,-1.28854,0.655401
1344,-1,-2,-2,-1,-2,-2,0,-1,0.848633,0.122559,0.179199,15.6875,20.5,15.25,0.636381,-1.28854,0.655401
1353,0,-1,-1,1,-1,-1,1,-1,0.869629,0.0888672,0.203125,22.9375,20.875,14.4375,0.612099,-1.28663,0.68888
1353,0,-1,-1,0,-2,0,0,-1,0.869629,0.0888672,0.203125,22.9375,20.875,14.4375,0.612099,-1.28663,0.68888
1368,-4,0,-1,-1,0,2,-2,-3,0.869629,0.0888672,0.203125,22.9375,20.875,14.4375,0.612099,-1.28663,0.68888
1368,2,1,0,0,0,-1,0,0,0.869629,0.0888672,0.203125,22.9375,20.875,14.4375,0.612099,-1.28663,0.68888
1373,0,-1,-1,-1,-1,-1,1,-3,0.920898,0.0795898,0.229492,33.25,20.125,14.0625,0.59083,-1.28453,0.722747
1373,-3,-2,0,0,-1,-2,-2,-1,0.920898,0.0795898,0.229492,33.25,20.125,14.0625,0.59083,-1.28453,0.722747
1398,-2,-3,-1,-1,0,0,-2,-1,0.920898,0.0795898,0.229492,33.25,20.125,14.0625,0.59083,-1.28453,0.722747
1398,-4,-2,0,-2,-1,1,-1,-2,0.920898,0.0795898,0.229492,33.25,20.125,14.0625,0.59083,-1.28453,0.722747
1399,-2,1,-1,-2,0,0,-1,-1,0.972168,0.0966797,0.238281,36.8125,18.5,14.5,0.573029,-1.28256,0.754143
1399,3,0,-2,-1,-2,-2,-1,-1,0.972168,0.0966797,0.238281,36.8125,18.5,14.5,0.573029,-1.28256,0.754143
1412,-1,-1,0,-1,-1,-1,0,-1,0.972168,0.0966797,0.238281,36.8125,18.5,14.5,0.573029,-1.28256,0.754143
1412,0,-2,-1,0,-1,-1,-1,-1,0.972168,0.0966797,0.238281,36.8125,18.5,14.5,0.573029,-1.28256,0.754143
1414,-3,0,-1,0,-1,-1,0,1,0.996582,0.120117,0.21582,31.375,17.5625,15,0.557298,-1.28145,0.782155
1414,0,1,0,-1,-2,0,1,-2,0.996582,0.120117,0.21582,31.375,17.5625,15,0.557298,-1.28145,0.782155
1427,1,-2,-2,-1,-2,-3,-1,0,0.996582,0.120117,0.21582,31.375,17.5625,15,0.557298,-1.28145,0.782155
1427,-2,0,0,0,-4,-3,-1,0,0.996582,0.120117,0.21582,31.375,17.5625,15,0.557298,-1.28145,0.782155
1434,-1,-2,-2,0,0,-1,-1,-1,0.991699,0.118652,0.198242,25,17.4375,17.0625,0.538275,-1.28073,0.810842
1434,4,0,-2,-1,0,0,-1,1,0.991699,0.118652,0.198242,25,17.4375,17.0625,0.538275,-1.28073,0.810842
1449,-11,-2,-1,-1,-1,-1,-1,-3,0.991699,0.118652,0.198242,25,17.4375,17.0625,0.538275,-1.28073,0.810842
1449,-1,0,-1,-1,0,-2,-1,-1,0.991699,0.118652,0.198242,25,17.4375,17.0625,0.538275,-1.28073,0.810842
1451,0,0,0,-2,-2,-1,-3,0,0.957031,0.0864258,0.182617,24.5,17.6875,17.75,0.517081,-1.28057,0.84192
1451,-2,-1,-1,0,1,-1,-2,-1,0.957031,0.0864258,0.182617,24.5,17.6875,17.75,0.517081,-1.28057,0.84192
1464,3,1,1,0,-1,-3,1,0,0.957031,0.0864258,0.182617,24.5,17.6875,17.75,0.517081,-1.28057,0.84192
1464,0,-3,-1,0,0,-1,0,0,0.957031,0.0864258,0.182617,24.5,17.6875,17.75,0.517081,-1.28057,0.84192
1472,0,-4,-1,-1,-1,-2,-1,-3,0.918945,0.0483398,0.187012,29.1875,17.3125,17,0.496248,-1.28024,0.874008
1472,0,-1,0,-2,-2,0,-2,1,0.918945,0.0483398,0.187012,29.1875,17.3125,17,0.496248,-1.28024,0.874008
1487,1,0,-2,-2,-1,-1,-2,-1,0.918945,0.0483398,0.187012,29.1875,17.3125,17,0.496248,-1.28024,0.874008
1487,-1,0,-2,1,-1,0,-1,-3,0.918945,0.0483398,0.187012,29.1875,17.3125,17,0.496248,-1.28024,0.874008
1494,-1,0,-1,-2,0,-1,-1,-2,0.90332,0.0219727,0.174316,37.6875,16.25,14.6875,0.480261,-1.28019,0.90409
1494,-3,0,0,-2,-1,-2,0,-1,0.90332,0.0219727,0.174316,37.6875,16.25,14.6875,0.480261,-1.28019,0.90409
1510,0,-1,-1,-1,0,-1,0,-1,0.90332,0.0219727,0.174316,37.6875,16.25,14.6875,0.480261,-1.28019,0.90409
1510,0,-3,0,-2,0,1,-1,-1,0.90332,0.0219727,0.174316,37.6875,16.25,14.6875,0.480261,-1.28019,0.90409
1511,1,0,0,-1,-1,-1,-1,0,0.928711,0.00878906,0.169434,45.875,15.625,11.5,0.470372,-1.28013,0.930666
1511,-3,-2,-1,1,-1,-2,-2,-1,0.928711,0.00878906,0.169434,45.875,15.625,11.5,0.470372,-1.28013,0.930666
1533,0,-1,-1,0,-1,-1,0,-2,0.928711,0.00878906,0.169434,45.875,15.625,11.5,0.470372,-1.28013,0.930666
1533,-1,0,-1,-1,-1,-2,1,1,0.928711,0.00878906,0.169434,45.875,15.625,11.5,0.470372,-1.28013,0.930666
1534,1,-2,-2,-1,-4,0,0,1,0.936523,0.00537109,0.186523,47.8125,14.75,8.875,0.463193,-1.27955,0.954973
1534,-1,-2,-2,-1,-1,0,0,2,0.936523,0.00537109,0.186523,47.8125,14.75,8.875,0.463193,-1.27955,0.954973
1547,1,-2,0,-1,-2,-1,-3,-5,0.936523,0.00537109,0.186523,47.8125,14.75,8.875,0.463193,-1.27955,0.954973
1547,0,2,0,-1,-1,-1,-2,0,0.936523,0.00537109,0.186523,47.8125,14.75,8.875,0.463193,-1.27955,0.954973
1553,-1,0,-1,-1,0,-1,-2,-3,0.963867,-0.00244141,0.191406,45.8125,13.125,5.75,0.459168,-1.27934,0.97549
1553,-1,-1,-2,1,-2,1,-1,-3,0.963867,-0.00244141,0.191406,45.8125,13.125,5.75,0.459168,-1.27934,0.97549
1570,0,-1,-1,-1,-1,0,-1,1,0.963867,-0.00244141,0.191406,45.8125,13.125,5.75,0.459168,-1.27934,0.97549
1570,0,0,-1,0,-2,-1,0,-2,0.963867,-0.00244141,0.191406,45.8125,13.125,5.75,0.459168,-1.27934,0.97549
1573,0,-1,-2,0,-2,-2,-2,-1,1.0166,-0.00146484,0.190918,39.875,11.1875,1.625,0.458194,-1.27915,0.990306
1573,0,-1,0,0,-1,0,-1,0,1.0166,-0.00146484,0.190918,39.875,11.1875,1.625,0.458194,-1.27915,0.990306
1584,1,0,-1,0,0,-1,0,-1,1.0166,-0.00146484,0.190918,39.875,11.1875,1.625,0.458194,-1.27915,0.990306
1584,0,-1,-3,-1,0,0,-3,-2,1.0166,-0.00146484,0.190918,39.875,11.1875,1.625,0.458194,-1.27915,0.990306
1593,-1,-1,0,1,0,0,0,2,1.02393,0.0268555,0.184082,29.5,10.1875,-1.5,0.460003,-1.2788,0.998825
1593,0,0,-1,-1,-3,0,-2,-1,1.02393,0.0268555,0.184082,29.5,10.1875,-1.5,0.460003,-1.2788,0.998825
1607,-3,-2,-2,-1,-1,-3,0,0,1.02393,0.0268555,0.184082,29.5,10.1875,-1.5,0.460003,-1.2788,0.998825
1607,-2,-1,-1,0,-1,-2,0,-1,1.02393,0.0268555,0.184082,29.5,10.1875,-1.5,0.460003,-1.2788,0.998825
1613,-1,-1,-2,-2,-1,1,-1,2,1,0.0400391,0.185547,17.4375,9.125,-2.5625,0.460114,-1.27826,1.00473
1613,-1,-1,-2,-2,1,-2,0,-2,1,0.0400391,0.185547,17.4375,9.125,-2.5625,0.460114,-1.27826,1.00473
1630,-1,0,0,-1,1,-1,-1,0,1,0.0400391,0.185547,17.4375,9.125,-2.5625,0.460114,-1.27826,1.00473
1630,-1,-3,1,-1,-1,-3,-2,-1,1,0.0400391,0.185547,17.4375,9.125,-2.5625,0.460114,-1.27826,1.00473
1631,-2,-1,-1,0,-1,-2,-2,0,0.986328,0.0380859,0.181152,7.5,8.3125,-3.4375,0.457965,-1.27786,1.00923
1631,-1,0,-1,-1,-1,-1,0,0,0.986328,0.0380859,0.181152,7.5,8.3125,-3.4375,0.457965,-1.27786,1.00923
1643,1,0,-1,-1,0,0,1,0,0.986328,0.0380859,0.181152,7.5,8.3125,-3.4375,0.457965,-1.27786,1.00923
1643,-2,-2,0,0,-1,-1,-2,-1,0.986328,0.0380859,0.181152,7.5,8.3125,-3.4375,0.457965,-1.27786,1.00923
1652,-2,-2,0,-1,-2,-1,-4,-2,0.974609,0.0214844,0.18457,1.0625,8.3125,-3.25,0.452295,-1.27766,1.01529
1652,-1,0,0,-1,-1,-1,-1,-2,0.974609,0.0214844,0.18457,1.0625,8.3125,-3.25,0.452295,-1.27766,1.01529
1667,-3,-1,-2,-1,-2,-1,0,0,0.974609,0.0214844,0.18457,1.0625,8.3125,-3.25,0.452295,-1.27766,1.01529
1667,2,0,-1,-3,-1,-1,1,0,0.974609,0.0214844,0.18457,1.0625,8.3125,-3.25,0.452295,-1.27766,1.01529
1674,-1,0,-1,-1,-2,0,-2,-1,0.957031,0.03125,0.164551,-3.0625,9.6875,-3.3125,0.446244,-1.277,1.01992
1674,1,-1,-2,-1,-1,-1,-1,-1,0.957031,0.03125,0.164551,-3.0625,9.6875,-3.3125,0.446244,-1.277,1.01992
1690,0,-3,-1,-1,0,-1,-1,-1,0.957031,0.03125,0.164551,-3.0625,9.6875,-3.3125,0.446244,-1.277,1.01992
1690,0,-1,0,0,-1,-1,0,-1,0.957031,0.03125,0.164551,-3.0625,9.6875,-3.3125,0.446244,-1.277,1.01992
1691,-2,-1,0,0,0,0,0,-2,0.929199,0.0361328,0.174805,-6.125,10.875,-2.5,0.437853,-1.27571,1.02613
1691,-2,-2,0,0,0,-2,-2,0,0.929199,0.0361328,0.174805,-6.125,10.875,-2.5,0.437853,-1.27571,1.02613
1704,0,-1,0,1,-1,-1,-2,-3,0.929199,0.0361328,0.174805,-6.125,10.875,-2.5,0.437853,-1.27571,1.02613
1704,-2,0,-1,-2,-1,-1,-1,0,0.929199,0.0361328,0.174805,-6.125,10.875,-2.5,0.437853,-1.27571,1.02613
1712,0,-1,-3,0,-1,-2,0,0,0.90918,0.019043,0.185059,-6.4375,10.75,-0.6875,0.426336,-1.27471,1.0356
1712,-1,-3,-1,-1,0,0,0,-2,0.90918,0.019043,0.185059,-6.4375,10.75,-0.6875,0.426336,-1.27471,1.0356
1728,0,-2,-1,0,-1,-2,-1,-1,0.90918,0.019043,0.185059,-6.4375,10.75,-0.6875,0.426336,-1.27471,1.0356
1728,0,0,0,-1,-1,1,-1,-1,0.90918,0.019043,0.185059,-6.4375,10.75,-0.6875,0.426336,-1.27471,1.0356
1734,-1,-2,0,-2,-2,-2,0,-1,0.918457,0.0112305,0.199707,-4.75,9.875,0.5625,0.413437,-1.27355,1.04645
1734,3,1,0,-1,-2,0,-2,0,0.918457,0.0112305,0.199707,-4.75,9.875,0.5625,0.413437,-1.27355,1.04645
1749,0,1,-2,-2,-1,-1,-1,-2,0.918457,0.0112305,0.199707,-4.75,9.875,0.5625,0.413437,-1.27355,1.04645
1749,2,-1,1,-2,-2,-1,0,-1,0.918457,0.0112305,0.199707,-4.75,9.875,0.5625,0.413437,-1.27355,1.04645
1756,-3,0,-2,-2,0,0,1,-2,0.950195,0.0180664,0.208008,-2.875,9.1875,0.8125,0.402129,-1.2732,1.05719
1756,-3,-4,0,-1,0,-1,-3,-3,0.950195,0.0180664,0.208008,-2.875,9.1875,0.8125,0.402129,-1.2732,1.05719
1764,-1,1,-1,0,-1,-1,-2,-1,0.950195,0.0180664,0.208008,-2.875,9.1875,0.8125,0.402129,-1.2732,1.05719
1764,-4,-4,-2,0,-3,-1,-1,0,0.950195,0.0180664,0.208008,-2.875,9.1875,0.8125,0.402129,-1.2732,1.05719
1772,-2,1,-1,-1,-2,-1,-2,-1,0.950195,0.0366211,0.212891,-6.0625,8.6875,1.25,0.390621,-1.27237,1.06656
1772,2,0,-2,-2,-2,-2,-2,-2,0.950195,0.0366211,0.212891,-6.0625,8.6875,1.25,0.390621,-1.27237,1.06656
1787,0,0,1,1,0,-2,-1,1,0.950195,0.0366211,0.212891,-6.0625,8.6875,1.25,0.390621,-1.27237,1.06656
1787,2,0,0,-2,0,-2,-2,-2,0.950195,0.0366211,0.212891,-6.0625,8.6875,1.25,0.390621,-1.27237,1.06656
1795,-4,-2,0,1,-1,0,-2,-3,0.942383,0.0170898,0.228516,-10.1875,6.4375,2.6875,0.375945,-1.27243,1.07779
1795,-1,-2,-1,-1,0,0,3,0,0.942383,0.0170898,0.228516,-10.1875,6.4375,2.6875,0.375945,-1.27243,1.07779
1809,-2,-1,-3,0,-1,-1,-3,-1,0.942383,0.0170898,0.228516,-10.1875,6.4375,2.6875,0.375945,-1.27243,1.07779
1809,-1,-2,-3,-1,-2,-2,-2,-1,0.942383,0.0170898,0.228516,-10.1875,6.4375,2.6875,0.375945,-1.27243,1.07779
1817,0,-2,-1,0,-1,-2,0,-1,0.948242,0.00244141,0.237305,-9.9375,3.875,2.75,0.361242,-1.27305,1.08894
1817,-2,0,-1,-2,-1,-4,-2,0,0.948242,0.00244141,0.237305,-9.9375,3.875,2.75,0.361242,-1.27305,1.08894
1824,-2,-2,0,-1,-1,-1,0,0,0.948242,0.00244141,0.237305,-9.9375,3.875,2.75,0.361242,-1.27305,1.08894
1824,-3,-1,-1,-1,-1,-1,0,0,0.948242,0.00244141,0.237305,-9.9375,3.875,2.75,0.361242,-1.27305,1.08894
1833,2,0,0,-2,-1,-1,-1,0,0.955566,0.00634766,0.245117,-7.4375,1.5,1.375,0.350099,-1.27414,1.09734
1833,-3,-1,-2,1,0,0,1,-1,0.955566,0.00634766,0.245117,-7.4375,1.5,1.375,0.350099,-1.27414,1.09734
1847,-1,-3,-1,-1,0,-1,0,-1,0.955566,0.00634766,0.245117,-7.4375,1.5,1.375,0.350099,-1.27414,1.09734
1847,-3,0,-1,1,0,0,-2,-2,0.955566,0.00634766,0.245117,-7.4375,1.5,1.375,0.350099,-1.27414,1.09734
1861,1,-1,-1,0,0,1,-1,0,0.967285,0.0288086,0.23584,-9.9375,0.125,-0.1875,0.342482,-1.27544,1.10109
1861,1,1,0,-1,-1,0,-1,0,0.967285,0.0288086,0.23584,-9.9375,0.125,-0.1875,0.342482,-1.27544,1.10109
1870,-5,1,-1,0,0,1,0,-3,0.967285,0.0288086,0.23584,-9.9375,0.125,-0.1875,0.342482,-1.27544,1.10109
1870,3,-1,-1,-1,-1,-1,0,-3,0.967285,0.0288086,0.23584,-9.9375,0.125,-0.1875,0.342482,-1.27544,1.10109
1877,-1,-3,-2,0,-1,-1,-2,-3,0.977539,0.0229492,0.248535,-11.6875,-1.9375,-0.5,0.334541,-1.27748,1.10502
1877,-4,-1,-1,1,-1,-1,-1,-1,0.977539,0.0229492,0.248535,-11.6875,-1.9375,-0.5,0.334541,-1.27748,1.10502
1884,-1,0,0,-1,-3,1,0,1,0.977539,0.0229492,0.248535,-11.6875,-1.9375,-0.5,0.334541,-1.27748,1.10502
1884,3,0,0,0,0,-2,-1,0,0.977539,0.0229492,0.248535,-11.6875,-1.9375,-0.5,0.334541,-1.27748,1.10502
1893,-4,1,-2,0,0,-2,0,-1,0.98877,0.0170898,0.25293,-14.4375,-3.0625,-2.375,0.327379,-1.27931,1.10653
1893,3,1,-1,-1,-1,-1,1,0,0.98877,0.0170898,0.25293,-14.4375,-3.0625,-2.375,0.327379,-1.27931,1.10653
1907,0,-1,-1,-1,-1,0,0,-2,0.98877,0.0170898,0.25293,-14.4375,-3.0625,-2.375,0.327379,-1.27931,1.10653
1907,-4,-2,0,-1,0,-1,-1,-1,0.98877,0.0170898,0.25293,-14.4375,-3.0625,-2.375,0.327379,-1.27931,1.10653
1914,0,-2,0,-1,0,-1,0,0,0.992676,0.0322266,0.245605,-17.1875,-3.4375,-3.6875,0.322697,-1.28096,1.10448
1914,-2,-1,-2,-2,-2,-2,-1,-1,0.992676,0.0322266,0.245605,-17.1875,-3.4375,-3.6875,0.322697,-1.28096,1.10448
1929,0,-1,-2,0,-1,0,0,-2,0.992676,0.0322266,0.245605,-17.1875,-3.4375,-3.6875,0.322697,-1.28096,1.10448
1929,-2,0,-2,0,0,1,-1,0,0.992676,0.0322266,0.245605,-17.1875,-3.4375,-3.6875,0.322697,-1.28096,1.10448
1936,-1,-1,-1,-1,0,-1,-2,-1,0.992188,0.0639648,0.22998,-22.625,-2.8125,-4.625,0.320249,-1.28303,1.09925
1936,-1,0,0,-1,-1,-2,-3,0,0.992188,0.0639648,0.22998,-22.625,-2.8125,-4.625,0.320249,-1.28303,1.09925
1953,1,0,-1,0,-1,-1,-2,0,0.992188,0.0639648,0.22998,-22.625,-2.8125,-4.625,0.320249,-1.28303,1.09925
1953,0,0,-1,-1,-3,0,0,-1,0.992188,0.0639648,0.22998,-22.625,-2.8125,-4.625,0.320249,-1.28303,1.09925
1954,0,-3,1,-1,-2,-1,0,0,0.983398,0.0883789,0.226562,-29.1875,-1.375,-5.125,0.317406,-1.28381,1.09139
1954,-2,-3,-1,-2,-2,-1,-1,-1,0.983398,0.0883789,0.226562,-29.1875,-1.375,-5.125,0.317406,-1.28381,1.09139
1967,-2,-3,-1,0,-1,-1,-1,-1,0.983398,0.0883789,0.226562,-29.1875,-1.375,-5.125,0.317406,-1.28381,1.09139
1967,-2,-1,-1,0,0,1,-1,0,0.983398,0.0883789,0.226562,-29.1875,-1.375,-5.125,0.317406,-1.28381,1.09139
1974,6,0,-1,-1,-2,-1,0,0,0.961426,0.0820312,0.224121,-34.1875,0.5,-4.9375,0.311589,-1.28431,1.08524
1974,-7,-3,-3,-2,-1,1,-3,0,0.961426,0.0820312,0.224121,-34.1875,0.5,-4.9375,0.311589,-1.28431,1.08524
1990,-1,-4,-2,-2,-3,-2,0,-1,0.961426,0.0820312,0.224121,-34.1875,0.5,-4.9375,0.311589,-1.28431,1.08524
1990,-3,-2,-2,0,1,-1,-1,-2,0.961426,0.0820312,0.224121,-34.1875,0.5,-4.9375,0.311589,-1.28431,1.08524
1996,0,2,-1,-2,-2,-1,0,0,0.934082,0.0585938,0.230469,-33.25,1.5,-4.6875,0.303383,-1.2839,1.08122
1996,-2,-1,0,0,-1,1,-1,-1,0.934082,0.0585938,0.230469,-33.25,1.5,-4.6875,0.303383,-1.2839,1.08122
2019,1,0,-1,-2,-2,-2,0,-1,0.934082,0.0585938,0.230469,-33.25,1.5,-4.6875,0.303383,-1.2839,1.08122
2019,-2,-1,0,-1,1,0,-1,0,0.934082,0.0585938,0.230469,-33.25,1.5,-4.6875,0.303383,-1.2839,1.08122
2022,0,0,-1,-1,-2,-2,-2,-2,0.922852,0.0375977,0.243652,-28.5,1.875,-5.375,0.296149,-1.28362,1.07847
2022,5,6,1,-1,1,1,-1,-2,0.922852,0.0375977,0.243652,-28.5,1.875,-5.375,0.296149,-1.28362,1.07847
2027,-14,-8,-3,-2,1,-1,-3,-1,0.922852,0.0375977,0.243652,-28.5,1.875,-5.375,0.296149,-1.28362,1.07847
2027,-4,-3,-2,-1,-1,-2,-1,-3,0.922852,0.0375977,0.243652,-28.5,1.875,-5.375,0.296149,-1.28362,1.07847
2033,-5,0,-2,1,-1,0,0,-1,0.920898,0.0439453,0.258789,-23.375,1.9375,-7,0.29203,-1.2822,1.07363
2033,2,-1,-1,0,0,-2,0,0,0.920898,0.0439453,0.258789,-23.375,1.9375,-7,0.29203,-1.2822,1.07363
2049,0,0,0,-1,-2,-2,-2,0,0.920898,0.0439453,0.258789,-23.375,1.9375,-7,0.29203,-1.2822,1.07363
2049,2,1,0,-2,-1,0,-1,0,0.920898,0.0439453,0.258789,-23.375,1.9375,-7,0.29203,-1.2822,1.07363
2056,-6,-5,-2,-2,0,-1,-1,0,0.927734,0.0268555,0.285645,-16.6875,-0.3125,-8.375,0.291144,-1.28172,1.06858
2056,-2,-2,-2,-1,-2,-1,0,-2,0.927734,0.0268555,0.285645,-16.6875,-0.3125,-8.375,0.291144,-1.28172,1.06858
2073,5,3,0,0,1,0,-2,-1,0.927734,0.0268555,0.285645,-16.6875,-0.3125,-8.375,0.291144,-1.28172,1.06858
2073,-1,-1,-1,-1,-3,-1,0,0,0.927734,0.0268555,0.285645,-16.6875,-0.3125,-8.375,0.291144,-1.28172,1.06858
2074,1,1,-2,0,-1,-2,-2,0,0.943359,0.027832,0.3125,-13.9375,-4.0625,-10.25,0.293573,-1.2813,1.06038
2074,-1,-2,0,-1,-1,0,-1,0,0.943359,0.027832,0.3125,-13.9375,-4.0625,-10.25,0.293573,-1.2813,1.06038
2086,0,-1,-1,-2,0,-1,0,-1,0.943359,0.027832,0.3125,-13.9375,-4.0625,-10.25,0.293573,-1.2813,1.06038
2086,0,-1,-1,-2,0,-1,-1,-1,0.943359,0.027832,0.3125,-13.9375,-4.0625,-10.25,0.293573,-1.2813,1.06038
2094,-2,-3,-3,0,1,1,0,-1,0.961426,0.0444336,0.323242,-10.375,-8.5,-11.875,0.30165,-1.28207,1.0479
2094,-2,-1,-2,-2,-1,-1,0,0,0.961426,0.0444336,0.323242,-10.375,-8.5,-11.875,0.30165,-1.28207,1.0479
2109,1,1,0,0,-1,0,2,-2,0.961426,0.0444336,0.323242,-10.375,-8.5,-11.875,0.30165,-1.28207,1.0479
2109,-2,2,-1,0,-1,1,-1,-2,0.961426,0.0444336,0.323242,-10.375,-8.5,-11.875,0.30165,-1.28207,1.0479
2116,0,-1,0,-1,0,0,-1,-2,0.995605,0.0761719,0.313965,-12.4375,-12.625,-14.0625,0.315312,-1.28431,1.02913
2116,-1,-1,0,0,-3,-2,-2,-1,0.995605,0.0761719,0.313965,-12.4375,-12.625,-14.0625,0.315312,-1.28431,1.02913
2140,4,0,-2,-1,-1,-1,0,-1,0.995605,0.0761719,0.313965,-12.4375,-12.625,-14.0625,0.315312,-1.28431,1.02913
2140,-1,-2,-3,0,-1,-1,-1,-1,0.995605,0.0761719,0.313965,-12.4375,-12.625,-14.0625,0.315312,-1.28431,1.02913
2142,-2,-1,-2,-1,0,-1,0,0,1.00781,0.0947266,0.303223,-17.8125,-16,-13.75,0.329556,-1.28706,1.00723
2142,-1,-2,-2,1,-2,-1,-1,0,1.00781,0.0947266,0.303223,-17.8125,-16,-13.75,0.329556,-1.28706,1.00723
2146,-1,0,-1,-1,-3,-3,-2,-2,1.00781,0.0947266,0.303223,-17.8125,-16,-13.75,0.329556,-1.28706,1.00723
2146,1,-1,0,-1,-3,-1,0,-1,1.00781,0.0947266,0.303223,-17.8125,-16,-13.75,0.329556,-1.28706,1.00723
2155,-2,0,-1,0,-2,-2,0,0,1,0.107422,0.272461,-24.4375,-18.0625,-12.1875,0.342994,-1.29172,0.984659
2155,2,1,0,-1,-1,-1,-1,-2,1,0.107422,0.272461,-24.4375,-18.0625,-12.1875,0.342994,-1.29172,0.984659
2170,-1,-1,-2,-1,-2,-2,-2,-1,1,0.107422,0.272461,-24.4375,-18.0625,-12.1875,0.342994,-1.29172,0.984659
2170,-1,-1,-1,-2,-2,-2,0,-1,1,0.107422,0.272461,-24.4375,-18.0625,-12.1875,0.342994,-1.29172,0.984659
2177,1,0,-1,0,-2,-2,-1,-2,0.969727,0.120117,0.250977,-26,-18.0625,-10.5,0.356235,-1.29633,0.961808
2177,-3,1,-1,-1,0,0,-1,-1,0.969727,0.120117,0.250977,-26,-18.0625,-10.5,0.356235,-1.29633,0.961808
2192,2,-1,1,0,-2,1,0,-2,0.969727,0.120117,0.250977,-26,-18.0625,-10.5,0.356235,-1.29633,0.961808
2192,-2,-2,-1,-3,-1,-1,-1,0,0.969727,0.120117,0.250977,-26,-18.0625,-10.5,0.356235,-1.29633,0.961808
2194,0,-1,-1,-3,-1,0,-2,-1,0.93457,0.113281,0.227539,-23.5625,-16.6875,-8.4375,0.367407,-1.30069,0.941688
2194,1,-3,-1,-2,-2,-2,0,-1,0.93457,0.113281,0.227539,-23.5625,-16.6875,-8.4375,0.367407,-1.30069,0.941688
2206,-2,0,-2,-2,0,0,0,-2,0.93457,0.113281,0.227539,-23.5625,-16.6875,-8.4375,0.367407,-1.30069,0.941688
2206,0,-1,-2,0,-3,-1,-1,0,0.93457,0.113281,0.227539,-23.5625,-16.6875,-8.4375,0.367407,-1.30069,0.941688
2215,-1,-2,0,-2,0,-1,-1,-1,0.897949,0.09375,0.227051,-16.25,-14.3125,-6.0625,0.3756,-1.30479,0.927513
2215,-2,-1,-2,2,0,2,0,-2,0.897949,0.09375,0.227051,-16.25,-14.3125,-6.0625,0.3756,-1.30479,0.927513
2230,-1,0,0,0,0,0,-1,0,0.897949,0.09375,0.227051,-16.25,-14.3125,-6.0625,0.3756,-1.30479,0.927513
2230,3,1,-1,-2,-1,-2,-2,-3,0.897949,0.09375,0.227051,-16.25,-14.3125,-6.0625,0.3756,-1.30479,0.927513
2236,-4,-4,2,0,-1,0,-2,-1,0.884277,0.0893555,0.227539,-6.25,-12.375,-5.375,0.385319,-1.30795,0.915167
2236,0,-1,1,-3,0,-1,0,-2,0.884277,0.0893555,0.227539,-6.25,-12.375,-5.375,0.385319,-1.30795,0.915167
2253,-3,-2,-2,-1,-1,-1,-3,-1,0.884277,0.0893555,0.227539,-6.25,-12.375,-5.375,0.385319,-1.30795,0.915167
2253,0,1,-2,-1,-2,0,1,-1,0.884277,0.0893555,0.227539,-6.25,-12.375,-5.375,0.385319,-1.30795,0.915167
2253,1,1,-3,-1,-1,-1,-1,-2,0.892578,0.101074,0.229004,0.4375,-10.1875,-6.5625,0.39873,-1.3098,0.901285
2253,5,-1,1,0,-3,0,-1,0,0.892578,0.101074,0.229004,0.4375,-10.1875,-6.5625,0.39873,-1.3098,0.901285
2265,-5,0,1,-1,-3,0,0,-2,0.892578,0.101074,0.229004,0.4375,-10.1875,-6.5625,0.39873,-1.3098,0.901285
2265,3,-1,-1,-1,0,0,-2,-1,0.892578,0.101074,0.229004,0.4375,-10.1875,-6.5625,0.39873,-1.3098,0.901285
2275,-3,-1,0,-1,-1,-1,0,-1,0.904297,0.106934,0.249512,5.875,-9.6875,-7.5625,0.41505,-1.31108,0.886476
2275,-1,-2,-1,-2,-2,-1,-1,-1,0.904297,0.106934,0.249512,5.875,-9.6875,-7.5625,0.41505,-1.31108,0.886476
2290,1,-1,-1,0,0,-1,1,-1,0.904297,0.106934,0.249512,5.875,-9.6875,-7.5625,0.41505,-1.31108,0.886476
2290,-3,-2,-1,0,0,1,-2,0,0.904297,0.106934,0.249512,5.875,-9.6875,-7.5625,0.41505,-1.31108,0.886476
2297,-2,-2,-3,1,-1,-2,-1,-3,0.933594,0.108887,0.262207,8.3125,-11.0625,-8.75,0.433269,-1.31271,0.870886
2297,2,2,-2,0,-1,-1,-2,0,0.933594,0.108887,0.262207,8.3125,-11.0625,-8.75,0.433269,-1.31271,0.870886
2312,-2,1,-2,-1,-1,-1,-2,-1,0.933594,0.108887,0.262207,8.3125,-11.0625,-8.75,0.433269,-1.31271,0.870886
2312,-4,-4,-1,-1,1,0,0,0,0.933594,0.108887,0.262207,8.3125,-11.0625,-8.75,0.433269,-1.31271,0.870886
2314,1,0,0,-1,-1,1,0,0,0.960449,0.126953,0.26123,6,-13.3125,-10.625,0.455196,-1.31428,0.8502
2314,-2,-1,-2,-2,-1,-1,-3,-1,0.960449,0.126953,0.26123,6,-13.3125,-10.625,0.455196,-1.31428,0.8502
2326,2,1,-3,-1,-2,-1,-2,1,0.960449,0.126953,0.26123,6,-13.3125,-10.625,0.455196,-1.31428,0.8502
2326,-4,1,0,-1,0,-1,0,-2,0.960449,0.126953,0.26123,6,-13.3125,-10.625,0.455196,-1.31428,0.8502
2334,1,-1,-3,-1,-2,-1,-2,-1,0.976074,0.148438,0.249023,-1,-15,-12.75,0.480962,-1.31622,0.823536
2334,-3,-2,-2,-1,-1,-1,-3,-1,0.976074,0.148438,0.249023,-1,-15,-12.75,0.480962,-1.31622,0.823536
2349,0,-2,0,-1,-1,0,0,0,0.976074,0.148438,0.249023,-1,-15,-12.75,0.480962,-1.31622,0.823536
2349,-1,-1,0,-2,-2,-1,0,0,0.976074,0.148438,0.249023,-1,-15,-12.75,0.480962,-1.31622,0.823536
2356,0,1,0,-1,-1,-1,0,-2,0.972168,0.168457,0.238281,-8.1875,-15.125,-13.5,0.506861,-1.31761,0.794011
2356,-9,-2,-1,-1,-1,0,0,-2,0.972168,0.168457,0.238281,-8.1875,-15.125,-13.5,0.506861,-1.31761,0.794011
2372,8,0,0,-1,-1,0,-4,-1,0.972168,0.168457,0.238281,-8.1875,-15.125,-13.5,0.506861,-1.31761,0.794011
2372,0,-1,-1,-2,-1,-1,-1,-1,0.972168,0.168457,0.238281,-8.1875,-15.125,-13.5,0.506861,-1.31761,0.794011
2373,-1,-2,0,-1,0,0,-2,-2,0.95459,0.170898,0.21582,-12.9375,-15.1875,-14.1875,0.532841,-1.3193,0.762888
2373,1,1,-1,-1,0,0,0,0,0.95459,0.170898,0.21582,-12.9375,-15.1875,-14.1875,0.532841,-1.3193,0.762888
2402,0,2,-1,-2,1,-2,-1,-1,0.95459,0.170898,0.21582,-12.9375,-15.1875,-14.1875,0.532841,-1.3193,0.762888
2402,-7,0,-1,-1,-1,-3,0,-2,0.95459,0.170898,0.21582,-12.9375,-15.1875,-14.1875,0.532841,-1.3193,0.762888
2403,-4,-3,-2,-1,-2,-2,-1,-1,0.942383,0.162109,0.211914,-15.125,-14.5,-14.9375,0.557609,-1.32001,0.731648
2403,-2,-2,-5,-1,-2,0,-1,0,0.942383,0.162109,0.211914,-15.125,-14.5,-14.9375,0.557609,-1.32001,0.731648
2409,-5,-2,-1,-2,-2,-1,-1,-1,0.942383,0.162109,0.211914,-15.125,-14.5,-14.9375,0.557609,-1.32001,0.731648
2409,6,1,-2,1,-1,0,0,1,0.942383,0.162109,0.211914,-15.125,-14.5,-14.9375,0.557609,-1.32001,0.731648
2416,-1,1,0,0,-1,-1,0,-1,0.916016,0.161621,0.197754,-11.625,-13.1875,-15.25,0.583436,-1.32055,0.701008
2416,-2,-1,-1,-2,-2,-3,2,-1,0.916016,0.161621,0.197754,-11.625,-13.1875,-15.25,0.583436,-1.32055,0.701008
2432,1,-2,1,-3,-2,-1,0,-3,0.916016,0.161621,0.197754,-11.625,-13.1875,-15.25,0.583436,-1.32055,0.701008
2432,-1,-2,-1,-2,-1,-1,-2,-1,0.916016,0.161621,0.197754,-11.625,-13.1875,-15.25,0.583436,-1.32055,0.701008
2434,3,0,-1,-2,-1,0,-1,-1,0.891602,0.168457,0.199707,-5.4375,-11.25,-14.6875,0.609289,-1.32037,0.672802
2434,0,-2,-2,-1,-1,0,-1,-1,0.891602,0.168457,0.199707,-5.4375,-11.25,-14.6875,0.609289,-1.32037,0.672802
2447,-3,-2,-3,1,-2,0,-1,1,0.891602,0.168457,0.199707,-5.4375,-11.25,-14.6875,0.609289,-1.32037,0.672802
2447,-2,-4,-1,-1,-3,-1,-1,-1,0.891602,0.168457,0.199707,-5.4375,-11.25,-14.6875,0.609289,-1.32037,0.672802
2472,-3,-2,-1,-2,-1,0,-2,1,0.900391,0.183105,0.200684,-0.25,-10.3125,-14,0.635056,-1.31946,0.646066
2472,2,-1,0,-1,-1,-1,0,-1,0.900391,0.183105,0.200684,-0.25,-10.3125,-14,0.635056,-1.31946,0.646066
2472,-5,-1,0,-1,-1,-1,0,-2,0.900391,0.183105,0.200684,-0.25,-10.3125,-14,0.635056,-1.31946,0.646066
2472,5,0,-2,-1,-1,-1,-2,-2,0.900391,0.183105,0.200684,-0.25,-10.3125,-14,0.635056,-1.31946,0.646066
2476,2,0,-1,-2,0,-2,-1,0,0.933105,0.206543,0.194824,0.25,-9.4375,-13.25,0.66184,-1.31811,0.618693
2476,1,-1,-2,0,-1,-2,-1,-1,0.933105,0.206543,0.194824,0.25,-9.4375,-13.25,0.66184,-1.31811,0.618693
2492,-1,-1,-2,-1,-1,-1,1,1,0.933105,0.206543,0.194824,0.25,-9.4375,-13.25,0.66184,-1.31811,0.618693
2492,0,0,-1,-2,-2,1,0,0,0.933105,0.206543,0.194824,0.25,-9.4375,-13.25,0.66184,-1.31811,0.618693
2494,-3,-2,0,-1,-2,1,0,0,0.939941,0.229004,0.194824,-0.5,-7.9375,-11.5,0.685666,-1.31675,0.5944
2494,13,6,0,-1,0,1,0,-1,0.939941,0.229004,0.194824,-0.5,-7.9375,-11.5,0.685666,-1.31675,0.5944
2506,-19,-12,-2,1,0,-1,-2,-2,0.939941,0.229004,0.194824,-0.5,-7.9375,-11.5,0.685666,-1.31675,0.5944
2506,4,-1,-5,-2,-2,-3,0,-1,0.939941,0.229004,0.194824,-0.5,-7.9375,-11.5,0.685666,-1.31675,0.5944
2522,1,-1,-3,-1,-1,-2,-1,-2,0.930664,0.242676,0.197266,-4.1875,-6.875,-9.3125,0.704905,-1.31521,0.573608
2522,-2,-2,0,-1,-1,0,-2,-1,0.930664,0.242676,0.197266,-4.1875,-6.875,-9.3125,0.704905,-1.31521,0.573608
2529,5,4,-2,-3,0,0,-1,0,0.930664,0.242676,0.197266,-4.1875,-6.875,-9.3125,0.704905,-1.31521,0.573608
2529,-3,-2,1,1,0,0,-2,0,0.930664,0.242676,0.197266,-4.1875,-6.875,-9.3125,0.704905,-1.31521,0.573608
2536,-3,-2,-1,0,0,-4,-1,-1,0.923828,0.239746,0.195312,-6.4375,-6.3125,-7.375,0.720818,-1.31372,0.555203
2536,-3,-2,-1,-1,-1,-1,-2,-2,0.923828,0.239746,0.195312,-6.4375,-6.3125,-7.375,0.720818,-1.31372,0.555203
2553,2,1,1,0,-1,-1,-2,-2,0.923828,0.239746,0.195312,-6.4375,-6.3125,-7.375,0.720818,-1.31372,0.555203
2553,-3,0,1,-1,-1,-1,0,0,0.923828,0.239746,0.195312,-6.4375,-6.3125,-7.375,0.720818,-1.31372,0.555203
2554,5,0,-3,-1,0,1,-1,-1,0.924316,0.235352,0.193848,-6.3125,-5.5625,-6.0625,0.73389,-1.31232,0.539557
2554,-4,-2,0,-1,-1,-1,-2,-1,0.924316,0.235352,0.193848,-6.3125,-5.5625,-6.0625,0.73389,-1.31232,0.539557
2567,1,0,-2,-2,-1,1,-1,-2,0.924316,0.235352,0.193848,-6.3125,-5.5625,-6.0625,0.73389,-1.31232,0.539557
2567,1,0,-2,-1,-1,-1,-1,1,0.924316,0.235352,0.193848,-6.3125,-5.5625,-6.0625,0.73389,-1.31232,0.539557
2575,-5,0,-1,1,-2,0,-1,-2,0.924805,0.229492,0.205566,0.1875,-5.8125,-4.0625,0.745426,-1.31119,0.527694
2575,-8,4,0,-1,1,-1,0,-2,0.924805,0.229492,0.205566,0.1875,-5.8125,-4.0625,0.745426,-1.31119,0.527694
2593,1,-11,-2,-2,-1,-2,-2,0,0.924805,0.229492,0.205566,0.1875,-5.8125,-4.0625,0.745426,-1.31119,0.527694
2593,-2,1,0,-2,1,-1,-1,0,0.924805,0.229492,0.205566,0.1875,-5.8125,-4.0625,0.745426,-1.31119,0.527694
2596,1,-2,-3,-1,-2,-1,-1,-1,0.922363,0.23877,0.202148,5.75,-6.1875,-2.1875,0.758637,-1.31085,0.51648
2596,1,-3,1,0,1,-3,-1,-1,0.922363,0.23877,0.202148,5.75,-6.1875,-2.1875,0.758637,-1.31085,0.51648
2613,2,6,-1,0,0,-2,0,-2,0.922363,0.23877,0.202148,5.75,-6.1875,-2.1875,0.758637,-1.31085,0.51648
2613,1,1,-4,-2,-1,0,1,-1,0.922363,0.23877,0.202148,5.75,-6.1875,-2.1875,0.758637,-1.31085,0.51648
2614,-4,-2,-1,-1,-1,-2,-1,0,0.902344,0.247559,0.20752,11.5,-6.5,0.1875,0.771234,-1.31064,0.507867
2614,-1,0,-2,-1,-2,-2,0,0,0.902344,0.247559,0.20752,11.5,-6.5,0.1875,0.771234,-1.31064,0.507867
2627,-1,-1,-2,-1,-2,1,-1,0,0.902344,0.247559,0.20752,11.5,-6.5,0.1875,0.771234,-1.31064,0.507867
2627,0,-2,2,-1,-2,-1,-2,0,0.902344,0.247559,0.20752,11.5,-6.5,0.1875,0.771234,-1.31064,0.507867
2635,1,2,0,-1,1,-1,-1,-1,0.873535,0.258301,0.203613,15.1875,-7.25,2.125,0.785204,-1.31056,0.499089
2635,1,-2,0,-1,-2,-1,0,0,0.873535,0.258301,0.203613,15.1875,-7.25,2.125,0.785204,-1.31056,0.499089
2650,0,1,0,-1,0,0,0,0,0.873535,0.258301,0.203613,15.1875,-7.25,2.125,0.785204,-1.31056,0.499089
2650,-4,-3,-2,-1,-1,-1,0,-2,0.873535,0.258301,0.203613,15.1875,-7.25,2.125,0.785204,-1.31056,0.499089
2656,0,0,0,-1,-2,-2,0,-1,0.838379,0.264648,0.208984,16.5625,-7.375,3.75,0.797667,-1.31077,0.49254
2656,-4,-3,-1,-1,0,0,0,-1,0.838379,0.264648,0.208984,16.5625,-7.375,3.75,0.797667,-1.31077,0.49254
2672,12,0,-1,-1,-2,-2,-1,-1,0.838379,0.264648,0.208984,16.5625,-7.375,3.75,0.797667,-1.31077,0.49254
2672,1,0,-2,1,1,-1,-1,0,0.838379,0.264648,0.208984,16.5625,-7.375,3.75,0.797667,-1.31077,0.49254
2679,-2,-1,-3,-1,-2,0,-1,-1,0.812012,0.253418,0.19873,18.625,-7.6875,5.25,0.809416,-1.31146,0.487255
2679,0,-1,-1,-1,-2,-2,0,-2,0.812012,0.253418,0.19873,18.625,-7.6875,5.25,0.809416,-1.31146,0.487255
2687,0,1,0,0,0,0,0,-2,0.812012,0.253418,0.19873,18.625,-7.6875,5.25,0.809416,-1.31146,0.487255
2687,-2,-1,0,-2,-2,-2,-1,0,0.812012,0.253418,0.19873,18.625,-7.6875,5.25,0.809416,-1.31146,0.487255
2695,-5,-4,-2,0,1,1,0,0,0.805664,0.259277,0.199219,20.4375,-7.25,5.625,0.821315,-1.31176,0.482311
2695,6,-1,-1,0,-1,-3,-2,-1,0.805664,0.259277,0.199219,20.4375,-7.25,5.625,0.821315,-1.31176,0.482311
2710,-4,0,-1,-2,-2,-2,-2,-1,0.805664,0.259277,0.199219,20.4375,-7.25,5.625,0.821315,-1.31176,0.482311
2710,-3,-5,-1,-1,-3,-1,0,-1,0.805664,0.259277,0.199219,20.4375,-7.25,5.625,0.821315,-1.31176,0.482311
2716,0,0,1,-2,-1,-1,0,0,0.830566,0.263184,0.208984,21,-6.9375,5.3125,0.832773,-1.31218,0.478434
2716,-5,-1,0,-2,0,0,-1,1,0.830566,0.263184,0.208984,21,-6.9375,5.3125,0.832773,-1.31218,0.478434
2732,-3,0,-1,-2,-1,-1,1,-1,0.830566,0.263184,0.208984,21,-6.9375,5.3125,0.832773,-1.31218,0.478434
2732,2,2,0,-2,0,-2,-2,-1,0.830566,0.263184,0.208984,21,-6.9375,5.3125,0.832773,-1.31218,0.478434
2739,-1,-1,-1,-2,0,0,-2,-1,0.884277,0.244629,0.223633,20.9375,-6.6875,4.875,0.842147,-1.31265,0.476304
2739,-2,0,-1,-1,-1,1,-3,-2,0.884277,0.244629,0.223633,20.9375,-6.6875,4.875,0.842147,-1.31265,0.476304
2746,0,1,-1,0,-1,-1,0,-1,0.884277,0.244629,0.223633,20.9375,-6.6875,4.875,0.842147,-1.31265,0.476304
2746,4,0,-1,1,-1,0,-1,0,0.884277,0.244629,0.223633,20.9375,-6.6875,4.875,0.842147,-1.31265,0.476304
2755,-1,1,0,-1,0,0,-1,0,0.943848,0.242676,0.219238,18.875,-5.125,4,0.849444,-1.31309,0.475483
2755,-2,-3,-2,0,-2,0,-1,0,0.943848,0.242676,0.219238,18.875,-5.125,4,0.849444,-1.31309,0.475483
2769,-4,0,-2,0,0,0,0,-1,0.943848,0.242676,0.219238,18.875,-5.125,4,0.849444,-1.31309,0.475483
2769,-1,-2,-1,-1,0,1,0,0,0.943848,0.242676,0.219238,18.875,-5.125,4,0.849444,-1.31309,0.475483
2776,-1,-2,0,-2,0,-2,0,0,0.986328,0.245117,0.208496,16.9375,-2.875,3.5625,0.855601,-1.31315,0.475344
2776,-4,-2,5,-1,-2,-2,-1,-2,0.986328,0.245117,0.208496,16.9375,-2.875,3.5625,0.855601,-1.31315,0.475344
2800,-4,-4,-13,-3,-2,0,-3,0,0.986328,0.245117,0.208496,16.9375,-2.875,3.5625,0.855601,-1.31315,0.475344
2800,-2,-3,-5,-1,-2,-2,-1,-1,0.986328,0.245117,0.208496,16.9375,-2.875,3.5625,0.855601,-1.31315,0.475344
2802,1,0,0,-1,-1,-1,-2,-2,1.04004,0.242188,0.209961,14.1875,-1.5625,2.625,0.859487,-1.31328,0.476535
2802,-1,0,3,-2,-1,-2,1,-1,1.04004,0.242188,0.209961,14.1875,-1.5625,2.625,0.859487,-1.31328,0.476535
2806,2,0,0,-1,0,0,-1,-1,1.04004,0.242188,0.209961,14.1875,-1.5625,2.625,0.859487,-1.31328,0.476535
2806,-6,-3,-1,-1,-1,0,-3,-3,1.04004,0.242188,0.209961,14.1875,-1.5625,2.625,0.859487,-1.31328,0.476535
2816,6,1,0,-1,-2,-2,-1,-1,1.03516,0.219727,0.193359,10.5,0.5,2.5625,0.859834,-1.31301,0.479618
2816,1,1,0,-1,-1,1,-2,0,1.03516,0.219727,0.193359,10.5,0.5,2.5625,0.859834,-1.31301,0.479618
2830,-1,-1,1,-1,-2,0,0,0,1.03516,0.219727,0.193359,10.5,0.5,2.5625,0.859834,-1.31301,0.479618
2830,-1,0,-1,-1,0,0,0,-2,1.03516,0.219727,0.193359,10.5,0.5,2.5625,0.859834,-1.31301,0.479618
2836,-3,0,-1,-1,-3,0,-3,-2,0.940918,0.209473,0.17041,7.75,3.4375,3.375,0.857499,-1.31291,0.485317
2836,3,-2,-4,0,-3,-1,-1,0,0.940918,0.209473,0.17041,7.75,3.4375,3.375,0.857499,-1.31291,0.485317
2852,-3,-3,1,0,-2,-1,0,-1,0.940918,0.209473,0.17041,7.75,3.4375,3.375,0.857499,-1.31291,0.485317
2852,-5,-2,0,-1,-1,0,-2,-1,0.940918,0.209473,0.17041,7.75,3.4375,3.375,0.857499,-1.31291,0.485317
2858,1,-2,1,-1,0,-1,-1,1,0.846191,0.197754,0.18457,9.0625,6.1875,3,0.85077,-1.31106,0.495228
2858,0,-1,-6,0,0,-1,-3,-2,0.846191,0.197754,0.18457,9.0625,6.1875,3,0.85077,-1.31106,0.495228
2875,-2,-1,-1,0,0,-1,-3,0,0.846191,0.197754,0.18457,9.0625,6.1875,3,0.85077,-1.31106,0.495228
2875,-1,2,2,1,0,-1,-1,-1,0.846191,0.197754,0.18457,9.0625,6.1875,3,0.85077,-1.31106,0.495228
2876,-4,0,-7,-2,-2,1,-1,-2,0.785645,0.168945,0.191406,12.5625,8.5625,2.25,0.841664,-1.30856,0.508926
2876,0,0,-1,-2,0,1,0,0,0.785645,0.168945,0.191406,12.5625,8.5625,2.25,0.841664,-1.30856,0.508926
2889,-1,1,2,-1,-1,0,-1,-1,0.785645,0.168945,0.191406,12.5625,8.5625,2.25,0.841664,-1.30856,0.508926
2889,-1,-2,-1,-1,-1,0,0,-2,0.785645,0.168945,0.191406,12.5625,8.5625,2.25,0.841664,-1.30856,0.508926
2897,3,2,0,0,0,1,-2,0,0.743164,0.145508,0.215332,18.3125,9.6875,1.375,0.831799,-1.30549,0.525361
2897,-3,-1,-1,-1,-2,-1,-1,-1,0.743164,0.145508,0.215332,18.3125,9.6875,1.375,0.831799,-1.30549,0.525361
2912,1,-1,0,-1,0,-1,-1,0,0.743164,0.145508,0.215332,18.3125,9.6875,1.375,0.831799,-1.30549,0.525361
2912,0,0,-1,0,-1,-2,-1,-1,0.743164,0.145508,0.215332,18.3125,9.6875,1.375,0.831799,-1.30549,0.525361
2926,-2,-1,-3,-1,-1,-2,-1,1,0.737793,0.134766,0.219238,24.5,9.1875,1.375,0.824328,-1.30293,0.541974
2926,-2,0,-2,1,-1,-2,-1,-3,0.737793,0.134766,0.219238,24.5,9.1875,1.375,0.824328,-1.30293,0.541974
2935,-2,-1,3,1,-3,0,-2,-1,0.737793,0.134766,0.219238,24.5,9.1875,1.375,0.824328,-1.30293,0.541974
2935,-3,-3,-6,-3,-1,-2,-1,-1,0.737793,0.134766,0.219238,24.5,9.1875,1.375,0.824328,-1.30293,0.541974
2937,-2,-4,-2,1,0,-1,0,-1,0.730469,0.136719,0.231445,30.3125,8.3125,2.75,0.817883,-1.30017,0.558951
2937,-2,-2,-3,-2,1,-3,-2,0,0.730469,0.136719,0.231445,30.3125,8.3125,2.75,0.817883,-1.30017,0.558951
2949,1,0,0,-2,-1,0,-2,-1,0.730469,0.136719,0.231445,30.3125,8.3125,2.75,0.817883,-1.30017,0.558951
2949,0,-1,0,-1,-2,-1,1,0,0.730469,0.136719,0.231445,30.3125,8.3125,2.75,0.817883,-1.30017,0.558951
2956,-2,-2,-2,-2,-2,0,-1,-2,0.757812,0.146484,0.244141,34.5625,5.5,3.3125,0.814855,-1.29842,0.574313
2956,0,2,-2,-3,-1,-1,-1,0,0.757812,0.146484,0.244141,34.5625,5.5,3.3125,0.814855,-1.29842,0.574313
2972,3,3,-2,1,0,-3,-1,0,0.757812,0.146484,0.244141,34.5625,5.5,3.3125,0.814855,-1.29842,0.574313
2972,-1,-1,1,0,-1,0,-2,-2,0.757812,0.146484,0.244141,34.5625,5.5,3.3125,0.814855,-1.29842,0.574313
2979,0,-1,3,0,-2,0,-1,-1,0.774902,0.143066,0.229004,27.75,4.125,3.375,0.811632,-1.29694,0.586852
2979,-1,-2,2,-1,-1,0,-2,-1,0.774902,0.143066,0.229004,27.75,4.125,3.375,0.811632,-1.29694,0.586852
2995,1,-1,1,-1,0,-3,-1,-4,0.739746,0.155762,0.188965,16.3125,4,6.0625,0.805527,-1.29657,0.598702
2995,-1,-1,-1,1,-2,-1,-1,-1,0.739746,0.155762,0.188965,16.3125,4,6.0625,0.805527,-1.29657,0.598702
2995,0,-1,0,-1,0,-1,1,-1,0.739746,0.155762,0.188965,16.3125,4,6.0625,0.805527,-1.29657,0.598702
2995,-5,-4,-4,-1,-2,-1,-1,-1,0.739746,0.155762,0.188965,16.3125,4,6.0625,0.805527,-1.29657,0.598702
3017,-1,5,0,-2,0,-2,1,0,0.670898,0.144531,0.150879,5.875,3.625,8.375,0.796717,-1.29753,0.610309
3017,-7,3,0,-1,1,-1,-1,-2,0.670898,0.144531,0.150879,5.875,3.625,8.375,0.796717,-1.29753,0.610309
3017,6,7,1,0,-1,-2,0,0,0.670898,0.144531,0.150879,5.875,3.625,8.375,0.796717,-1.29753,0.610309
3017,-3,-9,-4,1,0,0,-1,0,0.670898,0.144531,0.150879,5.875,3.625,8.375,0.796717,-1.29753,0.610309
3032,0,-5,-1,-2,-1,0,0,1,0.583984,0.119141,0.155273,2.1875,4,11.1875,0.781754,-1.29859,0.626515
3032,5,4,2,-2,-1,-2,0,1,0.583984,0.119141,0.155273,2.1875,4,11.1875,0.781754,-1.29859,0.626515
3039,-2,-2,-5,-1,0,-1,-1,-1,0.583984,0.119141,0.155273,2.1875,4,11.1875,0.781754,-1.29859,0.626515
3039,-4,0,0,-1,-2,-2,-1,-2,0.583984,0.119141,0.155273,2.1875,4,11.1875,0.781754,-1.29859,0.626515
3054,0,3,0,-1,1,1,19,4,0.551758,0.0605469,0.163574,12.5625,0.75,13,0.767421,-1.30137,0.645355
3054,3,12,0,-1,-1,-3,-24,-5,0.551758,0.0605469,0.163574,12.5625,0.75,13,0.767421,-1.30137,0.645355
3054,5,-13,0,-1,-1,-1,0,-1,0.551758,0.0605469,0.163574,12.5625,0.75,13,0.767421,-1.30137,0.645355
3054,1,11,-3,-2,-2,-3,-3,-2,0.551758,0.0605469,0.163574,12.5625,0.75,13,0.767421,-1.30137,0.645355
3078,-7,-47,-9,-1,-1,0,-2,-2,0.560059,0.0541992,0.123535,20,0.3125,12.0625,0.758917,-1.30485,0.66134
3078,1,0,0,0,-1,1,6,1,0.560059,0.0541992,0.123535,20,0.3125,12.0625,0.758917,-1.30485,0.66134
3079,0,1,4,1,-1,0,0,1,0.560059,0.0541992,0.123535,20,0.3125,12.0625,0.758917,-1.30485,0.66134
3079,-1,2,-4,1,0,1,-1,0,0.560059,0.0541992,0.123535,20,0.3125,12.0625,0.758917,-1.30485,0.66134
3093,-6,10,5,-2,-2,-1,-5,-5,0.508301,0.0800781,0.0942383,21.125,4.375,12.75,0.749775,-1.30707,0.678267
3093,-4,0,0,-2,-2,0,5,0,0.508301,0.0800781,0.0942383,21.125,4.375,12.75,0.749775,-1.30707,0.678267
3099,0,-5,-1,0,-2,-3,-4,-3,0.508301,0.0800781,0.0942383,21.125,4.375,12.75,0.749775,-1.30707,0.678267
3099,1,-10,-12,-1,-1,-1,4,-1,0.508301,0.0800781,0.0942383,21.125,4.375,12.75,0.749775,-1.30707,0.678267
3115,17,2,3,-1,-2,0,-4,3,0.458984,0.0839844,0.143555,27.5625,3.9375,15.1875,0.738103,-1.30849,0.699833
3115,2,14,2,-1,1,-1,1,0,0.458984,0.0839844,0.143555,27.5625,3.9375,15.1875,0.738103,-1.30849,0.699833
3115,-5,6,-6,-2,-2,0,0,-1,0.458984,0.0839844,0.143555,27.5625,3.9375,15.1875,0.738103,-1.30849,0.699833
3115,2,24,4,1,2,1,2,2,0.458984,0.0839844,0.143555,27.5625,3.9375,15.1875,0.738103,-1.30849,0.699833
3137,-4,-49,-10,-4,-4,-3,-4,-2,0.580078,0.0249023,0.168945,40.25,-4.875,15.25,0.732401,-1.31352,0.719619
3137,2,-4,-4,-3,-3,-3,0,1,0.580078,0.0249023,0.168945,40.25,-4.875,15.25,0.732401,-1.31352,0.719619
3138,-8,-5,0,-2,-1,-2,-2,-3,0.580078,0.0249023,0.168945,40.25,-4.875,15.25,0.732401,-1.31352,0.719619
3138,-1,6,10,-3,-3,-1,-1,-2,0.580078,0.0249023,0.168945,40.25,-4.875,15.25,0.732401,-1.31352,0.719619
3153,8,23,16,4,1,-1,-2,1,0.768066,0.0327148,0.138184,41.0625,-6.4375,9.125,0.737152,-1.31946,0.729586
3153,-11,-24,-24,-3,-2,0,2,-2,0.768066,0.0327148,0.138184,41.0625,-6.4375,9.125,0.737152,-1.31946,0.729586
3159,-3,22,-3,-1,-1,-4,-3,-3,0.768066,0.0327148,0.138184,41.0625,-6.4375,9.125,0.737152,-1.31946,0.729586
3159,6,1,7,-2,-2,-1,0,2,0.768066,0.0327148,0.138184,41.0625,-6.4375,9.125,0.737152,-1.31946,0.729586
3174,-3,31,-4,-2,-3,-2,-5,-5,0.781738,0.0883789,0.146973,39.125,-0.1875,6.5625,0.74085,-1.32159,0.739462
3174,1,-8,3,0,-1,0,2,1,0.781738,0.0883789,0.146973,39.125,-0.1875,6.5625,0.74085,-1.32159,0.739462
3175,11,1,4,1,3,1,18,3,0.781738,0.0883789,0.146973,39.125,-0.1875,6.5625,0.74085,-1.32159,0.739462
3175,-3,-14,0,1,-1,-3,-24,-4,0.781738,0.0883789,0.146973,39.125,-0.1875,6.5625,0.74085,-1.32159,0.739462
3196,-5,22,2,-1,1,0,-2,1,0.803711,0.118164,0.163086,35.5,3,6.4375,0.741548,-1.32234,0.751295
3196,9,10,2,0,0,0,3,-1,0.803711,0.118164,0.163086,35.5,3,6.4375,0.741548,-1.32234,0.751295
3197,-8,-36,-6,-2,-2,-1,4,0,0.803711,0.118164,0.163086,35.5,3,6.4375,0.741548,-1.32234,0.751295
3197,9,-32,-4,1,1,0,9,8,0.803711,0.118164,0.163086,35.5,3,6.4375,0.741548,-1.32234,0.751295
3213,-8,19,-3,-1,0,-2,-4,-3,0.951172,0.0820312,0.197266,37.375,0.9375,3.5,0.742808,-1.32397,0.763126
3213,-2,-33,3,-3,-3,-3,-5,-5,0.951172,0.0820312,0.197266,37.375,0.9375,3.5,0.742808,-1.32397,0.763126
3218,-2,18,11,1,0,-1,0,-1,0.951172,0.0820312,0.197266,37.375,0.9375,3.5,0.742808,-1.32397,0.763126
3218,-1,3,-15,-5,-2,-2,1,-3,0.951172,0.0820312,0.197266,37.375,0.9375,3.5,0.742808,-1.32397,0.763126
3236,-4,-16,-12,-1,-1,0,10,-1,1.1167,0.110352,0.14502,28.6875,4.75,-3.8125,0.750173,-1.3241,0.765597
3236,-6,24,4,0,1,-1,1,-4,1.1167,0.110352,0.14502,28.6875,4.75,-3.8125,0.750173,-1.3241,0.765597
3236,6,-30,7,3,1,1,-8,2,1.1167,0.110352,0.14502,28.6875,4.75,-3.8125,0.750173,-1.3241,0.765597
3236,-14,-39,-8,-4,-3,-1,-2,-7,1.1167,0.110352,0.14502,28.6875,4.75,-3.8125,0.750173,-1.3241,0.765597
3258,4,11,-10,-1,-2,0,-1,-2,1.11279,0.184082,0.134766,8.1875,16.1875,-9.1875,0.751139,-1.31914,0.767645
3258,-7,-10,-2,-3,-3,-2,-1,0,1.11279,0.184082,0.134766,8.1875,16.1875,-9.1875,0.751139,-1.31914,0.767645
3258,0,9,-3,0,-1,-2,-3,0,1.11279,0.184082,0.134766,8.1875,16.1875,-9.1875,0.751139,-1.31914,0.767645
3258,10,5,4,0,0,0,-1,-1,1.11279,0.184082,0.134766,8.1875,16.1875,-9.1875,0.751139,-1.31914,0.767645
3272,-18,-17,3,0,1,-1,-1,-1,1.13477,0.182129,0.128906,-5.5,18.6875,-9.1875,0.745716,-1.31431,0.772011
3272,23,20,8,2,-1,0,-1,5,1.13477,0.182129,0.128906,-5.5,18.6875,-9.1875,0.745716,-1.31431,0.772011
3278,-5,-1,-4,-1,0,1,11,-1,1.13477,0.182129,0.128906,-5.5,18.6875,-9.1875,0.745716,-1.31431,0.772011
3278,-2,12,6,-1,-2,-2,1,-1,1.13477,0.182129,0.128906,-5.5,18.6875,-9.1875,0.745716,-1.31431,0.772011
3294,1,13,2,0,0,0,-7,-2,1.22363,0.180176,0.12207,-21.125,25.4375,-12.875,0.733493,-1.30768,0.777522
3294,-1,-6,-1,0,0,-1,-3,-1,1.22363,0.180176,0.12207,-21.125,25.4375,-12.875,0.733493,-1.30768,0.777522
3295,-11,-15,-25,-8,-3,-2,-3,-3,1.22363,0.180176,0.12207,-21.125,25.4375,-12.875,0.733493,-1.30768,0.777522
3295,7,38,10,1,0,-1,1,-1,1.22363,0.180176,0.12207,-21.125,25.4375,-12.875,0.733493,-1.30768,0.777522
3316,0,-16,3,-2,-2,-3,-3,-1,1.27148,0.211426,0.13916,-40.125,31.75,-17.5625,0.715738,-1.29788,0.781678
3316,9,-43,-2,1,1,3,9,14,1.27148,0.211426,0.13916,-40.125,31.75,-17.5625,0.715738,-1.29788,0.781678
3317,-9,1,2,-3,-1,-4,-6,-8,1.27148,0.211426,0.13916,-40.125,31.75,-17.5625,0.715738,-1.29788,0.781678
3317,-8,-11,-7,-4,-3,-4,-4,-2,1.27148,0.211426,0.13916,-40.125,31.75,-17.5625,0.715738,-1.29788,0.781678
3332,5,3,2,1,0,1,-4,6,1.29053,0.228516,0.12207,-53.3125,36.625,-21.125,0.69643,-1.28653,0.782925
3332,1,15,7,0,-1,-3,-2,-16,1.29053,0.228516,0.12207,-53.3125,36.625,-21.125,0.69643,-1.28653,0.782925
3339,4,22,6,1,-1,0,-6,3,1.29053,0.228516,0.12207,-53.3125,36.625,-21.125,0.69643,-1.28653,0.782925
3339,6,9,3,2,-1,1,4,-8,1.29053,0.228516,0.12207,-53.3125,36.625,-21.125,0.69643,-1.28653,0.782925
3355,-9,2,-8,-2,-3,-3,-1,0,1.2832,0.201172,0.105957,-62.9375,44.3125,-17.625,0.665978,-1.27486,0.792473
3355,-3,-3,-1,1,-1,1,1,1,1.2832,0.201172,0.105957,-62.9375,44.3125,-17.625,0.665978,-1.27486,0.792473
3355,-10,-9,-2,-1,0,0,-2,12,1.2832,0.201172,0.105957,-62.9375,44.3125,-17.625,0.665978,-1.27486,0.792473
3355,4,2,3,0,0,0,1,-2,1.2832,0.201172,0.105957,-62.9375,44.3125,-17.625,0.665978,-1.27486,0.792473
3377,6,4,33,-3,-1,0,1,-4,1.28369,0.169922,0.135254,-60.25,45.625,-10.0625,0.6279,-1.26477,0.810949
3377,9,5,-18,-1,-2,-2,-1,14,1.28369,0.169922,0.135254,-60.25,45.625,-10.0625,0.6279,-1.26477,0.810949
3378,7,-14,-16,3,1,2,-6,-4,1.28369,0.169922,0.135254,-60.25,45.625,-10.0625,0.6279,-1.26477,0.810949
3378,-47,-5,-1,1,-3,-2,-6,-24,1.28369,0.169922,0.135254,-60.25,45.625,-10.0625,0.6279,-1.26477,0.810949
3392,8,-6,-6,1,-4,-2,-3,3,1.2793,0.214844,0.144043,-46.25,40.625,-8,0.601307,-1.25586,0.822812
3392,-27,-1,7,-5,-4,-2,-7,-3,1.2793,0.214844,0.144043,-46.25,40.625,-8,0.601307,-1.25586,0.822812
3399,12,34,41,0,-2,-1,1,0,1.2793,0.214844,0.144043,-46.25,40.625,-8,0.601307,-1.25586,0.822812
3399,15,-8,-37,-1,1,2,7,19,1.2793,0.214844,0.144043,-46.25,40.625,-8,0.601307,-1.25586,0.822812
3415,-6,-5,-8,-3,-2,-3,-2,-16,1.27051,0.1875,0.15918,-47.6875,42.8125,-9.375,0.573673,-1.24583,0.834717
3415,-22,-4,-8,-2,-1,-2,-4,-19,1.27051,0.1875,0.15918,-47.6875,42.8125,-9.375,0.573673,-1.24583,0.834717
3415,9,-9,-13,-2,-2,-2,-2,7,1.27051,0.1875,0.15918,-47.6875,42.8125,-9.375,0.573673,-1.24583,0.834717
3415,-2,-1,16,-2,0,0,-2,-9,1.27051,0.1875,0.15918,-47.6875,42.8125,-9.375,0.573673,-1.24583,0.834717
3438,4,-3,-3,-2,0,-2,-3,2,1.24463,0.166016,0.192383,-61.9375,43.6875,-0.3125,0.532156,-1.23716,0.856201
3438,1,-4,-9,-4,-2,-3,1,2,1.24463,0.166016,0.192383,-61.9375,43.6875,-0.3125,0.532156,-1.23716,0.856201
3438,-2,13,5,0,1,2,-3,-5,1.24463,0.166016,0.192383,-61.9375,43.6875,-0.3125,0.532156,-1.23716,0.856201
3438,6,-5,17,-4,-3,-3,-3,2,1.24463,0.166016,0.192383,-61.9375,43.6875,-0.3125,0.532156,-1.23716,0.856201
3453,-1,-1,-6,-1,2,1,0,8,1.1875,0.163086,0.251465,-48.25,43.375,5.25,0.491735,-1.22757,0.881298
3453,0,-17,5,3,1,0,2,-2,1.1875,0.163086,0.251465,-48.25,43.375,5.25,0.491735,-1.22757,0.881298
3459,-3,22,-10,0,-4,-7,-4,-16,1.1875,0.163086,0.251465,-48.25,43.375,5.25,0.491735,-1.22757,0.881298
3459,-7,7,9,-2,-2,-3,-1,13,1.1875,0.163086,0.251465,-48.25,43.375,5.25,0.491735,-1.22757,0.881298
3474,-2,-13,-50,-2,0,0,-3,-20,1.10986,0.223633,0.27002,-29,33.125,8.75,0.465219,-1.22044,0.899715
3474,-6,-3,-7,1,-2,-1,-2,0,1.10986,0.223633,0.27002,-29,33.125,8.75,0.465219,-1.22044,0.899715
3475,0,-10,-5,-2,-2,-1,0,3,1.10986,0.223633,0.27002,-29,33.125,8.75,0.465219,-1.22044,0.899715
3475,1,-9,1,1,-1,-2,-1,3,1.10986,0.223633,0.27002,-29,33.125,8.75,0.465219,-1.22044,0.899715
3497,-4,4,18,-2,-3,1,1,2,1.08008,0.154297,0.228027,-24.375,26.9375,7,0.442554,-1.21595,0.915193
3497,14,10,1,-4,-1,-2,2,3,1.08008,0.154297,0.228027,-24.375,26.9375,7,0.442554,-1.21595,0.915193
3497,-7,-8,-2,0,2,2,0,-4,1.08008,0.154297,0.228027,-24.375,26.9375,7,0.442554,-1.21595,0.915193
3497,5,5,-2,-1,-2,5,-5,-5,1.08008,0.154297,0.228027,-24.375,26.9375,7,0.442554,-1.21595,0.915193
3513,-4,-5,4,-1,-2,-11,-1,0,1.10889,0.074707,0.241699,-33.375,25.5625,16.6875,0.404927,-1.21387,0.942598
3513,-12,-1,-6,-2,-4,-11,-11,-25,1.10889,0.074707,0.241699,-33.375,25.5625,16.6875,0.404927,-1.21387,0.942598
3518,0,-6,2,-3,-3,-5,1,8,1.10889,0.074707,0.241699,-33.375,25.5625,16.6875,0.404927,-1.21387,0.942598
3518,8,2,0,2,4,0,-4,7,1.10889,0.074707,0.241699,-33.375,25.5625,16.6875,0.404927,-1.21387,0.942598
3535,18,3,-2,3,2,3,8,21,1.06641,0.0800781,0.343262,-9.75,22.6875,15,0.37705,-1.2098,0.968186
3535,-2,3,4,0,0,4,-2,-14,1.06641,0.0800781,0.343262,-9.75,22.6875,15,0.37705,-1.2098,0.968186
3535,-32,-14,-4,-8,-6,-9,-10,-33,1.06641,0.0800781,0.343262,-9.75,22.6875,15,0.37705,-1.2098,0.968186
3535,-7,-9,-6,-3,-2,-5,-4,-10,1.06641,0.0800781,0.343262,-9.75,22.6875,15,0.37705,-1.2098,0.968186
3557,2,0,-3,2,2,8,6,6,1.04004,0.240723,0.342773,10.375,19.25,3.125,0.378028,-1.20378,0.97202
3557,18,-2,11,1,2,3,6,20,1.04004,0.240723,0.342773,10.375,19.25,3.125,0.378028,-1.20378,0.97202
3558,5,6,11,-6,-3,0,-1,2,1.04004,0.240723,0.342773,10.375,19.25,3.125,0.378028,-1.20378,0.97202
3558,-2,-7,-54,-5,-5,-3,1,-4,1.04004,0.240723,0.342773,10.375,19.25,3.125,0.378028,-1.20378,0.97202
3573,0,26,23,5,2,3,1,3,1.03271,0.434082,0.290039,1.5,16.5625,-9.75,0.40077,-1.19662,0.951172
3573,3,-24,-22,-3,1,0,0,11,1.03271,0.434082,0.290039,1.5,16.5625,-9.75,0.40077,-1.19662,0.951172
3586,2,47,1,1,0,-1,-5,-1,1.03271,0.434082,0.290039,1.5,16.5625,-9.75,0.40077,-1.19662,0.951172
3586,14,-19,15,3,2,5,8,27,1.03271,0.434082,0.290039,1.5,16.5625,-9.75,0.40077,-1.19662,0.951172
3595,21,12,5,0,-1,-2,6,7,1.00732,0.334473,0.32959,-39.75,15.5625,-7.4375,0.399487,-1.18982,0.939165
3595,-41,19,-3,-9,-11,-11,-16,-68,1.00732,0.334473,0.32959,-39.75,15.5625,-7.4375,0.399487,-1.18982,0.939165
3595,-9,6,2,-3,-5,-1,-7,-10,1.00732,0.334473,0.32959,-39.75,15.5625,-7.4375,0.399487,-1.18982,0.939165
3595,-24,10,-2,-7,-4,-6,-3,9,1.00732,0.334473,0.32959,-39.75,15.5625,-7.4375,0.399487,-1.18982,0.939165
3617,-3,-8,1,1,5,-1,-5,2,0.967285,0.0307617,0.365234,-77.375,7.25,6.25,0.358689,-1.18911,0.95316
3617,7,-5,4,1,3,6,9,23,0.967285,0.0307617,0.365234,-77.375,7.25,6.25,0.358689,-1.18911,0.95316
3617,17,28,-2,-2,0,3,25,9,0.967285,0.0307617,0.365234,-77.375,7.25,6.25,0.358689,-1.18911,0.95316
3617,-1,-28,7,2,1,-6,-42,-8,0.967285,0.0307617,0.365234,-77.375,7.25,6.25,0.358689,-1.18911,0.95316
3633,0,-19,-10,-4,-2,1,-4,1,1.01953,-0.0561523,0.522461,-38.6875,3.0625,-6.875,0.334755,-1.18573,0.961927
3633,-33,-31,-35,-3,4,3,-37,-10,1.01953,-0.0561523,0.522461,-38.6875,3.0625,-6.875,0.334755,-1.18573,0.961927
3639,3,-37,-14,-6,-6,14,45,21,1.01953,-0.0561523,0.522461,-38.6875,3.0625,-6.875,0.334755,-1.18573,0.961927
3639,0,2,2,1,-3,-19,-1,-13,1.01953,-0.0561523,0.522461,-38.6875,3.0625,-6.875,0.334755,-1.18573,0.961927
3654,8,8,6,0,5,4,13,-1,0.975098,0.0151367,0.518555,8.1875,10.4375,-15.125,0.33665,-1.17846,0.961306
3654,49,20,14,-8,-5,-11,-13,1,0.975098,0.0151367,0.518555,8.1875,10.4375,-15.125,0.33665,-1.17846,0.961306
3661,-26,-20,-8,-4,-8,-10,-13,-6,0.975098,0.0151367,0.518555,8.1875,10.4375,-15.125,0.33665,-1.17846,0.961306
3661,11,5,13,4,3,8,9,-2,0.975098,0.0151367,0.518555,8.1875,10.4375,-15.125,0.33665,-1.17846,0.961306
3685,-16,-2,-2,3,2,3,8,-4,0.93457,0.13916,0.477539,9.5625,16.25,-9.1875,0.341094,-1.16973,0.960021
3685,17,18,12,8,2,12,17,-18,0.93457,0.13916,0.477539,9.5625,16.25,-9.1875,0.341094,-1.16973,0.960021
3687,0,-46,-1,4,1,-11,-22,6,0.93457,0.13916,0.477539,9.5625,16.25,-9.1875,0.341094,-1.16973,0.960021
3687,6,40,7,-5,-4,-4,-10,-17,0.93457,0.13916,0.477539,9.5625,16.25,-9.1875,0.341094,-1.16973,0.960021
3693,-18,-58,-14,-15,-10,-9,-29,-17,0.931641,0.327148,0.518555,-14.125,20.8125,-11,0.347018,-1.15739,0.949701
3693,-19,-17,-7,-6,-1,1,18,13,0.931641,0.327148,0.518555,-14.125,20.8125,-11,0.347018,-1.15739,0.949701
3699,16,10,24,11,6,2,5,-3,0.931641,0.327148,0.518555,-14.125,20.8125,-11,0.347018,-1.15739,0.949701
3699,-26,31,-27,2,4,5,0,-8,0.931641,0.327148,0.518555,-14.125,20.8125,-11,0.347018,-1.15739,0.949701
3714,9,47,14,-22,-19,-14,-3,-7,0.902832,0.189941,0.558594,-50.4375,27.75,-12.75,0.331217,-1.1428,0.947572
3714,19,-36,-32,8,6,4,4,8,0.902832,0.189941,0.558594,-50.4375,27.75,-12.75,0.331217,-1.1428,0.947572
3721,24,-66,9,13,10,7,-12,7,0.902832,0.189941,0.558594,-50.4375,27.75,-12.75,0.331217,-1.1428,0.947572
3721,-14,-25,-4,2,2,5,22,4,0.902832,0.189941,0.558594,-50.4375,27.75,-12.75,0.331217,-1.1428,0.947572
3745,-17,-2,-1,-5,-1,12,20,-11,0.84082,-0.111328,0.562012,-73.375,28.75,-1.4375,0.28457,-1.13043,0.967594
3745,1,32,10,-5,-2,13,8,13,0.84082,-0.111328,0.562012,-73.375,28.75,-1.4375,0.28457,-1.13043,0.967594
3745,21,31,-2,-7,-14,-29,-15,9,0.84082,-0.111328,0.562012,-73.375,28.75,-1.4375,0.28457,-1.13043,0.967594
3745,42,13,25,6,2,-12,-14,34,0.84082,-0.111328,0.562012,-73.375,28.75,-1.4375,0.28457,-1.13043,0.967594
3752,-6,6,-5,2,0,2,8,-22,0.736328,0.0463867,0.571777,-31.25,6.75,-11.0625,0.273877,-1.1225,0.966017
3752,0,-1,68,-3,-3,3,2,-16,0.736328,0.0463867,0.571777,-31.25,6.75,-11.0625,0.273877,-1.1225,0.966017
3759,-3,17,-48,-9,0,-2,-19,-41,0.736328,0.0463867,0.571777,-31.25,6.75,-11.0625,0.273877,-1.1225,0.966017
3759,-15,39,70,-20,-22,-12,-1,27,0.736328,0.0463867,0.571777,-31.25,6.75,-11.0625,0.273877,-1.1225,0.966017
3774,-11,-53,-88,27,15,-1,-8,8,0.782227,0.0395508,0.563965,19.5625,-6.4375,-26.4375,0.293307,-1.11836,0.950739
3774,-4,-10,-58,28,24,5,4,38,0.782227,0.0395508,0.563965,19.5625,-6.4375,-26.4375,0.293307,-1.11836,0.950739
3782,-16,-22,-9,13,-10,-12,-17,-2,0.782227,0.0395508,0.563965,19.5625,-6.4375,-26.4375,0.293307,-1.11836,0.950739
3782,13,-22,-3,-3,6,21,55,8,0.782227,0.0395508,0.563965,19.5625,-6.4375,-26.4375,0.293307,-1.11836,0.950739
3797,20,4,24,-12,-3,4,-9,11,0.938965,-0.0703125,0.48877,12.125,-14.125,5.625,0.284978,-1.12376,0.962336
3797,-3,8,25,-24,-22,-9,20,0,0.938965,-0.0703125,0.48877,12.125,-14.125,5.625,0.284978,-1.12376,0.962336
3797,-48,1,3,-1,23,37,4,-8,0.938965,-0.0703125,0.48877,12.125,-14.125,5.625,0.284978,-1.12376,0.962336
3797,-20,-17,-12,-2,-6,-7,-8,-88,0.938965,-0.0703125,0.48877,12.125,-14.125,5.625,0.284978,-1.12376,0.962336
3812,3,7,15,3,-2,5,-53,-17,0.81543,-0.155762,0.538574,10.125,-21.25,33.6875,0.252367,-1.13188,0.998924
3812,-2,-1,-9,-10,-25,-38,-38,20,0.81543,-0.155762,0.538574,10.125,-21.25,33.6875,0.252367,-1.13188,0.998924
3819,38,18,10,-13,-6,-2,-41,-49,0.81543,-0.155762,0.538574,10.125,-21.25,33.6875,0.252367,-1.13188,0.998924
3819,9,1,-15,-7,-3,-21,-19,20,0.81543,-0.155762,0.538574,10.125,-21.25,33.6875,0.252367,-1.13188,0.998924
3834,-4,2,-1,11,15,18,22,1,0.917969,-0.162109,0.523438,58.25,-10.3125,23.5625,0.240949,-1.13643,1.03067
3834,-31,-2,30,3,0,7,3,-28,0.917969,-0.162109,0.523438,58.25,-10.3125,23.5625,0.240949,-1.13643,1.03067
3841,-11,52,53,3,-1,-4,4,-32,0.917969,-0.162109,0.523438,58.25,-10.3125,23.5625,0.240949,-1.13643,1.03067
3841,11,-52,-62,21,16,37,25,95,0.917969,-0.162109,0.523438,58.25,-10.3125,23.5625,0.240949,-1.13643,1.03067
3857,-44,-2,26,-2,-14,-29,-1,-28,0.880371,0.138184,0.47998,52.9375,-3.125,27.5625,0.241116,-1.13771,1.05114
3857,20,-27,-40,-8,2,18,49,34,0.880371,0.138184,0.47998,52.9375,-3.125,27.5625,0.241116,-1.13771,1.05114
3858,64,9,9,-2,3,-1,-6,127,0.880371,0.138184,0.47998,52.9375,-3.125,27.5625,0.241116,-1.13771,1.05114
3858,-31,12,8,2,8,12,-25,-110,0.880371,0.138184,0.47998,52.9375,-3.125,27.5625,0.241116,-1.13771,1.05114
3873,-104,-37,0,-14,-13,-31,-15,13,1.07666,0.237793,0.556152,56.1875,-4.125,21.875,0.250763,-1.13873,1.06322
3873,45,39,2,-7,-8,3,17,15,1.07666,0.237793,0.556152,56.1875,-4.125,21.875,0.250763,-1.13873,1.06322
3878,33,15,-2,9,4,11,24,9,1.07666,0.237793,0.556152,56.1875,-4.125,21.875,0.250763,-1.13873,1.06322
3878,3,28,-8,-6,-10,-14,-3,9,1.07666,0.237793,0.556152,56.1875,-4.125,21.875,0.250763,-1.13873,1.06322
3893,-12,-75,4,9,4,14,13,-1,1.3623,0.541016,0.624512,48.625,8.25,29.9375,0.265363,-1.13595,1.06989
3893,-45,79,122,-26,-5,-6,-10,-26,1.3623,0.541016,0.624512,48.625,8.25,29.9375,0.265363,-1.13595,1.06989
3910,-24,-76,-117,-11,-7,3,18,-22,1.3623,0.541016,0.624512,48.625,8.25,29.9375,0.265363,-1.13595,1.06989
3910,19,45,120,34,11,-3,-20,2,1.3623,0.541016,0.624512,48.625,8.25,29.9375,0.265363,-1.13595,1.06989
3917,26,34,70,26,1,6,31,13,1.15967,1.11719,0.432617,57.625,-3.625,35.1875,0.31567,-1.13595,1.04729
3917,39,-24,46,14,13,2,-4,14,1.15967,1.11719,0.432617,57.625,-3.625,35.1875,0.31567,-1.13595,1.04729
3917,27,117,123,-35,-18,-21,-16,1,1.15967,1.11719,0.432617,57.625,-3.625,35.1875,0.31567,-1.13595,1.04729
3917,-30,-100,-103,-15,6,12,1,52,1.15967,1.11719,0.432617,57.625,-3.625,35.1875,0.31567,-1.13595,1.04729
3933,74,42,-28,2,-3,42,85,104,0.756348,0.248047,0.27832,43.4375,-12,34.6875,0.317516,-1.14387,1.06382
3933,-90,-21,-4,50,16,-18,-93,-91,0.756348,0.248047,0.27832,43.4375,-12,34.6875,0.317516,-1.14387,1.06382
3939,-61,-1,31,8,-15,-33,9,32,0.756348,0.248047,0.27832,43.4375,-12,34.6875,0.317516,-1.14387,1.06382
3939,-3,-14,-22,-32,-14,-21,-20,10,0.756348,0.248047,0.27832,43.4375,-12,34.6875,0.317516,-1.14387,1.06382
3954,51,52,11,8,24,36,9,67,0.976074,0.00244141,0.253418,59.875,-29.8125,14.5625,0.330249,-1.15936,1.07175
3954,-10,-31,-23,13,2,23,97,34,0.976074,0.00244141,0.253418,59.875,-29.8125,14.5625,0.330249,-1.15936,1.07175
3961,-17,-17,-22,-27,-21,-69,-77,-41,0.976074,0.00244141,0.253418,59.875,-29.8125,14.5625,0.330249,-1.15936,1.07175
3961,28,32,23,-25,-34,-65,-38,-6,0.976074,0.00244141,0.253418,59.875,-29.8125,14.5625,0.330249,-1.15936,1.07175
3977,-2,8,-52,1,17,-16,-30,-62,1.33447,0.128418,-0.0112305,30.625,-12.5,4.5,0.348407,-1.17609,1.06509
3977,-14,13,27,30,9,4,30,2,1.33447,0.128418,-0.0112305,30.625,-12.5,4.5,0.348407,-1.17609,1.06509
3977,-12,-46,8,35,28,58,29,-24,1.33447,0.128418,-0.0112305,30.625,-12.5,4.5,0.348407,-1.17609,1.06509
3977,7,1,-8,-19,-15,2,36,26,1.33447,0.128418,-0.0112305,30.625,-12.5,4.5,0.348407,-1.17609,1.06509
3993,31,13,-11,-31,-11,-23,-23,-20,1.47314,0.262695,-0.162109,21.4375,19.625,26.75,0.348978,-1.18789,1.07579
3993,-12,-17,-23,-14,-3,10,-9,-3,1.47314,0.262695,-0.162109,21.4375,19.625,26.75,0.348978,-1.18789,1.07579
3999,17,-5,-1,26,23,18,24,8,1.47314,0.262695,-0.162109,21.4375,19.625,26.75,0.348978,-1.18789,1.07579
3999,16,15,25,22,5,11,0,-26,1.47314,0.262695,-0.162109,21.4375,19.625,26.75,0.348978,-1.18789,1.07579
4014,-12,6,11,0,-13,-13,-5,18,1.41309,0.520508,-0.137695,29.1875,44.875,23.25,0.362185,-1.1877,1.07771
4014,-6,-7,-28,-33,-17,-28,-34,-1,1.41309,0.520508,-0.137695,29.1875,44.875,23.25,0.362185,-1.1877,1.07771
4021,-14,-54,-41,-28,-14,8,11,9,1.41309,0.520508,-0.137695,29.1875,44.875,23.25,0.362185,-1.1877,1.07771
4021,9,13,-13,-3,7,13,28,-19,1.41309,0.520508,-0.137695,29.1875,44.875,23.25,0.362185,-1.1877,1.07771
4037,-28,-9,53,-9,-13,-19,-22,-23,1.33057,0.634277,0.0791016,17.75,56.5,7.875,0.38121,-1.17595,1.06959
4037,24,74,-53,-26,-16,-9,-7,-3,1.33057,0.634277,0.0791016,17.75,56.5,7.875,0.38121,-1.17595,1.06959
4037,26,-50,-28,-10,3,-10,3,29,1.33057,0.634277,0.0791016,17.75,56.5,7.875,0.38121,-1.17595,1.06959
4037,-14,32,25,34,24,29,33,-2,1.33057,0.634277,0.0791016,17.75,56.5,7.875,0.38121,-1.17595,1.06959
4052,14,59,99,32,10,-16,-51,-18,1.18652,0.399902,0.385254,13.6875,67.1875,10.125,0.372703,-1.15589,1.08653
4052,-5,-3,-87,-4,12,13,11,12,1.18652,0.399902,0.385254,13.6875,67.1875,10.125,0.372703,-1.15589,1.08653
4058,-10,-13,-15,4,-17,-5,-1,-19,1.18652,0.399902,0.385254,13.6875,67.1875,10.125,0.372703,-1.15589,1.08653
4058,15,25,34,-18,-18,3,35,-1,1.18652,0.399902,0.385254,13.6875,67.1875,10.125,0.372703,-1.15589,1.08653
4073,-14,17,-30,6,17,10,2,9,1.02393,0.0473633,0.509277,14.0625,65.625,18.6875,0.338926,-1.1362,1.12741
4073,17,-58,37,53,26,-15,-58,28,1.02393,0.0473633,0.509277,14.0625,65.625,18.6875,0.338926,-1.1362,1.12741
4080,20,45,29,13,2,1,5,5,1.02393,0.0473633,0.509277,14.0625,65.625,18.6875,0.338926,-1.1362,1.12741
4080,-38,-44,-48,-54,-24,25,53,1,1.02393,0.0473633,0.509277,14.0625,65.625,18.6875,0.338926,-1.1362,1.12741
4097,23,16,-9,-47,-32,-16,-58,-45,1.06738,-0.123047,0.530273,15.75,61.25,13.9375,0.304633,-1.11862,1.16825
4097,38,0,22,6,10,5,-9,44,1.06738,-0.123047,0.530273,15.75,61.25,13.9375,0.304633,-1.11862,1.16825
4097,-52,-15,4,20,8,-27,-25,-26,1.06738,-0.123047,0.530273,15.75,61.25,13.9375,0.304633,-1.11862,1.16825
4097,11,-25,35,19,1,-1,-19,17,1.06738,-0.123047,0.530273,15.75,61.25,13.9375,0.304633,-1.11862,1.16825
4113,6,-17,-45,-51,0,38,58,36,1.0625,-0.17627,0.501953,1.1875,58.625,10.9375,0.269087,-1.10251,1.20482
4113,16,-3,2,26,20,30,34,10,1.0625,-0.17627,0.501953,1.1875,58.625,10.9375,0.269087,-1.10251,1.20482
4119,11,13,49,53,24,14,-5,10,1.0625,-0.17627,0.501953,1.1875,58.625,10.9375,0.269087,-1.10251,1.20482
4119,-21,52,22,19,6,-2,-4,-39,1.0625,-0.17627,0.501953,1.1875,58.625,10.9375,0.269087,-1.10251,1.20482
4134,-18,-58,-18,-5,-16,-7,7,-20,0.89209,-0.129395,0.519043,-11.6875,48.0625,8.8125,0.237773,-1.08693,1.23238
4134,10,-1,-20,-61,-29,-4,38,43,0.89209,-0.129395,0.519043,-11.6875,48.0625,8.8125,0.237773,-1.08693,1.23238
4141,51,25,-5,-36,-17,9,41,51,0.89209,-0.129395,0.519043,-11.6875,48.0625,8.8125,0.237773,-1.08693,1.23238
4141,-45,-12,-12,17,17,-8,-70,3,0.89209,-0.129395,0.519043,-11.6875,48.0625,8.8125,0.237773,-1.08693,1.23238
4157,-34,-19,-15,-9,-9,-49,-72,-37,0.883789,-0.0332031,0.606445,-10.125,45.5,2.5,0.21754,-1.06957,1.24913
4157,0,9,6,2,-9,-6,7,-10,0.883789,-0.0332031,0.606445,-10.125,45.5,2.5,0.21754,-1.06957,1.24913
4157,-27,21,-8,8,5,15,0,4,0.883789,-0.0332031,0.606445,-10.125,45.5,2.5,0.21754,-1.06957,1.24913
4157,51,-17,-15,5,1,8,17,80,0.883789,-0.0332031,0.606445,-10.125,45.5,2.5,0.21754,-1.06957,1.24913
4173,10,-1,22,19,9,-2,8,-38,0.908203,0.0249023,0.619141,-21.9375,47.5625,-7.8125,0.203392,-1.05073,1.25516
4173,-14,38,-17,3,9,12,25,34,0.908203,0.0249023,0.619141,-21.9375,47.5625,-7.8125,0.203392,-1.05073,1.25516
4187,22,19,37,-1,-3,-9,-18,-47,0.908203,0.0249023,0.619141,-21.9375,47.5625,-7.8125,0.203392,-1.05073,1.25516
4187,-20,2,-39,17,-1,-19,-20,11,0.908203,0.0249023,0.619141,-21.9375,47.5625,-7.8125,0.203392,-1.05073,1.25516
4194,20,-13,-10,-32,-17,29,13,24,0.836914,0.081543,0.604004,-44.625,45.3125,-5.4375,0.184325,-1.03255,1.25893
4194,-42,9,-7,-7,0,-15,-19,-11,0.836914,0.081543,0.604004,-44.625,45.3125,-5.4375,0.184325,-1.03255,1.25893
4201,23,5,0,2,3,0,-12,60,0.836914,0.081543,0.604004,-44.625,45.3125,-5.4375,0.184325,-1.03255,1.25893
4201,24,10,6,19,19,27,43,-5,0.836914,0.081543,0.604004,-44.625,45.3125,-5.4375,0.184325,-1.03255,1.25893
4217,-66,59,-4,-17,-20,-31,-26,-45,0.70459,0.00341797,0.597168,-49.1875,43.8125,-8.125,0.162867,-1.01372,1.26241
4217,48,-82,-34,-37,-24,-14,-28,-19,0.70459,0.00341797,0.597168,-49.1875,43.8125,-8.125,0.162867,-1.01372,1.26241
4218,-26,34,-1,-35,-13,-2,13,8,0.70459,0.00341797,0.597168,-49.1875,43.8125,-8.125,0.162867,-1.01372,1.26241
4218,9,-17,-19,-4,-10,-14,-7,-12,0.70459,0.00341797,0.597168,-49.1875,43.8125,-8.125,0.162867,-1.01372,1.26241
4233,-8,12,-3,58,36,23,23,34,0.692383,0.0292969,0.608887,-41.5625,41.75,-18.125,0.151792,-0.99527,1.25749
4233,26,10,47,42,32,14,16,20,0.692383,0.0292969,0.608887,-41.5625,41.75,-18.125,0.151792,-0.99527,1.25749
4239,-82,-63,-49,-19,-12,-12,-26,13,0.692383,0.0292969,0.608887,-41.5625,41.75,-18.125,0.151792,-0.99527,1.25749
4239,80,11,30,-54,-34,8,55,82,0.692383,0.0292969,0.608887,-41.5625,41.75,-18.125,0.151792,-0.99527,1.25749
4254,-51,-21,-74,-19,-26,-21,-64,-73,0.775879,0.0410156,0.541016,-42.75,46.6875,-17.3125,0.140666,-0.977741,1.25213
4254,111,11,52,66,54,28,48,126,0.775879,0.0410156,0.541016,-42.75,46.6875,-17.3125,0.140666,-0.977741,1.25213
4261,21,-51,27,61,35,34,74,-12,0.775879,0.0410156,0.541016,-42.75,46.6875,-17.3125,0.140666,-0.977741,1.25213
4261,-69,-30,-15,-10,-16,-45,-88,15,0.775879,0.0410156,0.541016,-42.75,46.6875,-17.3125,0.140666,-0.977741,1.25213
4277,86,-28,-25,-42,-33,-16,33,127,0.692871,0.00634766,0.561035,-43.6875,50.5625,-8.9375,0.123843,-0.958426,1.25315
4277,-32,44,-10,-43,-23,7,-9,-56,0.692871,0.00634766,0.561035,-43.6875,50.5625,-8.9375,0.123843,-0.958426,1.25315
4278,0,23,-23,-10,4,3,-5,-19,0.692871,0.00634766,0.561035,-43.6875,50.5625,-8.9375,0.123843,-0.958426,1.25315
4278,-3,-37,21,14,-2,5,12,-16,0.692871,0.00634766,0.561035,-43.6875,50.5625,-8.9375,0.123843,-0.958426,1.25315
4292,22,31,52,24,18,-6,-3,-40,0.609375,-0.015625,0.549805,-34.6875,56.25,-8.5625,0.10944,-0.936636,1.25466
4292,34,33,-20,8,-7,-15,-17,1,0.609375,-0.015625,0.549805,-34.6875,56.25,-8.5625,0.10944,-0.936636,1.25466
4299,-39,28,9,-22,-21,15,20,-20,0.609375,-0.015625,0.549805,-34.6875,56.25,-8.5625,0.10944,-0.936636,1.25466
4299,15,30,-12,-14,7,-3,-23,13,0.609375,-0.015625,0.549805,-34.6875,56.25,-8.5625,0.10944,-0.936636,1.25466
4314,22,-82,-18,32,23,5,-9,-32,0.563965,-0.0683594,0.567383,-30.1875,58.3125,-23.25,0.101617,-0.913165,1.2489
4314,-90,65,46,13,-7,-14,2,19,0.563965,-0.0683594,0.567383,-30.1875,58.3125,-23.25,0.101617,-0.913165,1.2489
4321,85,-59,-10,-7,-2,3,13,27,0.563965,-0.0683594,0.567383,-30.1875,58.3125,-23.25,0.101617,-0.913165,1.2489
4321,-101,-19,-60,-43,-33,-23,-72,-128,0.563965,-0.0683594,0.567383,-30.1875,58.3125,-23.25,0.101617,-0.913165,1.2489
4337,11,27,10,-8,2,-8,-3,30,0.594238,-0.0302734,0.59375,-36,59,-21.5625,0.0927538,-0.889769,1.24258
4337,37,96,16,6,-6,-4,15,-32,0.594238,-0.0302734,0.59375,-36,59,-21.5625,0.0927538,-0.889769,1.24258
4338,-52,-9,-36,8,20,-10,-8,31,0.594238,-0.0302734,0.59375,-36,59,-21.5625,0.0927538,-0.889769,1.24258
4338,70,111,39,27,15,37,39,52,0.594238,-0.0302734,0.59375,-36,59,-21.5625,0.0927538,-0.889769,1.24258
4353,-30,74,35,22,16,16,29,59,0.519531,0.059082,0.57959,-37.6875,62.875,-12.5625,0.0829723,-0.864952,1.23842
4353,32,108,35,-22,-8,-23,-34,-52,0.519531,0.059082,0.57959,-37.6875,62.875,-12.5625,0.0829723,-0.864952,1.23842
4358,-78,-38,-64,-23,-27,-3,-90,-24,0.519531,0.059082,0.57959,-37.6875,62.875,-12.5625,0.0829723,-0.864952,1.23842
4358,106,-16,-18,-18,-9,-24,52,77,0.519531,0.059082,0.57959,-37.6875,62.875,-12.5625,0.0829723,-0.864952,1.23842
4374,-40,114,15,3,7,8,-2,-63,0.452637,0.0825195,0.541992,-15.8125,65.6875,-12.375,0.0817306,-0.839284,1.23366
4374,-92,-112,-43,9,-9,-15,-69,-83,0.452637,0.0825195,0.541992,-15.8125,65.6875,-12.375,0.0817306,-0.839284,1.23366
4380,48,-17,-6,-3,1,-6,22,30,0.452637,0.0825195,0.541992,-15.8125,65.6875,-12.375,0.0817306,-0.839284,1.23366
4380,1,-83,-1,15,18,3,-24,2,0.452637,0.0825195,0.541992,-15.8125,65.6875,-12.375,0.0817306,-0.839284,1.23366
4397,-1,-10,-4,-7,-22,26,32,40,0.466797,0.0942383,0.563965,-3.625,59.5625,-14.6875,0.0857168,-0.815848,1.22763
4397,54,-104,-5,-39,-23,-17,27,40,0.466797,0.0942383,0.563965,-3.625,59.5625,-14.6875,0.0857168,-0.815848,1.22763
4398,12,8,-12,-16,-4,-15,-25,-13,0.466797,0.0942383,0.563965,-3.625,59.5625,-14.6875,0.0857168,-0.815848,1.22763
4398,-74,42,5,41,32,9,-17,-105,0.466797,0.0942383,0.563965,-3.625,59.5625,-14.6875,0.0857168,-0.815848,1.22763
4421,22,0,2,6,3,5,0,27,0.510254,0.103027,0.558594,-3.25,57,-10.5625,0.0885216,-0.794453,1.22341
4421,15,62,38,-7,-6,6,12,78,0.510254,0.103027,0.558594,-3.25,57,-10.5625,0.0885216,-0.794453,1.22341
4422,11,34,-21,-7,-9,-24,-3,-70,0.510254,0.103027,0.558594,-3.25,57,-10.5625,0.0885216,-0.794453,1.22341
4422,-24,-103,-47,-11,-16,10,1,46,0.510254,0.103027,0.558594,-3.25,57,-10.5625,0.0885216,-0.794453,1.22341
4433,25,101,20,-1,4,-35,-2,-9,0.398438,0.0683594,0.527832,-14.9375,55.1875,-16.75,0.0881981,-0.772682,1.21699
4433,-48,-20,-8,1,8,9,-39,-55,0.398438,0.0683594,0.527832,-14.9375,55.1875,-16.75,0.0881981,-0.772682,1.21699
4441,0,41,55,14,-3,-6,-9,-19,0.398438,0.0683594,0.527832,-14.9375,55.1875,-16.75,0.0881981,-0.772682,1.21699
4441,17,50,22,10,15,12,39,24,0.398438,0.0683594,0.527832,-14.9375,55.1875,-16.75,0.0881981,-0.772682,1.21699
4464,-47,-128,-28,9,-1,-27,10,-32,0.430664,-0.0322266,0.586426,-19.8125,45.875,-13.375,0.0816906,-0.754267,1.21437
4464,61,-26,-4,0,-3,20,0,92,0.430664,-0.0322266,0.586426,-19.8125,45.875,-13.375,0.0816906,-0.754267,1.21437
4465,-21,113,13,-22,-6,-3,-16,-39,0.430664,-0.0322266,0.586426,-19.8125,45.875,-13.375,0.0816906,-0.754267,1.21437
4465,-14,13,-32,-33,-16,-3,31,18,0.430664,-0.0322266,0.586426,-19.8125,45.875,-13.375,0.0816906,-0.754267,1.21437
4473,-53,37,58,32,21,4,2,-67,0.543457,0.00585938,0.573242,-25.5625,42.3125,-18.125,0.0762284,-0.739392,1.20822
4473,-21,4,-13,36,19,9,37,-11,0.543457,0.00585938,0.573242,-25.5625,42.3125,-18.125,0.0762284,-0.739392,1.20822
4478,9,3,-9,16,2,-8,-12,2,0.543457,0.00585938,0.573242,-25.5625,42.3125,-18.125,0.0762284,-0.739392,1.20822
4478,37,44,12,-14,-13,5,24,80,0.543457,0.00585938,0.573242,-25.5625,42.3125,-18.125,0.0762284,-0.739392,1.20822
4493,-54,-56,-32,-49,-27,-4,-15,54,0.470703,0.0546875,0.555664,-29.1875,41.8125,-22.6875,0.0726655,-0.723724,1.19872
4493,-25,-20,-2,3,5,-5,-11,-15,0.470703,0.0546875,0.555664,-29.1875,41.8125,-22.6875,0.0726655,-0.723724,1.19872
4501,28,-16,-10,-3,-1,20,48,74,0.470703,0.0546875,0.555664,-29.1875,41.8125,-22.6875,0.0726655,-0.723724,1.19872
4501,-40,-11,24,-34,-25,-35,-51,-22,0.470703,0.0546875,0.555664,-29.1875,41.8125,-22.6875,0.0726655,-0.723724,1.19872
4518,79,22,-12,4,-2,10,8,52,0.447266,0.0493164,0.62793,-26.5,39,-18.375,0.0683405,-0.708005,1.19136
4518,-36,-16,-19,0,8,5,7,-76,0.447266,0.0493164,0.62793,-26.5,39,-18.375,0.0683405,-0.708005,1.19136
4519,63,10,31,60,38,46,58,84,0.447266,0.0493164,0.62793,-26.5,39,-18.375,0.0683405,-0.708005,1.19136
4519,-48,29,29,22,20,-1,-37,-42,0.447266,0.0493164,0.62793,-26.5,39,-18.375,0.0683405,-0.708005,1.19136
4532,49,-18,6,-3,-10,7,20,58,0.464844,0.0664062,0.676758,-31.6875,37.25,-22.6875,0.0638973,-0.692654,1.18169
4532,-65,-29,-41,-74,-45,-10,19,-42,0.464844,0.0664062,0.676758,-31.6875,37.25,-22.6875,0.0638973,-0.692654,1.18169
4538,-8,-10,-8,-18,-15,-21,-44,7,0.464844,0.0664062,0.676758,-31.6875,37.25,-22.6875,0.0638973,-0.692654,1.18169
4538,14,-10,22,35,17,1,-2,-26,0.464844,0.0664062,0.676758,-31.6875,37.25,-22.6875,0.0638973,-0.692654,1.18169
4553,24,-8,0,26,14,24,24,15,0.40918,0.0620117,0.680176,-36.8125,36.375,-20.4375,0.057018,-0.676899,1.17304
4553,14,41,-3,-3,-1,-20,-36,15,0.40918,0.0620117,0.680176,-36.8125,36.375,-20.4375,0.057018,-0.676899,1.17304
4561,1,36,-1,-25,-9,-1,27,29,0.40918,0.0620117,0.680176,-36.8125,36.375,-20.4375,0.057018,-0.676899,1.17304
4561,-24,8,-22,-20,-19,6,17,-40,0.40918,0.0620117,0.680176,-36.8125,36.375,-20.4375,0.057018,-0.676899,1.17304
4576,-11,-26,-36,13,25,-4,-22,-9,0.38623,0.0366211,0.724609,-34.8125,33,-16.1875,0.0489328,-0.661547,1.16664
4576,23,23,55,39,9,-3,-7,34,0.38623,0.0366211,0.724609,-34.8125,33,-16.1875,0.0489328,-0.661547,1.16664
4584,-19,-90,-32,-49,-32,-6,-6,-26,0.38623,0.0366211,0.724609,-34.8125,33,-16.1875,0.0489328,-0.661547,1.16664
4584,13,-16,-15,3,8,29,61,10,0.38623,0.0366211,0.724609,-34.8125,33,-16.1875,0.0489328,-0.661547,1.16664
4592,18,-24,42,34,14,-18,-77,-8,0.399902,0.00830078,0.754883,-29.9375,34.3125,-13.125,0.0408184,-0.646119,1.16198
4592,7,-20,-10,-8,-3,-8,-12,-18,0.399902,0.00830078,0.754883,-29.9375,34.3125,-13.125,0.0408184,-0.646119,1.16198
4598,-18,-75,-2,-4,-6,-4,-12,-25,0.399902,0.00830078,0.754883,-29.9375,34.3125,-13.125,0.0408184,-0.646119,1.16198
4598,25,-28,-12,-36,-31,-3,2,62,0.399902,0.00830078,0.754883,-29.9375,34.3125,-13.125,0.0408184,-0.646119,1.16198
4613,-20,-30,0,-6,13,20,35,-18,0.401367,-0.0239258,0.741211,-31.5,34.6875,-7.4375,0.0300782,-0.631095,1.1601
4613,10,26,19,29,12,-5,0,21,0.401367,-0.0239258,0.741211,-31.5,34.6875,-7.4375,0.0300782,-0.631095,1.1601
4621,-19,-14,-14,-21,-17,-16,-9,-5,0.401367,-0.0239258,0.741211,-31.5,34.6875,-7.4375,0.0300782,-0.631095,1.1601
4621,4,65,12,29,19,1,-17,18,0.401367,-0.0239258,0.741211,-31.5,34.6875,-7.4375,0.0300782,-0.631095,1.1601
4637,12,45,-4,-26,-10,12,30,6,0.368652,-0.0405273,0.759766,-30.6875,35,-2.5,0.0182045,-0.615525,1.16027
4637,-35,49,-6,2,13,1,-1,-38,0.368652,-0.0405273,0.759766,-30.6875,35,-2.5,0.0182045,-0.615525,1.16027
4653,11,103,27,22,4,2,-9,-2,0.368652,-0.0405273,0.759766,-30.6875,35,-2.5,0.0182045,-0.615525,1.16027
4653,23,44,32,14,11,0,-20,21,0.368652,-0.0405273,0.759766,-30.6875,35,-2.5,0.0182045,-0.615525,1.16027
4654,-14,42,-34,12,-5,-18,-21,-37,0.347168,-0.0458984,0.74707,-28.125,34.6875,-2.375,0.00733789,-0.600019,1.1604
4654,-4,-29,-44,-66,-53,18,43,-10,0.347168,-0.0458984,0.74707,-28.125,34.6875,-2.375,0.00733789,-0.600019,1.1604
4659,6,23,-8,-67,-23,-14,-30,-11,0.347168,-0.0458984,0.74707,-28.125,34.6875,-2.375,0.00733789,-0.600019,1.1604
4659,-20,-6,50,82,70,0,-14,-29,0.347168,-0.0458984,0.74707,-28.125,34.6875,-2.375,0.00733789,-0.600019,1.1604
4674,2,3,18,49,20,6,3,6,0.358887,-0.0356445,0.726562,-23.3125,31.25,-1.4375,-0.00146287,-0.586614,1.1604
4674,19,-8,11,1,-13,2,7,18,0.358887,-0.0356445,0.726562,-23.3125,31.25,-1.4375,-0.00146287,-0.586614,1.1604
4681,-23,-35,-59,-28,-26,-8,2,-6,0.358887,-0.0356445,0.726562,-23.3125,31.25,-1.4375,-0.00146287,-0.586614,1.1604
4681,2,28,45,-36,-21,-11,-29,-39,0.358887,-0.0356445,0.726562,-23.3125,31.25,-1.4375,-0.00146287,-0.586614,1.1604
4697,-6,-54,-65,-22,-16,-7,8,16,0.383301,-0.0151367,0.745605,-16.3125,29.6875,-2.1875,-0.00692288,-0.574202,1.15959
4697,-33,-27,-6,14,20,1,2,-27,0.383301,-0.0151367,0.745605,-16.3125,29.6875,-2.1875,-0.00692288,-0.574202,1.15959
4703,13,29,47,37,24,10,15,-5,0.383301,-0.0151367,0.745605,-16.3125,29.6875,-2.1875,-0.00692288,-0.574202,1.15959
4703,16,-19,-5,2,-6,-3,-17,9,0.383301,-0.0151367,0.745605,-16.3125,29.6875,-2.1875,-0.00692288,-0.574202,1.15959
4712,-13,-18,1,-19,-16,-14,9,13,0.368652,0.00585938,0.758789,-17.4375,29.5,0.4375,-0.0125917,-0.561644,1.15942
4712,-9,-21,-9,0,0,0,-12,-9,0.368652,0.00585938,0.758789,-17.4375,29.5,0.4375,-0.0125917,-0.561644,1.15942
4719,23,31,28,12,11,5,4,17,0.368652,0.00585938,0.758789,-17.4375,29.5,0.4375,-0.0125917,-0.561644,1.15942
4719,-26,-20,-47,-39,-21,-10,-11,-25,0.368652,0.00585938,0.758789,-17.4375,29.5,0.4375,-0.0125917,-0.561644,1.15942
4742,14,15,5,-17,-27,6,3,-9,0.369629,-0.0307617,0.77002,-17.6875,26.6875,1.6875,-0.0195122,-0.550128,1.16025
4742,7,-10,-8,-4,-2,-12,-13,-1,0.369629,-0.0307617,0.77002,-17.6875,26.6875,1.6875,-0.0195122,-0.550128,1.16025
4742,-6,-6,14,0,14,12,36,10,0.369629,-0.0307617,0.77002,-17.6875,26.6875,1.6875,-0.0195122,-0.550128,1.16025
4742,1,-8,-28,51,20,-9,-11,13,0.369629,-0.0307617,0.77002,-17.6875,26.6875,1.6875,-0.0195122,-0.550128,1.16025
4756,13,3,29,6,4,3,-8,-13,0.383301,-0.0385742,0.807617,-12.9375,25.1875,0,-0.0244301,-0.539175,1.16029
4756,0,7,3,-10,-4,-10,-19,6,0.383301,-0.0385742,0.807617,-12.9375,25.1875,0,-0.0244301,-0.539175,1.16029
4764,9,-13,-20,13,-4,10,21,69,0.383301,-0.0385742,0.807617,-12.9375,25.1875,0,-0.0244301,-0.539175,1.16029
4764,-13,13,7,-31,-19,-13,-19,-39,0.383301,-0.0385742,0.807617,-12.9375,25.1875,0,-0.0244301,-0.539175,1.16029
4779,-9,-21,-2,-8,0,-7,-14,2,0.373535,-0.0400391,0.818359,-7.8125,21.5,-0.3125,-0.0274032,-0.529463,1.16015
4779,-13,11,22,29,9,1,4,8,0.373535,-0.0400391,0.818359,-7.8125,21.5,-0.3125,-0.0274032,-0.529463,1.16015
4780,6,-13,-26,-59,-21,-13,7,-9,0.373535,-0.0400391,0.818359,-7.8125,21.5,-0.3125,-0.0274032,-0.529463,1.16015
4780,-10,-2,-2,35,30,13,-21,-3,0.373535,-0.0400391,0.818359,-7.8125,21.5,-0.3125,-0.0274032,-0.529463,1.16015
4794,10,10,26,19,-8,0,17,-32,0.378906,-0.0371094,0.826172,-8.5625,19.0625,1.5625,-0.0309735,-0.520709,1.16069
4794,19,-16,-13,-26,-19,-14,-11,22,0.378906,-0.0371094,0.826172,-8.5625,19.0625,1.5625,-0.0309735,-0.520709,1.16069
4801,-12,13,-2,30,31,0,-19,-81,0.378906,-0.0371094,0.826172,-8.5625,19.0625,1.5625,-0.0309735,-0.520709,1.16069
4801,-16,-6,9,-19,-13,8,34,9,0.378906,-0.0371094,0.826172,-8.5625,19.0625,1.5625,-0.0309735,-0.520709,1.16069
4816,-9,-11,4,-24,-5,-2,-13,9,0.420898,-0.043457,0.838379,-6.875,19.5,0.0625,-0.0335881,-0.512785,1.16066
4816,-8,2,-37,2,1,-8,-23,11,0.420898,-0.043457,0.838379,-6.875,19.5,0.0625,-0.0335881,-0.512785,1.16066
4823,18,12,44,19,-10,-1,14,22,0.420898,-0.043457,0.838379,-6.875,19.5,0.0625,-0.0335881,-0.512785,1.16066
4823,53,-4,-13,1,8,10,18,25,0.420898,-0.043457,0.838379,-6.875,19.5,0.0625,-0.0335881,-0.512785,1.16066
4840,-42,-6,-4,8,10,-8,-28,-20,0.402832,-0.0361328,0.831055,-3.9375,19.5625,0.5625,-0.0351753,-0.504664,1.16079
4840,-4,-20,-35,-37,-35,-1,6,-16,0.402832,-0.0361328,0.831055,-3.9375,19.5625,0.5625,-0.0351753,-0.504664,1.16079
4840,3,2,-11,-9,17,-3,-8,22,0.402832,-0.0361328,0.831055,-3.9375,19.5625,0.5625,-0.0351753,-0.504664,1.16079
4840,4,-3,6,18,5,6,15,0,0.402832,-0.0361328,0.831055,-3.9375,19.5625,0.5625,-0.0351753,-0.504664,1.16079
4854,27,12,2,-26,-28,-5,16,25,0.390137,-0.0253906,0.844238,0.25,20.5625,-0.125,-0.0348412,-0.496069,1.16047
4854,-1,-4,7,17,22,23,33,28,0.390137,-0.0253906,0.844238,0.25,20.5625,-0.125,-0.0348412,-0.496069,1.16047
4861,-30,-2,-3,38,33,-3,-61,-49,0.390137,-0.0253906,0.844238,0.25,20.5625,-0.125,-0.0348412,-0.496069,1.16047
4861,6,7,17,13,-10,-10,0,0,0.390137,-0.0253906,0.844238,0.25,20.5625,-0.125,-0.0348412,-0.496069,1.16047
4876,-1,1,-32,-49,-25,-9,-2,-13,0.426758,-0.0336914,0.875977,-2.4375,23.5,-0.875,-0.035404,-0.487127,1.15972
4876,21,-3,19,-9,-1,11,7,20,0.426758,-0.0336914,0.875977,-2.4375,23.5,-0.875,-0.035404,-0.487127,1.15972
4901,8,-13,-30,5,-12,5,9,-11,0.426758,-0.0336914,0.875977,-2.4375,23.5,-0.875,-0.035404,-0.487127,1.15972
4901,-54,-3,-12,-2,8,-16,-10,-31,0.426758,-0.0336914,0.875977,-2.4375,23.5,-0.875,-0.035404,-0.487127,1.15972
4902,4,19,23,42,31,18,13,27,0.413574,-0.0429688,0.899902,-2.75,25.125,1.125,-0.0366725,-0.477133,1.15991
4902,9,10,16,-2,4,13,10,0,0.413574,-0.0429688,0.899902,-2.75,25.125,1.125,-0.0366725,-0.477133,1.15991
4902,14,-1,0,-34,-43,-18,-3,18,0.413574,-0.0429688,0.899902,-2.75,25.125,1.125,-0.0366725,-0.477133,1.15991
4902,-37,-9,-11,-23,-12,-14,-16,-65,0.413574,-0.0429688,0.899902,-2.75,25.125,1.125,-0.0366725,-0.477133,1.15991
4914,-7,-13,-36,-14,-3,-2,2,-2,0.394531,-0.0385742,0.897461,-2.5625,25.375,1.0625,-0.0376753,-0.467013,1.16004
4914,-11,7,35,25,5,-12,-21,-82,0.394531,-0.0385742,0.897461,-2.5625,25.375,1.0625,-0.0376753,-0.467013,1.16004
4921,-2,3,11,37,34,8,6,24,0.394531,-0.0385742,0.897461,-2.5625,25.375,1.0625,-0.0376753,-0.467013,1.16004
4921,18,-4,-3,-10,-16,7,7,-9,0.394531,-0.0385742,0.897461,-2.5625,25.375,1.0625,-0.0376753,-0.467013,1.16004
4937,14,-7,-23,-53,-16,4,19,30,0.392578,-0.027832,0.885742,-0.6875,25.3125,0.4375,-0.0377291,-0.457187,1.15986
4937,-10,-2,-1,27,17,-2,-13,-15,0.392578,-0.027832,0.885742,-0.6875,25.3125,0.4375,-0.0377291,-0.457187,1.15986
4944,-17,3,26,29,7,6,-6,-41,0.392578,-0.027832,0.885742,-0.6875,25.3125,0.4375,-0.0377291,-0.457187,1.15986
4944,20,-4,-16,-13,-18,-8,-2,36,0.392578,-0.027832,0.885742,-0.6875,25.3125,0.4375,-0.0377291,-0.457187,1.15986
4977,-5,3,12,22,9,12,7,-6,0.362305,-0.0405273,0.870605,-0.3125,25.3125,1.625,-0.0380549,-0.447092,1.16016
4977,12,-10,-29,-44,-14,-14,-11,19,0.362305,-0.0405273,0.870605,-0.3125,25.3125,1.625,-0.0380549,-0.447092,1.16016
4978,-8,-5,-11,21,5,-1,3,3,0.362305,-0.0405273,0.870605,-0.3125,25.3125,1.625,-0.0380549,-0.447092,1.16016
4978,12,9,42,3,6,-7,1,-2,0.362305,-0.0405273,0.870605,-0.3125,25.3125,1.625,-0.0380549,-0.447092,1.16016
4982,5,-3,-1,21,12,0,-10,8,0.37207,-0.0605469,0.871094,2.625,22.4375,2.4375,-0.0381663,-0.43828,1.1611
4982,19,5,-9,23,-7,12,19,41,0.37207,-0.0605469,0.871094,2.625,22.4375,2.4375,-0.0381663,-0.43828,1.1611
4982,-46,-2,3,5,-16,-1,3,38,0.37207,-0.0605469,0.871094,2.625,22.4375,2.4375,-0.0381663,-0.43828,1.1611
4982,-24,-18,-25,-33,-34,-8,-7,-8,0.37207,-0.0605469,0.871094,2.625,22.4375,2.4375,-0.0381663,-0.43828,1.1611
4996,10,0,-22,-11,25,18,11,12,0.378418,-0.0141602,0.851074,5.25,19.9375,0.6875,-0.0357679,-0.431139,1.1609
4996,9,20,58,47,37,5,-6,9,0.378418,-0.0141602,0.851074,5.25,19.9375,0.6875,-0.0357679,-0.431139,1.1609
5004,22,4,19,26,9,13,23,30,0.378418,-0.0141602,0.851074,5.25,19.9375,0.6875,-0.0357679,-0.431139,1.1609
5004,17,-11,-34,-62,-32,-4,1,-43,0.378418,-0.0141602,0.851074,5.25,19.9375,0.6875,-0.0357679,-0.431139,1.1609
5021,-36,-15,-35,-52,-28,-23,-26,-33,0.36084,-0.0161133,0.84375,3,16.6875,-1.6875,-0.0340681,-0.424784,1.15993
5021,0,21,32,2,9,-16,-21,13,0.36084,-0.0161133,0.84375,3,16.6875,-1.6875,-0.0340681,-0.424784,1.15993
5022,-5,-9,-8,7,12,13,15,-11,0.36084,-0.0161133,0.84375,3,16.6875,-1.6875,-0.0340681,-0.424784,1.15993
5022,1,-4,1,30,20,7,-16,13,0.36084,-0.0161133,0.84375,3,16.6875,-1.6875,-0.0340681,-0.424784,1.15993
5034,37,9,21,21,10,2,7,18,0.381348,-0.0385742,0.864746,4,12.875,-1.3125,-0.0327145,-0.420216,1.15937
5034,-36,-14,-45,-63,-33,-8,-5,-51,0.381348,-0.0385742,0.864746,4,12.875,-1.3125,-0.0327145,-0.420216,1.15937
5041,3,8,24,-30,-15,-13,-8,-16,0.381348,-0.0385742,0.864746,4,12.875,-1.3125,-0.0327145,-0.420216,1.15937
5041,11,4,7,73,49,19,12,20,0.381348,-0.0385742,0.864746,4,12.875,-1.3125,-0.0327145,-0.420216,1.15937
5064,14,9,38,19,-1,7,20,17,0.365723,-0.0258789,0.842285,5.5625,9.5625,-1.1875,-0.03043,-0.416691,1.15875
5064,-6,-14,-20,-36,-48,-19,-18,8,0.365723,-0.0258789,0.842285,5.5625,9.5625,-1.1875,-0.03043,-0.416691,1.15875
5065,-7,1,-38,-75,-14,-10,15,-44,0.365723,-0.0258789,0.842285,5.5625,9.5625,-1.1875,-0.03043,-0.416691,1.15875
5065,10,1,4,57,50,-12,-17,37,0.365723,-0.0258789,0.842285,5.5625,9.5625,-1.1875,-0.03043,-0.416691,1.15875
5080,2,15,68,86,30,28,-12,-14,0.375,-0.0151367,0.843262,5.8125,6,-1.5,-0.0278999,-0.414671,1.15804
5080,-20,-8,-12,-3,-6,-2,0,-28,0.375,-0.0151367,0.843262,5.8125,6,-1.5,-0.0278999,-0.414671,1.15804
5080,7,-9,-21,-53,-34,0,18,-6,0.375,-0.0151367,0.843262,5.8125,6,-1.5,-0.0278999,-0.414671,1.15804
5080,-16,-17,-37,-60,-28,-18,-27,-24,0.375,-0.0151367,0.843262,5.8125,6,-1.5,-0.0278999,-0.414671,1.15804
5094,-5,5,17,8,-4,-21,-10,1,0.396973,-0.0292969,0.853027,3.6875,3.6875,-2.8125,-0.026435,-0.413878,1.15716
5094,17,-17,-32,-13,-11,2,9,14,0.396973,-0.0292969,0.853027,3.6875,3.6875,-2.8125,-0.026435,-0.413878,1.15716
5101,4,10,10,7,13,7,2,12,0.396973,-0.0292969,0.853027,3.6875,3.6875,-2.8125,-0.026435,-0.413878,1.15716
5101,-8,-3,-12,27,14,-5,0,5,0.396973,-0.0292969,0.853027,3.6875,3.6875,-2.8125,-0.026435,-0.413878,1.15716
5116,0,1,31,-22,-10,-4,-3,2,0.37207,-0.0512695,0.852051,5.6875,1.875,-4.4375,-0.0245603,-0.41328,1.15576
5116,-1,-5,-16,31,30,5,-1,16,0.37207,-0.0512695,0.852051,5.6875,1.875,-4.4375,-0.0245603,-0.41328,1.15576
5124,15,9,27,19,-3,7,21,28,0.37207,-0.0512695,0.852051,5.6875,1.875,-4.4375,-0.0245603,-0.41328,1.15576
5124,-20,-5,-36,-82,-63,-10,-17,-15,0.37207,-0.0512695,0.852051,5.6875,1.875,-4.4375,-0.0245603,-0.41328,1.15576
5139,-14,-15,-24,19,26,-12,4,4,0.396484,-0.0395508,0.855469,7.375,-0.375,-5.375,-0.0217063,-0.413857,1.15389
5139,19,17,50,48,33,8,10,43,0.396484,-0.0395508,0.855469,7.375,-0.375,-5.375,-0.0217063,-0.413857,1.15389
5140,0,7,21,9,1,-5,-12,-24,0.396484,-0.0395508,0.855469,7.375,-0.375,-5.375,-0.0217063,-0.413857,1.15389
5140,-15,-4,-13,-35,-26,7,14,2,0.396484,-0.0395508,0.855469,7.375,-0.375,-5.375,-0.0217063,-0.413857,1.15389
5154,-20,-11,-35,-54,-55,-27,-9,-13,0.416504,-0.0234375,0.864258,1.875,-1.3125,-4.8125,-0.020356,-0.415113,1.15216
5154,1,-10,-13,-22,0,4,-2,1,0.416504,-0.0234375,0.864258,1.875,-1.3125,-4.8125,-0.020356,-0.415113,1.15216
5161,4,8,13,48,32,-2,-22,5,0.416504,-0.0234375,0.864258,1.875,-1.3125,-4.8125,-0.020356,-0.415113,1.15216
5161,29,14,45,48,31,21,10,-1,0.416504,-0.0234375,0.864258,1.875,-1.3125,-4.8125,-0.020356,-0.415113,1.15216
5177,0,3,-31,-25,-12,7,23,-8,0.380859,-0.0297852,0.864746,-0.5625,-0.0625,-4.625,-0.0201784,-0.415166,1.15049
5177,-33,-24,-15,-20,-33,-22,-18,-11,0.380859,-0.0297852,0.864746,-0.5625,-0.0625,-4.625,-0.0201784,-0.415166,1.15049
5184,25,3,-10,-24,-10,-2,3,3,0.380859,-0.0297852,0.864746,-0.5625,-0.0625,-4.625,-0.0201784,-0.415166,1.15049
5184,6,-7,-18,7,27,-4,2,-13,0.380859,-0.0297852,0.864746,-0.5625,-0.0625,-4.625,-0.0201784,-0.415166,1.15049
5200,-10,2,7,55,31,11,-3,18,0.376953,-0.0332031,0.869141,0.9375,0.1875,-5.6875,-0.0194583,-0.414931,1.14851
5200,-19,12,42,10,-13,-8,-4,-47,0.376953,-0.0332031,0.869141,0.9375,0.1875,-5.6875,-0.0194583,-0.414931,1.14851
5200,-9,-10,-37,-19,-12,1,-11,-24,0.376953,-0.0332031,0.869141,0.9375,0.1875,-5.6875,-0.0194583,-0.414931,1.14851
5200,-34,5,27,-22,-18,0,1,25,0.376953,-0.0332031,0.869141,0.9375,0.1875,-5.6875,-0.0194583,-0.414931,1.14851
5214,41,4,-7,-5,10,5,0,2,0.361816,-0.012207,0.851562,1.0625,-0.0625,-4.4375,-0.0183295,-0.414692,1.14675
5214,17,-13,-39,-33,-21,-11,-3,72,0.361816,-0.012207,0.851562,1.0625,-0.0625,-4.4375,-0.0183295,-0.414692,1.14675
5221,-32,-13,12,27,12,-13,-18,-65,0.361816,-0.012207,0.851562,1.0625,-0.0625,-4.4375,-0.0183295,-0.414692,1.14675
5221,23,17,22,37,31,27,29,56,0.361816,-0.012207,0.851562,1.0625,-0.0625,-4.4375,-0.0183295,-0.414692,1.14675
5236,-17,-13,-24,0,-18,-17,-19,-51,0.337402,-0.0288086,0.867676,-1.5,0.8125,-5.625,-0.0182814,-0.41343,1.14477
5236,22,-2,-16,-47,-28,3,9,15,0.337402,-0.0288086,0.867676,-1.5,0.8125,-5.625,-0.0182814,-0.41343,1.14477
5243,4,14,25,22,13,0,1,35,0.337402,-0.0288086,0.867676,-1.5,0.8125,-5.625,-0.0182814,-0.41343,1.14477
5243,22,2,24,-5,8,6,7,-5,0.337402,-0.0288086,0.867676,-1.5,0.8125,-5.625,-0.0182814,-0.41343,1.14477
5259,-21,-11,-29,-13,-15,8,6,-21,0.333984,-0.0371094,0.867188,-2.25,0.3125,-5.8125,-0.0188114,-0.412407,1.14283
5259,-2,-1,2,3,5,-14,-8,-8,0.333984,-0.0371094,0.867188,-2.25,0.3125,-5.8125,-0.0188114,-0.412407,1.14283
5259,-13,-1,6,35,28,10,-5,-6,0.333984,-0.0371094,0.867188,-2.25,0.3125,-5.8125,-0.0188114,-0.412407,1.14283
5259,7,8,26,-23,-26,-21,-11,-2,0.333984,-0.0371094,0.867188,-2.25,0.3125,-5.8125,-0.0188114,-0.412407,1.14283
5274,7,-7,-13,-10,1,17,14,27,0.330078,-0.0361328,0.871094,-1.6875,0.3125,-5.625,-0.0189489,-0.411188,1.14091
5274,6,1,11,26,17,-2,-8,-1,0.330078,-0.0361328,0.871094,-1.6875,0.3125,-5.625,-0.0189489,-0.411188,1.14091
5281,-13,-20,-53,-66,-31,-12,-1,21,0.330078,-0.0361328,0.871094,-1.6875,0.3125,-5.625,-0.0189489,-0.411188,1.14091
5281,0,7,24,36,10,-1,-11,-47,0.330078,-0.0361328,0.871094,-1.6875,0.3125,-5.625,-0.0189489,-0.411188,1.14091
5297,8,7,44,15,-6,-1,4,37,0.325684,-0.0317383,0.857422,0.5,0.75,-5.6875,-0.0182819,-0.409894,1.13896
5297,2,-1,-18,-17,17,11,20,-8,0.325684,-0.0317383,0.857422,0.5,0.75,-5.6875,-0.0182819,-0.409894,1.13896
5304,-41,-7,3,20,6,-2,-17,-54,0.325684,-0.0317383,0.857422,0.5,0.75,-5.6875,-0.0182819,-0.409894,1.13896
5304,7,-14,-31,-30,-44,-15,-8,12,0.325684,-0.0317383,0.857422,0.5,0.75,-5.6875,-0.0182819,-0.409894,1.13896
5319,-8,-4,-29,-56,-18,-17,-25,-11,0.350586,-0.0297852,0.868652,4,1,-7.1875,-0.0162417,-0.408928,1.1363
5319,4,12,18,56,42,20,17,-26,0.350586,-0.0297852,0.868652,4,1,-7.1875,-0.0162417,-0.408928,1.1363
5319,24,3,25,2,-16,-13,-11,46,0.350586,-0.0297852,0.868652,4,1,-7.1875,-0.0162417,-0.408928,1.1363
5319,3,-13,-21,-20,-20,-20,13,-14,0.350586,-0.0297852,0.868652,4,1,-7.1875,-0.0162417,-0.408928,1.1363
5334,-24,5,4,41,49,47,-8,-28,0.364258,-0.00488281,0.869141,3.6875,1.125,-5.5,-0.0139345,-0.408343,1.13409
5334,-8,-4,8,0,-12,-12,-16,-42,0.364258,-0.00488281,0.869141,3.6875,1.125,-5.5,-0.0139345,-0.408343,1.13409
5342,18,-3,-21,-12,-5,5,8,38,0.364258,-0.00488281,0.869141,3.6875,1.125,-5.5,-0.0139345,-0.408343,1.13409
5342,-18,6,-4,-24,-26,7,17,5,0.364258,-0.00488281,0.869141,3.6875,1.125,-5.5,-0.0139345,-0.408343,1.13409
5356,38,1,-11,10,8,-6,-3,51,0.354492,-0.00830078,0.879883,1.6875,1.25,-4.5,-0.0126229,-0.407335,1.13236
5356,-42,-3,-1,-28,-11,-7,-19,-35,0.354492,-0.00830078,0.879883,1.6875,1.25,-4.5,-0.0126229,-0.407335,1.13236
5364,15,-5,-9,33,20,-1,0,13,0.354492,-0.00830078,0.879883,1.6875,1.25,-4.5,-0.0126229,-0.407335,1.13236
5364,-3,-2,20,7,-5,6,1,-49,0.354492,-0.00830078,0.879883,1.6875,1.25,-4.5,-0.0126229,-0.407335,1.13236
5380,-22,-7,-48,-13,0,-9,-2,-2,0.358398,-0.0117188,0.88623,0.625,1.375,-4.25,-0.0118062,-0.40635,1.1309
5380,-7,6,27,41,24,7,6,-7,0.358398,-0.0117188,0.88623,0.625,1.375,-4.25,-0.0118062,-0.40635,1.1309
5381,15,-8,-10,-47,-49,-8,-1,-17,0.358398,-0.0117188,0.88623,0.625,1.375,-4.25,-0.0118062,-0.40635,1.1309
5381,0,-7,-48,-31,14,3,-2,49,0.358398,-0.0117188,0.88623,0.625,1.375,-4.25,-0.0118062,-0.40635,1.1309
5401,-15,9,53,19,15,-5,-4,-26,0.35791,-0.0141602,0.869629,1.9375,2,-3.5625,-0.0106825,-0.405252,1.12946
5401,15,-1,-21,16,-12,7,8,10,0.35791,-0.0141602,0.869629,1.9375,2,-3.5625,-0.0106825,-0.405252,1.12946
5402,2,-5,-9,-5,-24,-3,11,12,0.35791,-0.0141602,0.869629,1.9375,2,-3.5625,-0.0106825,-0.405252,1.12946
5402,-4,-7,-25,16,38,1,10,9,0.35791,-0.0141602,0.869629,1.9375,2,-3.5625,-0.0106825,-0.405252,1.12946
5417,-18,3,40,-17,-3,1,-28,-15,0.361816,-0.00830078,0.876465,0.8125,2.375,-2.625,-0.00993254,-0.404142,1.12857
5417,15,15,25,20,6,-19,4,25,0.361816,-0.00830078,0.876465,0.8125,2.375,-2.625,-0.00993254,-0.404142,1.12857
5424,-13,-13,-40,-1,0,6,-4,-21,0.361816,-0.00830078,0.876465,0.8125,2.375,-2.625,-0.00993254,-0.404142,1.12857
5424,-5,1,-17,-7,-28,-5,2,-1,0.361816,-0.00830078,0.876465,0.8125,2.375,-2.625,-0.00993254,-0.404142,1.12857
5440,4,-5,-14,-19,-12,-16,0,-20,0.338867,-0.0229492,0.873535,-0.1875,2.625,-1.4375,-0.0101207,-0.402482,1.12808
5440,1,1,18,-23,-18,11,5,-5,0.338867,-0.0229492,0.873535,-0.1875,2.625,-1.4375,-0.0101207,-0.402482,1.12808
5440,5,9,37,42,43,15,5,6,0.338867,-0.0229492,0.873535,-0.1875,2.625,-1.4375,-0.0101207,-0.402482,1.12808
5440,-19,-8,-11,12,1,-10,-9,-15,0.338867,-0.0229492,0.873535,-0.1875,2.625,-1.4375,-0.0101207,-0.402482,1.12808
5453,-4,-1,-11,-11,-12,-14,0,2,0.32959,-0.0258789,0.865234,1.3125,2.1875,-1.4375,-0.00995623,-0.400948,1.12787
5453,3,5,7,21,20,17,11,-9,0.32959,-0.0258789,0.865234,1.3125,2.1875,-1.4375,-0.00995623,-0.400948,1.12787
5470,-9,1,16,7,2,-5,-11,-13,0.32959,-0.0258789,0.865234,1.3125,2.1875,-1.4375,-0.00995623,-0.400948,1.12787
5470,17,0,-4,-24,-22,3,-1,27,0.32959,-0.0258789,0.865234,1.3125,2.1875,-1.4375,-0.00995623,-0.400948,1.12787
5484,-7,6,21,-17,-15,-8,11,-7,0.350586,-0.0205078,0.855957,1.5,2.0625,-2.6875,-0.00938058,-0.399843,1.12683
5484,2,-8,-10,26,20,-10,-4,17,0.350586,-0.0205078,0.855957,1.5,2.0625,-2.6875,-0.00938058,-0.399843,1.12683
5485,-21,-4,7,-26,-11,-3,-16,-17,0.350586,-0.0205078,0.855957,1.5,2.0625,-2.6875,-0.00938058,-0.399843,1.12683
5485,7,7,21,3,14,12,5,24,0.350586,-0.0205078,0.855957,1.5,2.0625,-2.6875,-0.00938058,-0.399843,1.12683
5499,-6,-5,5,-6,-23,4,7,-21,0.35498,-0.0180664,0.863281,0,3.1875,-1.5,-0.00938186,-0.398612,1.12639
5499,-3,1,-19,-19,-12,-6,-13,-29,0.35498,-0.0180664,0.863281,0,3.1875,-1.5,-0.00938186,-0.398612,1.12639
5507,-8,-4,-15,29,17,-2,4,-12,0.35498,-0.0180664,0.863281,0,3.1875,-1.5,-0.00938186,-0.398612,1.12639
5507,29,-2,7,2,3,0,-1,35,0.35498,-0.0180664,0.863281,0,3.1875,-1.5,-0.00938186,-0.398612,1.12639
5513,-1,5,-5,-5,3,2,11,47,0.349609,-0.043457,0.885254,1,5.3125,-1.875,-0.00967256,-0.396164,1.12597
5513,-26,-1,4,9,8,6,-10,-25,0.349609,-0.043457,0.885254,1,5.3125,-1.875,-0.00967256,-0.396164,1.12597
5521,12,2,-23,-25,-16,-7,-9,-14,0.349609,-0.043457,0.885254,1,5.3125,-1.875,-0.00967256,-0.396164,1.12597
5521,-16,1,2,6,7,-8,4,-9,0.349609,-0.043457,0.885254,1,5.3125,-1.875,-0.00967256,-0.396164,1.12597
5536,34,-1,-1,31,2,-6,-4,30,0.369629,-0.0229492,0.879883,2.1875,6.8125,-1.5,-0.00902496,-0.393863,1.12552
5536,1,3,2,-6,2,4,6,-3,0.369629,-0.0229492,0.879883,2.1875,6.8125,-1.5,-0.00902496,-0.393863,1.12552
5543,-5,-1,-2,-12,-12,-6,3,7,0.369629,-0.0229492,0.879883,2.1875,6.8125,-1.5,-0.00902496,-0.393863,1.12552
5543,5,-7,-11,6,13,22,14,3,0.369629,-0.0229492,0.879883,2.1875,6.8125,-1.5,-0.00902496,-0.393863,1.12552
5574,-33,1,3,0,0,-3,-12,-39,0.338379,0.0107422,0.874023,1.3125,8.0625,-0.875,-0.00803853,-0.390605,1.12506
5574,9,-11,-6,-49,-32,-15,-16,4,0.338379,0.0107422,0.874023,1.3125,8.0625,-0.875,-0.00803853,-0.390605,1.12506
5577,-3,3,-4,25,14,-8,9,5,0.322754,0.000976562,0.879883,-3.5625,7.4375,-2.5625,-0.00859944,-0.387189,1.12402
5577,10,3,30,17,12,2,-8,-2,0.322754,0.000976562,0.879883,-3.5625,7.4375,-2.5625,-0.00859944,-0.387189,1.12402
5605,9,3,-13,-12,-2,2,31,18,0.322754,0.000976562,0.879883,-3.5625,7.4375,-2.5625,-0.00859944,-0.387189,1.12402
5605,7,2,33,37,24,17,-22,7,0.322754,0.000976562,0.879883,-3.5625,7.4375,-2.5625,-0.00859944,-0.387189,1.12402
5607,1,6,7,-12,-2,-2,-2,5,0.316895,-0.0205078,0.885742,-3.375,6.5625,-1.125,-0.00989273,-0.383993,1.12373
5607,-10,-12,-41,-37,-24,5,-1,-9,0.316895,-0.0205078,0.885742,-3.375,6.5625,-1.125,-0.00989273,-0.383993,1.12373
5619,-1,-11,-33,-36,-17,-15,-15,-5,0.316895,-0.0205078,0.885742,-3.375,6.5625,-1.125,-0.00989273,-0.383993,1.12373
5619,24,-6,7,-6,-11,-2,15,13,0.316895,-0.0205078,0.885742,-3.375,6.5625,-1.125,-0.00989273,-0.383993,1.12373
5628,15,5,2,3,29,20,10,6,0.29541,-0.0249023,0.88623,-0.9375,5.5,-1.75,-0.0103765,-0.380685,1.12324
5628,-21,10,33,52,14,2,-2,-25,0.29541,-0.0249023,0.88623,-0.9375,5.5,-1.75,-0.0103765,-0.380685,1.12324
5651,0,-3,9,-14,0,-17,-16,-19,0.29541,-0.0249023,0.88623,-0.9375,5.5,-1.75,-0.0103765,-0.380685,1.12324
5651,2,5,-19,-19,-1,19,7,24,0.29541,-0.0249023,0.88623,-0.9375,5.5,-1.75,-0.0103765,-0.380685,1.12324
5653,-4,-12,-11,16,-1,-5,-6,-7,0.324219,-0.0136719,0.869629,-3.125,4.125,-3.625,-0.0112012,-0.376494,1.12068
5653,20,5,18,4,-3,-1,13,29,0.324219,-0.0136719,0.869629,-3.125,4.125,-3.625,-0.0112012,-0.376494,1.12068
5671,3,7,-5,-4,-12,-6,-7,4,0.324219,-0.0136719,0.869629,-3.125,4.125,-3.625,-0.0112012,-0.376494,1.12068
5671,-11,-23,-43,-40,-21,-17,-9,-40,0.324219,-0.0136719,0.869629,-3.125,4.125,-3.625,-0.0112012,-0.376494,1.12068
5680,8,12,21,-35,-19,-2,6,7,0.342773,-0.0200195,0.873535,-5.75,4.125,-3.1875,-0.0129539,-0.374966,1.1195
5680,-25,-20,-27,3,15,-5,-7,-1,0.342773,-0.0200195,0.873535,-5.75,4.125,-3.1875,-0.0129539,-0.374966,1.1195
5694,10,4,4,23,20,6,14,-52,0.342773,-0.0200195,0.873535,-5.75,4.125,-3.1875,-0.0129539,-0.374966,1.1195
5694,-3,14,22,42,18,-2,-16,20,0.342773,-0.0200195,0.873535,-5.75,4.125,-3.1875,-0.0129539,-0.374966,1.1195
5703,18,4,36,19,-1,21,10,18,0.353516,-0.0356445,0.887207,-1.625,4.4375,-2.6875,-0.0138473,-0.373598,1.11878
5703,-32,1,-14,-29,-21,-22,-29,-66,0.353516,-0.0356445,0.887207,-1.625,4.4375,-2.6875,-0.0138473,-0.373598,1.11878
5733,25,-16,-19,-50,-42,-17,18,33,0.353516,-0.0356445,0.887207,-1.625,4.4375,-2.6875,-0.0138473,-0.373598,1.11878
5733,-22,5,-17,12,22,12,-1,29,0.353516,-0.0356445,0.887207,-1.625,4.4375,-2.6875,-0.0138473,-0.373598,1.11878
5734,-32,-2,18,54,35,-10,-11,-37,0.360352,0.000488281,0.878418,2.0625,4.875,-1.625,-0.0125762,-0.372265,1.11808
5734,26,14,29,-26,-22,-4,13,13,0.360352,0.000488281,0.878418,2.0625,4.875,-1.625,-0.0125762,-0.372265,1.11808
5748,-30,-9,-24,20,1,14,-20,-4,0.360352,0.000488281,0.878418,2.0625,4.875,-1.625,-0.0125762,-0.372265,1.11808
5748,27,-2,2,-3,-6,-17,12,29,0.360352,0.000488281,0.878418,2.0625,4.875,-1.625,-0.0125762,-0.372265,1.11808
5750,-12,-5,18,-29,-10,3,1,-13,0.35791,0.0131836,0.884766,0.375,5.125,-1.875,-0.0114708,-0.370791,1.1171
5750,13,-4,-36,-6,7,-3,-9,-14,0.35791,0.0131836,0.884766,0.375,5.125,-1.875,-0.0114708,-0.370791,1.1171
5770,11,-2,23,15,6,7,5,0,0.342773,-0.0131836,0.900879,-0.875,4.6875,0.625,-0.0119246,-0.369075,1.11741
5770,-16,-2,-1,-25,-29,-7,6,0,0.342773,-0.0131836,0.900879,-0.875,4.6875,0.625,-0.0119246,-0.369075,1.11741
5772,11,-5,5,1,14,5,5,30,0.328613,-0.0170898,0.894043,1.8125,3.625,1,-0.0116605,-0.367364,1.11772
5772,-14,4,4,5,-5,-17,-15,-31,0.328613,-0.0170898,0.894043,1.8125,3.625,1,-0.0116605,-0.367364,1.11772
5792,-17,5,13,7,23,26,16,8,0.328613,-0.0170898,0.894043,1.8125,3.625,1,-0.0116605,-0.367364,1.11772
5792,4,-3,12,17,6,9,-9,-54,0.328613,-0.0170898,0.894043,1.8125,3.625,1,-0.0116605,-0.367364,1.11772
5806,1,-10,-30,-14,-14,-3,14,48,0.319824,-0.00292969,0.880371,2.8125,3.0625,0.875,-0.010518,-0.365924,1.11808
5806,-13,4,2,-6,-12,-10,-32,-23,0.319824,-0.00292969,0.880371,2.8125,3.0625,0.875,-0.010518,-0.365924,1.11808
5822,0,-8,-29,-36,-34,-8,5,5,0.319824,-0.00292969,0.880371,2.8125,3.0625,0.875,-0.010518,-0.365924,1.11808
5822,7,8,19,10,35,-1,5,3,0.319824,-0.00292969,0.880371,2.8125,3.0625,0.875,-0.010518,-0.365924,1.11808
5824,-3,-3,-4,59,20,2,1,5,0.316895,-0.019043,0.884766,0.5625,2.375,1.6875,-0.0108662,-0.364627,1.11888
5824,19,16,28,-3,7,27,25,64,0.316895,-0.019043,0.884766,0.5625,2.375,1.6875,-0.0108662,-0.364627,1.11888
5853,-12,-6,-11,18,1,-15,-32,-38,0.316895,-0.019043,0.884766,0.5625,2.375,1.6875,-0.0108662,-0.364627,1.11888
5853,-1,-16,-40,-52,-41,-18,8,5,0.316895,-0.019043,0.884766,0.5625,2.375,1.6875,-0.0108662,-0.364627,1.11888
5854,24,2,-27,-50,-18,-14,-6,13,0.294434,-0.0239258,0.871094,1,1.4375,1.4375,-0.0110155,-0.363278,1.11947
5854,-16,-8,6,65,32,12,9,5,0.294434,-0.0239258,0.871094,1,1.4375,1.4375,-0.0110155,-0.363278,1.11947
5868,-4,3,23,1,-3,-3,-14,1,0.294434,-0.0239258,0.871094,1,1.4375,1.4375,-0.0110155,-0.363278,1.11947
5868,14,2,-29,-23,3,2,4,7,0.294434,-0.0239258,0.871094,1,1.4375,1.4375,-0.0110155,-0.363278,1.11947
5870,-10,3,15,6,-3,-7,0,-12,0.314941,-0.0166016,0.869629,0.875,-0.375,-0.9375,-0.0106568,-0.362185,1.11954
5870,17,-4,-4,-10,-19,-8,15,-11,0.314941,-0.0166016,0.869629,0.875,-0.375,-0.9375,-0.0106568,-0.362185,1.11954
5898,-26,2,-1,20,11,-11,-26,-6,0.314941,-0.0166016,0.869629,0.875,-0.375,-0.9375,-0.0106568,-0.362185,1.11954
5898,-1,0,9,41,18,3,7,9,0.314941,-0.0166016,0.869629,0.875,-0.375,-0.9375,-0.0106568,-0.362185,1.11954
5899,4,2,-10,-51,-34,-3,-2,0,0.317383,-0.0239258,0.876953,0.75,-1.0625,-0.375,-0.0106568,-0.362185,1.11954
